3.991992e+002,0.000000e+000
4.011277e+002,0.000000e+000
4.030562e+002,0.000000e+000
4.049846e+002,0.000000e+000
4.069131e+002,0.000000e+000
4.088416e+002,0.000000e+000
4.107701e+002,0.000000e+000
4.126986e+002,0.000000e+000
4.146271e+002,0.000000e+000
4.165556e+002,0.000000e+000
4.184841e+002,0.000000e+000
4.204126e+002,0.000000e+000
4.223411e+002,0.000000e+000
4.242697e+002,0.000000e+000
4.261982e+002,0.000000e+000
4.281266e+002,0.000000e+000
4.300551e+002,0.000000e+000
4.319836e+002,0.000000e+000
4.339121e+002,0.000000e+000
4.358406e+002,0.000000e+000
4.377691e+002,0.000000e+000
4.396976e+002,0.000000e+000
4.416261e+002,0.000000e+000
4.435546e+002,0.000000e+000
4.454831e+002,0.000000e+000
4.474116e+002,0.000000e+000
4.493401e+002,0.000000e+000
4.512686e+002,0.000000e+000
4.531971e+002,0.000000e+000
4.551256e+002,0.000000e+000
4.570541e+002,0.000000e+000
4.589826e+002,0.000000e+000
4.609111e+002,0.000000e+000
4.628396e+002,0.000000e+000
4.647681e+002,0.000000e+000
4.666966e+002,0.000000e+000
4.686251e+002,0.000000e+000
4.705536e+002,0.000000e+000
4.724821e+002,0.000000e+000
4.744106e+002,0.000000e+000
4.763391e+002,0.000000e+000
4.782676e+002,0.000000e+000
4.801961e+002,0.000000e+000
4.821246e+002,0.000000e+000
4.840531e+002,0.000000e+000
4.859816e+002,0.000000e+000
4.879101e+002,0.000000e+000
4.898386e+002,0.000000e+000
4.917671e+002,0.000000e+000
4.936956e+002,0.000000e+000
4.956241e+002,0.000000e+000
4.975526e+002,0.000000e+000
4.994811e+002,0.000000e+000
5.014096e+002,0.000000e+000
5.033381e+002,0.000000e+000
5.052666e+002,0.000000e+000
5.071951e+002,0.000000e+000
5.091236e+002,0.000000e+000
5.110521e+002,0.000000e+000
5.129806e+002,0.000000e+000
5.149091e+002,0.000000e+000
5.168376e+002,0.000000e+000
5.187661e+002,0.000000e+000
5.206946e+002,0.000000e+000
5.226230e+002,0.000000e+000
5.245516e+002,-9.223763e-004
5.264800e+002,-1.197724e-003
5.284086e+002,-1.135425e-003
5.303370e+002,-1.056929e-003
5.322656e+002,-1.035972e-003
5.341940e+002,-1.018916e-003
5.361226e+002,-9.781299e-004
5.380510e+002,-9.819027e-004
5.399796e+002,-9.932416e-004
5.419081e+002,-1.057412e-003
5.438365e+002,-1.139879e-003
5.457650e+002,-1.196017e-003
5.476935e+002,-1.078878e-003
5.496221e+002,-9.281589e-004
5.515505e+002,-9.262385e-004
5.534790e+002,-8.754954e-004
5.554075e+002,-7.490059e-004
5.573361e+002,-8.493382e-004
5.592645e+002,-1.007358e-003
5.611931e+002,-1.059113e-003
5.631215e+002,-9.623803e-004
5.650500e+002,-9.777155e-004
5.669785e+002,-9.554597e-004
5.689070e+002,-8.940473e-004
5.708355e+002,-8.845860e-004
5.727640e+002,-9.700162e-004
5.746925e+002,-1.022005e-003
5.766210e+002,-1.001433e-003
5.785495e+002,-9.430181e-004
5.804780e+002,-9.635752e-004
5.824065e+002,-8.414872e-004
5.843350e+002,-8.277632e-004
5.862635e+002,-7.646168e-004
5.881920e+002,-7.102704e-004
5.901205e+002,-7.910915e-004
5.920490e+002,-9.139488e-004
5.939775e+002,-9.513590e-004
5.959060e+002,-9.131702e-004
5.978345e+002,-8.049468e-004
5.997630e+002,-7.411446e-004
6.016915e+002,-5.558804e-004
6.036200e+002,-5.323244e-004
6.055485e+002,-4.719775e-004
6.074770e+002,-3.843680e-004
6.094055e+002,-4.050639e-004
6.113340e+002,-4.708786e-004
6.132625e+002,-5.338062e-004
6.151910e+002,-5.872268e-004
6.171195e+002,-5.315579e-004
6.190480e+002,-4.752893e-004
6.209765e+002,-4.393831e-004
6.229050e+002,-3.560651e-004
6.248335e+002,-2.866872e-004
6.267620e+002,-3.094729e-004
6.286905e+002,-2.784189e-004
6.306190e+002,-2.331901e-004
6.325475e+002,-1.719147e-004
6.344760e+002,-1.339149e-004
6.364045e+002,-1.084432e-004
6.383330e+002,-1.227204e-004
6.402615e+002,4.993752e-005
6.421899e+002,5.803630e-005
6.441185e+002,2.622232e-005
6.460470e+002,1.751445e-004
6.479755e+002,1.993235e-004
6.499039e+002,9.174645e-005
6.518325e+002,6.860122e-005
6.537610e+002,9.127893e-005
6.556895e+002,2.647508e-004
6.576179e+002,4.229639e-004
6.595464e+002,5.267840e-004
6.614750e+002,4.896019e-004
6.634034e+002,4.563052e-004
6.653319e+002,4.369747e-004
6.672604e+002,5.864184e-004
6.691890e+002,6.531961e-004
6.711174e+002,6.894991e-004
6.730460e+002,7.387381e-004
6.749745e+002,8.861050e-004
6.769030e+002,1.038145e-003
6.788314e+002,1.226118e-003
6.807599e+002,1.325695e-003
6.826885e+002,1.446208e-003
6.846169e+002,1.532182e-003
6.865454e+002,1.668388e-003
6.884739e+002,1.870805e-003
6.904025e+002,2.176957e-003
6.923309e+002,2.450245e-003
6.942594e+002,2.825070e-003
6.961879e+002,3.198186e-003
6.981165e+002,3.736667e-003
7.000449e+002,4.445348e-003
7.019734e+002,5.429739e-003
7.039019e+002,6.640363e-003
7.058304e+002,8.414360e-003
7.077589e+002,1.069855e-002
7.096874e+002,1.440330e-002
7.116159e+002,2.053473e-002
7.135444e+002,3.241898e-002
7.154729e+002,5.336608e-002
7.174014e+002,8.017682e-002
7.193299e+002,8.564301e-002
7.212584e+002,5.558214e-002
7.231869e+002,3.186458e-002
7.251154e+002,2.625995e-002
7.270439e+002,3.350363e-002
7.289724e+002,5.310059e-002
7.309009e+002,5.661551e-002
7.328294e+002,3.101205e-002
7.347579e+002,1.185929e-002
7.366864e+002,5.556954e-003
7.386149e+002,3.417401e-003
7.405434e+002,2.302531e-003
7.424719e+002,1.746997e-003
7.444004e+002,1.302229e-003
7.463289e+002,1.056802e-003
7.482574e+002,8.145254e-004
7.501859e+002,6.071310e-004
7.521144e+002,4.599784e-004
7.540428e+002,5.127266e-004
7.559714e+002,4.195981e-004
7.578999e+002,3.065038e-004
7.598284e+002,2.675299e-004
7.617568e+002,2.627391e-004
7.636854e+002,2.642591e-004
7.656139e+002,2.948437e-004
7.675424e+002,2.172012e-004
7.694709e+002,1.690630e-004
7.713994e+002,1.592636e-004
7.733279e+002,1.843479e-004
7.752563e+002,1.494735e-004
7.771849e+002,7.867254e-005
7.791134e+002,2.729148e-005
7.810419e+002,6.625801e-005
7.829703e+002,7.992424e-005
7.848989e+002,5.573966e-005
7.868274e+002,8.895434e-005
7.887559e+002,1.022983e-004
7.906843e+002,1.171231e-004
7.926129e+002,1.572259e-004
7.945414e+002,1.461226e-004
7.964698e+002,2.119001e-004
7.983983e+002,2.774633e-004
8.003268e+002,2.901088e-004
8.022554e+002,3.165342e-004
8.041838e+002,3.785659e-004
8.061123e+002,3.760401e-004
8.080408e+002,3.529601e-004
8.099694e+002,3.220141e-004
8.118978e+002,3.238991e-004
8.138263e+002,2.647620e-004
8.157548e+002,2.742130e-004
8.176833e+002,3.053639e-004
8.196118e+002,2.555214e-004
8.215403e+002,2.469178e-004
8.234689e+002,2.817195e-004
8.253973e+002,2.899989e-004
8.273258e+002,2.853144e-004
8.292543e+002,2.477802e-004
8.311829e+002,2.709273e-004
8.331113e+002,2.971943e-004
8.350398e+002,2.925172e-004
8.369683e+002,3.049430e-004
8.388969e+002,2.829693e-004
8.408253e+002,2.559517e-004
8.427538e+002,3.511328e-004
8.446823e+002,3.852602e-004
8.466108e+002,3.147330e-004
8.485393e+002,2.783090e-004
8.504678e+002,3.612041e-004
8.523963e+002,4.092976e-004
8.543248e+002,3.785789e-004
8.562533e+002,3.931541e-004
8.581818e+002,4.465207e-004
8.601103e+002,4.622079e-004
8.620388e+002,4.519429e-004
8.639673e+002,4.743990e-004
8.658958e+002,5.655773e-004
8.678243e+002,5.759913e-004
8.697528e+002,5.532894e-004
8.716813e+002,5.687047e-004
8.736098e+002,5.775671e-004
8.755383e+002,6.213412e-004
8.774668e+002,6.375555e-004
8.793953e+002,6.787665e-004
8.813238e+002,7.430110e-004
8.832523e+002,8.200929e-004
8.851808e+002,8.767303e-004
8.871093e+002,8.770730e-004
8.890378e+002,8.570962e-004
8.909663e+002,8.921530e-004
8.928948e+002,9.268206e-004
8.948232e+002,9.458642e-004
8.967518e+002,1.101505e-003
8.986803e+002,1.244107e-003
9.006088e+002,1.367941e-003
9.025372e+002,1.716767e-003
9.044658e+002,2.336580e-003
9.063943e+002,3.131533e-003
9.083228e+002,3.473135e-003
9.102512e+002,3.034979e-003
9.121797e+002,2.199555e-003
9.141083e+002,1.614626e-003
9.160367e+002,1.289159e-003
9.179653e+002,1.102092e-003
9.198937e+002,1.133140e-003
9.218223e+002,1.099328e-003
9.237507e+002,9.822696e-004
9.256793e+002,9.055790e-004
9.276077e+002,9.607952e-004
9.295363e+002,1.001593e-003
9.314647e+002,9.181648e-004
9.333932e+002,8.780789e-004
9.353217e+002,9.512156e-004
9.372502e+002,9.941570e-004
9.391787e+002,9.843595e-004
9.411072e+002,1.010060e-003
9.430358e+002,1.026880e-003
9.449642e+002,1.067856e-003
9.468928e+002,1.053849e-003
9.488212e+002,1.035836e-003
9.507498e+002,1.032790e-003
9.526782e+002,1.105171e-003
9.546068e+002,1.128184e-003
9.565352e+002,1.173668e-003
9.584637e+002,1.268566e-003
9.603922e+002,1.342805e-003
9.623207e+002,1.391284e-003
9.642492e+002,1.408186e-003
9.661777e+002,1.395656e-003
9.681062e+002,1.419649e-003
9.700347e+002,1.437016e-003
9.719632e+002,1.429621e-003
9.738917e+002,1.382334e-003
9.758202e+002,1.308246e-003
9.777487e+002,1.234084e-003
9.796772e+002,1.206607e-003
9.816057e+002,1.260417e-003
9.835342e+002,1.434542e-003
9.854627e+002,1.620555e-003
9.873912e+002,1.830643e-003
9.893197e+002,1.950888e-003
9.912482e+002,1.946514e-003
9.931767e+002,1.854792e-003
9.951052e+002,1.726013e-003
9.970337e+002,1.638426e-003
9.989622e+002,1.601409e-003
1.000891e+003,1.494266e-003
1.002819e+003,1.399046e-003
1.004748e+003,1.418943e-003
1.006676e+003,1.430366e-003
1.008605e+003,1.444453e-003
1.010533e+003,1.498980e-003
1.012462e+003,1.515184e-003
1.014390e+003,1.567980e-003
1.016319e+003,1.626041e-003
1.018247e+003,1.648588e-003
1.020176e+003,1.656218e-003
1.022104e+003,1.651675e-003
1.024033e+003,1.641573e-003
1.025961e+003,1.637690e-003
1.027890e+003,1.635285e-003
1.029818e+003,1.713207e-003
1.031747e+003,1.749825e-003
1.033675e+003,1.736185e-003
1.035604e+003,1.737429e-003
1.037532e+003,1.761638e-003
1.039461e+003,1.765255e-003
1.041389e+003,1.805769e-003
1.043318e+003,1.860106e-003
1.045246e+003,1.916781e-003
1.047175e+003,1.999818e-003
1.049103e+003,2.167305e-003
1.051032e+003,2.294304e-003
1.052960e+003,2.194490e-003
1.054889e+003,2.132496e-003
1.056817e+003,2.186107e-003
1.058746e+003,2.255423e-003
1.060674e+003,2.321230e-003
1.062603e+003,2.347313e-003
1.064531e+003,2.360167e-003
1.066460e+003,2.317280e-003
1.068388e+003,2.301686e-003
1.070317e+003,2.419211e-003
1.072245e+003,2.526188e-003
1.074174e+003,2.581015e-003
1.076102e+003,2.731891e-003
1.078031e+003,2.833081e-003
1.079959e+003,2.902597e-003
1.081888e+003,2.923524e-003
1.083816e+003,2.888516e-003
1.085745e+003,2.797009e-003
1.087673e+003,2.744127e-003
1.089602e+003,2.694365e-003
1.091530e+003,2.650877e-003
1.093459e+003,2.613956e-003
1.095387e+003,2.612140e-003
1.097316e+003,2.577985e-003
1.099244e+003,2.513403e-003
1.101173e+003,2.425998e-003
1.103101e+003,2.421759e-003
1.105030e+003,2.427815e-003
1.106958e+003,2.453281e-003
1.108887e+003,2.436990e-003
1.110815e+003,2.385203e-003
1.112744e+003,2.357792e-003
1.114672e+003,2.413470e-003
1.116601e+003,2.437871e-003
1.118529e+003,2.405513e-003
1.120458e+003,2.359383e-003
1.122386e+003,2.377680e-003
1.124315e+003,2.372146e-003
1.126243e+003,2.402438e-003
1.128172e+003,2.416627e-003
1.130100e+003,2.443550e-003
1.132029e+003,2.408201e-003
1.133957e+003,2.416641e-003
1.135885e+003,2.452679e-003
1.137814e+003,2.449609e-003
1.139743e+003,2.489056e-003
1.141671e+003,2.562340e-003
1.143600e+003,2.609609e-003
1.145528e+003,2.719773e-003
1.147457e+003,2.873491e-003
1.149385e+003,3.046060e-003
1.151314e+003,3.233155e-003
1.153242e+003,3.435068e-003
1.155171e+003,3.554659e-003
1.157099e+003,3.661748e-003
1.159028e+003,3.734648e-003
1.160956e+003,3.777739e-003
1.162885e+003,3.754290e-003
1.164813e+003,3.721224e-003
1.166742e+003,3.626550e-003
1.168670e+003,3.518406e-003
1.170599e+003,3.390364e-003
1.172527e+003,3.297197e-003
1.174456e+003,3.308246e-003
1.176384e+003,3.315147e-003
1.178313e+003,3.069941e-003
1.180241e+003,2.887612e-003
1.182170e+003,2.806848e-003
1.184098e+003,2.835972e-003
1.186027e+003,2.893930e-003
1.187955e+003,2.954980e-003
1.189884e+003,2.949357e-003
1.191812e+003,2.956670e-003
1.193740e+003,3.008701e-003
1.195669e+003,3.088159e-003
1.197598e+003,3.158621e-003
1.199526e+003,3.242854e-003
1.201455e+003,3.333969e-003
1.203383e+003,3.483111e-003
1.205312e+003,3.620373e-003
1.207240e+003,3.806151e-003
1.209168e+003,3.980178e-003
1.211097e+003,4.113154e-003
1.213026e+003,4.155811e-003
1.214954e+003,4.220603e-003
1.216883e+003,4.294854e-003
1.218811e+003,4.424047e-003
1.220740e+003,4.546078e-003
1.222668e+003,4.635384e-003
1.224596e+003,4.669162e-003
1.226525e+003,4.737105e-003
1.228453e+003,4.808832e-003
1.230382e+003,4.904523e-003
1.232311e+003,4.984386e-003
1.234239e+003,5.053345e-003
1.236167e+003,5.088659e-003
1.238096e+003,5.143246e-003
1.240025e+003,5.151702e-003
1.241953e+003,5.129181e-003
1.243882e+003,5.037064e-003
1.245810e+003,4.968751e-003
1.247739e+003,4.837591e-003
1.249667e+003,4.730901e-003
1.251595e+003,4.617983e-003
1.253524e+003,4.503008e-003
1.255453e+003,4.330989e-003
1.257381e+003,4.200172e-003
1.259310e+003,4.095800e-003
1.261238e+003,4.004516e-003
1.263167e+003,3.885718e-003
1.265095e+003,3.816668e-003
1.267023e+003,3.730562e-003
1.268952e+003,3.685646e-003
1.270880e+003,3.657404e-003
1.272809e+003,3.697038e-003
1.274738e+003,3.675319e-003
1.276666e+003,3.683018e-003
1.278594e+003,3.689211e-003
1.280523e+003,3.736693e-003
1.282451e+003,3.817895e-003
1.284380e+003,3.896546e-003
1.286308e+003,3.923390e-003
1.288237e+003,4.043210e-003
1.290166e+003,4.209766e-003
1.292094e+003,4.417039e-003
1.294022e+003,4.556119e-003
1.295951e+003,4.709808e-003
1.297879e+003,4.834672e-003
1.299808e+003,4.959576e-003
1.301736e+003,5.015971e-003
1.303665e+003,5.028414e-003
1.305594e+003,4.977949e-003
1.307522e+003,4.919637e-003
1.309450e+003,4.771898e-003
1.311379e+003,4.642740e-003
1.313307e+003,4.446493e-003
1.315236e+003,4.277183e-003
1.317164e+003,4.042253e-003
1.319093e+003,3.851501e-003
1.321021e+003,3.659990e-003
1.322950e+003,3.554802e-003
1.324878e+003,3.450403e-003
1.326807e+003,3.425214e-003
1.328735e+003,3.356341e-003
1.330664e+003,3.384020e-003
1.332592e+003,3.529944e-003
1.334521e+003,3.753839e-003
1.336449e+003,3.929835e-003
1.338378e+003,4.179830e-003
1.340306e+003,4.429789e-003
1.342235e+003,4.712809e-003
1.344163e+003,4.990552e-003
1.346092e+003,5.352357e-003
1.348021e+003,5.688500e-003
1.349949e+003,6.049938e-003
1.351877e+003,6.215930e-003
1.353806e+003,6.189624e-003
1.355734e+003,6.039804e-003
1.357663e+003,6.011330e-003
1.359591e+003,6.110922e-003
1.361520e+003,6.413586e-003
1.363448e+003,6.865228e-003
1.365377e+003,7.380500e-003
1.367305e+003,7.649004e-003
1.369234e+003,7.542584e-003
1.371162e+003,6.966222e-003
1.373091e+003,6.332120e-003
1.375019e+003,5.763017e-003
1.376948e+003,5.423918e-003
1.378876e+003,4.793094e-003
1.380805e+003,4.205054e-003
1.382733e+003,3.744893e-003
1.384662e+003,3.535138e-003
1.386590e+003,3.344340e-003
1.388519e+003,3.324496e-003
1.390447e+003,3.294785e-003
1.392376e+003,3.395554e-003
1.394304e+003,3.309010e-003
1.396233e+003,3.339397e-003
1.398161e+003,3.319250e-003
1.400090e+003,3.494244e-003
1.402018e+003,3.529897e-003
1.403947e+003,3.665553e-003
1.405875e+003,3.660897e-003
1.407804e+003,3.788492e-003
1.409732e+003,3.871091e-003
1.411661e+003,4.131811e-003
1.413589e+003,4.268443e-003
1.415518e+003,4.510993e-003
1.417446e+003,4.591666e-003
1.419375e+003,4.961068e-003
1.421303e+003,5.199432e-003
1.423232e+003,5.730391e-003
1.425160e+003,6.472003e-003
1.427089e+003,7.461252e-003
1.429017e+003,8.491177e-003
1.430946e+003,1.009014e-002
1.432874e+003,1.137641e-002
1.434803e+003,1.255896e-002
1.436731e+003,1.360371e-002
1.438660e+003,1.472169e-002
1.440588e+003,1.536236e-002
1.442517e+003,1.633076e-002
1.444445e+003,1.705278e-002
1.446374e+003,1.808264e-002
1.448302e+003,1.953148e-002
1.450231e+003,2.194479e-002
1.452159e+003,2.551749e-002
1.454088e+003,3.039859e-002
1.456016e+003,3.606408e-002
1.457945e+003,5.807712e-002
1.459873e+003,9.814775e-002
1.461802e+003,1.252903e-001
1.463730e+003,1.085530e-001
1.465659e+003,7.378052e-002
1.467587e+003,7.153038e-002
1.469516e+003,8.250494e-002
1.471444e+003,1.104129e-001
1.473373e+003,1.030120e-001
1.475301e+003,5.158097e-002
1.477230e+003,1.893461e-002
1.479158e+003,1.017732e-002
1.481087e+003,6.693920e-003
1.483015e+003,5.357265e-003
1.484944e+003,4.340136e-003
1.486872e+003,4.077172e-003
1.488801e+003,3.192851e-003
1.490729e+003,3.246915e-003
1.492658e+003,2.909610e-003
1.494586e+003,3.015000e-003
1.496515e+003,2.513122e-003
1.498443e+003,2.543800e-003
1.500372e+003,2.246795e-003
1.502300e+003,2.401715e-003
1.504229e+003,2.161710e-003
1.506157e+003,2.173541e-003
1.508086e+003,1.407051e-003
1.510014e+003,1.680724e-003
1.511943e+003,1.595916e-003
1.513871e+003,1.862165e-003
1.515800e+003,1.711998e-003
1.517728e+003,1.841469e-003
1.519657e+003,1.578353e-003
1.521585e+003,1.636444e-003
1.523514e+003,1.358936e-003
1.525442e+003,1.517080e-003
1.527371e+003,1.486452e-003
1.529299e+003,1.655392e-003
1.531228e+003,1.549294e-003
1.533156e+003,1.672665e-003
1.535085e+003,1.575237e-003
1.537013e+003,1.754884e-003
1.538942e+003,1.641344e-003
1.540870e+003,1.316812e-003
1.542799e+003,1.044840e-003
1.544727e+003,1.346037e-003
1.546656e+003,1.398815e-003
1.548584e+003,1.550563e-003
1.550513e+003,1.549559e-003
1.552441e+003,1.651956e-003
1.554370e+003,1.569778e-003
1.556298e+003,1.696216e-003
1.558227e+003,1.276763e-003
1.560155e+003,1.026167e-003
1.562084e+003,1.192564e-003
1.564012e+003,1.431637e-003
1.565941e+003,1.399670e-003
1.567869e+003,1.405701e-003
1.569798e+003,1.325779e-003
1.571726e+003,1.447663e-003
1.573655e+003,1.411956e-003
1.575583e+003,1.444709e-003
1.577512e+003,1.322668e-003
1.579440e+003,1.448452e-003
1.581369e+003,1.472499e-003
1.583297e+003,1.564942e-003
1.585226e+003,1.601204e-003
1.587154e+003,1.634613e-003
1.589083e+003,1.574606e-003
1.591011e+003,1.594402e-003
1.592940e+003,1.485087e-003
1.594868e+003,1.498621e-003
1.596797e+003,1.487460e-003
1.598725e+003,1.497816e-003
1.600654e+003,1.407303e-003
1.602582e+003,1.449611e-003
1.604511e+003,1.431331e-003
1.606439e+003,1.452111e-003
1.608368e+003,1.412958e-003
1.610296e+003,1.505300e-003
1.612225e+003,1.473170e-003
1.614153e+003,1.483407e-003
1.616082e+003,1.348186e-003
1.618010e+003,1.340710e-003
1.619939e+003,1.329195e-003
1.621867e+003,1.437325e-003
1.623796e+003,1.436796e-003
1.625724e+003,1.497995e-003
1.627653e+003,1.446523e-003
1.629581e+003,1.572900e-003
1.631510e+003,1.674954e-003
1.633438e+003,1.761224e-003
1.635367e+003,1.441956e-003
1.637295e+003,1.508508e-003
1.639224e+003,1.794107e-003
1.641152e+003,2.004158e-003
1.643081e+003,1.947131e-003
1.645009e+003,1.881104e-003
1.646938e+003,1.452576e-003
1.648866e+003,1.368918e-003
1.650795e+003,1.281720e-003
1.652723e+003,1.074526e-003
1.654652e+003,8.467808e-004
1.656580e+003,1.069821e-003
1.658509e+003,1.101144e-003
1.660437e+003,1.165334e-003
1.662366e+003,1.179192e-003
1.664294e+003,1.134854e-003
1.666223e+003,1.003165e-003
1.668151e+003,1.043808e-003
1.670080e+003,9.400249e-004
1.672008e+003,8.805171e-004
1.673937e+003,6.903112e-004
1.675865e+003,7.504076e-004
1.677794e+003,8.998886e-004
1.679722e+003,9.551346e-004
1.681651e+003,7.484630e-004
1.683579e+003,6.379299e-004
1.685508e+003,4.359707e-004
1.687436e+003,5.115531e-004
1.689365e+003,5.136766e-004
1.691293e+003,6.400086e-004
1.693222e+003,7.359013e-004
1.695150e+003,8.068159e-004
1.697079e+003,5.693659e-004
1.699007e+003,4.197694e-004
1.700936e+003,1.702756e-004
1.702864e+003,4.036799e-004
1.704793e+003,4.100464e-004
1.706721e+003,4.285984e-004
1.708650e+003,4.632957e-004
1.710578e+003,6.209947e-004
1.712507e+003,6.830581e-004
1.714435e+003,6.941371e-004
1.716364e+003,3.852621e-004
1.718292e+003,3.020130e-004
1.720221e+003,4.475899e-004
1.722149e+003,5.931929e-004
1.724078e+003,6.538406e-004
1.726006e+003,7.815026e-004
1.727935e+003,8.051172e-004
1.729863e+003,8.684993e-004
1.731792e+003,7.574931e-004
1.733720e+003,5.399808e-004
1.735649e+003,5.892329e-004
1.737577e+003,7.115714e-004
1.739506e+003,6.892867e-004
1.741434e+003,7.739253e-004
1.743363e+003,7.189587e-004
1.745291e+003,7.587858e-004
1.747220e+003,6.707832e-004
1.749148e+003,6.368272e-004
1.751077e+003,3.529489e-004
1.753005e+003,2.836026e-004
1.754934e+003,2.800375e-004
1.756862e+003,2.815723e-004
1.758791e+003,1.866855e-004
1.760719e+003,8.219481e-005
1.762648e+003,-9.649619e-005
1.764576e+003,-2.719834e-005
1.766505e+003,-2.631918e-005
1.768433e+003,-1.505017e-006
1.770362e+003,-1.168251e-005
1.772290e+003,-5.941093e-005
1.774219e+003,-3.219098e-004
1.776147e+003,-2.628602e-004
1.778076e+003,-1.337156e-004
1.780004e+003,-4.504994e-005
1.781933e+003,-1.435988e-004
1.783861e+003,-1.185834e-004
1.785790e+003,-1.120828e-004
1.787718e+003,-5.234033e-006
1.789646e+003,-7.534772e-005
1.791575e+003,-1.802444e-004
1.793504e+003,-2.938174e-004
1.795432e+003,-2.547242e-004
1.797361e+003,-2.614334e-004
1.799289e+003,-1.707636e-004
1.801218e+003,-2.743304e-004
1.803146e+003,-2.768822e-004
1.805074e+003,-2.434514e-004
1.807003e+003,-2.238527e-004
1.808932e+003,-3.022254e-004
1.810860e+003,-4.096180e-004
1.812789e+003,-6.293394e-004
1.814717e+003,-7.712804e-004
1.816646e+003,-8.266121e-004
1.818574e+003,-4.773848e-004
1.820502e+003,-3.846884e-004
1.822431e+003,-2.503172e-004
1.824360e+003,-3.118142e-004
1.826288e+003,-5.196594e-004
1.828217e+003,-8.740090e-004
1.830145e+003,-9.256341e-004
1.832073e+003,-9.714290e-004
1.834002e+003,-9.982288e-004
1.835931e+003,-1.055013e-003
1.837859e+003,-8.831173e-004
1.839788e+003,-8.781701e-004
1.841716e+003,-1.009114e-003
1.843645e+003,-1.375381e-003
1.845573e+003,-1.273256e-003
1.847501e+003,-1.304988e-003
1.849430e+003,-1.239564e-003
1.851359e+003,-1.129568e-003
1.853287e+003,-9.653457e-004
1.855216e+003,-9.960569e-004
1.857144e+003,-8.953661e-004
1.859073e+003,-1.082852e-003
1.861001e+003,-1.211856e-003
1.862929e+003,-1.358330e-003
1.864858e+003,-1.209702e-003
1.866787e+003,-1.258291e-003
1.868715e+003,-1.256704e-003
1.870644e+003,-1.288194e-003
1.872572e+003,-1.113590e-003
1.874500e+003,-1.248829e-003
1.876429e+003,-1.242206e-003
1.878357e+003,-1.366105e-003
1.880286e+003,-1.380105e-003
1.882215e+003,-1.524050e-003
1.884143e+003,-1.336295e-003
1.886072e+003,-1.246821e-003
1.888000e+003,-1.062341e-003
1.889928e+003,-1.091916e-003
1.891857e+003,-8.778274e-004
1.893785e+003,-8.852966e-004
1.895714e+003,-6.790645e-004
1.897643e+003,-8.179806e-004
1.899571e+003,-7.084422e-004
1.901500e+003,-7.006265e-004
1.903428e+003,-6.928109e-004
1.905356e+003,-6.849989e-004
1.907285e+003,-6.771944e-004
1.909213e+003,-6.693900e-004
1.911142e+003,-6.615855e-004
1.913071e+003,-6.537884e-004
1.914999e+003,-6.459914e-004
1.916927e+003,-6.381981e-004
1.918856e+003,-6.304085e-004
1.920784e+003,-6.226189e-004
1.922713e+003,-6.148405e-004
1.924641e+003,-6.070584e-004
1.926570e+003,-5.992725e-004
1.928499e+003,-5.915053e-004
1.930427e+003,-5.837269e-004
1.932355e+003,-5.759634e-004
1.934284e+003,-5.681962e-004
1.936212e+003,-5.604289e-004
1.938141e+003,-5.526729e-004
1.940070e+003,-5.449094e-004
1.941998e+003,-5.371533e-004
1.943927e+003,-5.294047e-004
1.945855e+003,-5.216561e-004
1.947783e+003,-5.139112e-004
1.949712e+003,-5.061664e-004
1.951640e+003,-4.984289e-004
1.953569e+003,-4.906915e-004
1.955498e+003,-4.829541e-004
1.957426e+003,-4.752241e-004
1.959354e+003,-4.674979e-004
1.961283e+003,-4.597716e-004
1.963211e+003,-4.520491e-004
1.965140e+003,-4.443303e-004
1.967068e+003,-4.366152e-004
1.968997e+003,-4.289038e-004
1.970926e+003,-4.211888e-004
1.972854e+003,-4.134811e-004
1.974782e+003,-4.057772e-004
1.976711e+003,-3.980771e-004
1.978639e+003,-3.903769e-004
1.980568e+003,-3.826767e-004
1.982496e+003,-3.749914e-004
1.984425e+003,-3.673024e-004
1.986354e+003,-3.596134e-004
1.988282e+003,-3.519282e-004
1.990210e+003,-3.442466e-004
1.992139e+003,-3.365688e-004
1.994067e+003,-3.288910e-004
1.995996e+003,-3.212206e-004
1.997924e+003,-3.135540e-004
1.999853e+003,-3.058799e-004
2.001781e+003,-2.982169e-004
2.003710e+003,-2.905577e-004
2.005638e+003,-2.829023e-004
2.007567e+003,-2.752468e-004
2.009495e+003,-2.675988e-004
2.011424e+003,-2.599508e-004
2.013352e+003,-2.522990e-004
2.015281e+003,-2.446622e-004
2.017209e+003,-2.370179e-004
2.019138e+003,-2.293810e-004
2.021066e+003,-2.217442e-004
2.022995e+003,-2.141148e-004
2.024923e+003,-2.064891e-004
2.026852e+003,-1.988597e-004
2.028781e+003,-1.912378e-004
2.030709e+003,-1.836196e-004
2.032637e+003,-1.760051e-004
2.034566e+003,-1.683980e-004
2.036494e+003,-1.607798e-004
2.038423e+003,-1.531728e-004
2.040351e+003,-1.455694e-004
2.042280e+003,-1.379661e-004
2.044208e+003,-1.303703e-004
2.046137e+003,-1.227744e-004
2.048065e+003,-1.151823e-004
2.049994e+003,-1.075901e-004
2.051922e+003,-1.000054e-004
2.053851e+003,-9.241700e-005
2.055779e+003,-8.483604e-005
2.057708e+003,-7.725507e-005
2.059636e+003,-6.968156e-005
2.061565e+003,-6.211549e-005
2.063493e+003,-5.454198e-005
2.065422e+003,-4.697964e-005
2.067350e+003,-3.941730e-005
2.069279e+003,-3.185123e-005
2.071207e+003,-2.429262e-005
2.073136e+003,-1.673773e-005
2.075064e+003,-9.194016e-006
2.076993e+003,-1.639128e-006
2.078921e+003,5.904585e-006
2.080850e+003,1.344830e-005
2.082778e+003,2.098456e-005
2.084707e+003,2.852827e-005
2.086635e+003,3.606081e-005
2.088564e+003,4.358962e-005
2.090492e+003,5.112216e-005
2.092421e+003,5.864352e-005
2.094349e+003,6.616116e-005
2.096278e+003,7.367879e-005
2.098206e+003,8.120388e-005
2.100135e+003,8.871779e-005
2.102063e+003,9.622425e-005
2.103992e+003,1.037344e-004
2.105920e+003,1.112334e-004
2.107849e+003,1.187399e-004
2.109777e+003,1.262352e-004
2.111706e+003,1.337305e-004
2.113634e+003,1.412258e-004
2.115563e+003,1.487136e-004
2.117491e+003,1.562051e-004
2.119420e+003,1.636855e-004
2.121348e+003,1.711659e-004
2.123277e+003,1.786426e-004
2.125205e+003,1.861155e-004
2.127134e+003,1.935884e-004
2.129062e+003,2.010651e-004
2.130991e+003,2.085343e-004
2.132919e+003,2.159886e-004
2.134848e+003,2.234466e-004
2.136776e+003,2.309084e-004
2.138705e+003,2.383590e-004
2.140633e+003,2.458133e-004
2.142562e+003,2.532676e-004
2.144490e+003,2.607107e-004
2.146419e+003,2.681538e-004
2.148347e+003,2.755895e-004
2.150276e+003,2.830289e-004
2.152204e+003,2.904646e-004
2.154133e+003,2.978928e-004
2.156061e+003,3.053248e-004
2.157990e+003,3.127530e-004
2.159918e+003,3.201701e-004
2.161847e+003,3.275871e-004
2.163775e+003,3.350005e-004
2.165704e+003,3.424138e-004
2.167632e+003,3.498271e-004
2.169561e+003,3.572293e-004
2.171489e+003,3.646351e-004
2.173418e+003,3.720410e-004
2.175346e+003,3.794394e-004
2.177275e+003,3.868379e-004
2.179203e+003,3.942288e-004
2.181132e+003,4.016198e-004
2.183060e+003,4.090033e-004
2.184989e+003,4.163831e-004
2.186917e+003,4.237704e-004
2.188846e+003,4.311502e-004
2.190774e+003,4.385188e-004
2.192703e+003,4.458912e-004
2.194631e+003,4.532635e-004
2.196560e+003,4.606284e-004
2.198488e+003,4.679896e-004
2.200417e+003,4.753545e-004
2.202345e+003,4.827119e-004
2.204274e+003,4.900694e-004
2.206202e+003,4.974157e-004
2.208131e+003,5.047657e-004
2.210059e+003,5.121082e-004
2.211988e+003,5.194470e-004
2.213916e+003,5.267859e-004
2.215845e+003,5.341209e-004
2.217773e+003,5.414635e-004
2.219702e+003,5.487911e-004
2.221630e+003,5.561225e-004
2.223559e+003,5.634427e-004
2.225487e+003,5.707629e-004
2.227416e+003,5.780868e-004
2.229344e+003,5.853996e-004
2.231273e+003,5.927198e-004
2.233201e+003,6.000288e-004
2.235130e+003,6.073378e-004
2.237058e+003,6.146394e-004
2.238987e+003,6.219409e-004
2.240915e+003,6.292313e-004
2.242844e+003,6.365292e-004
2.244772e+003,6.438307e-004
2.246701e+003,6.511137e-004
2.248629e+003,6.584004e-004
2.250558e+003,6.656870e-004
2.252486e+003,6.729662e-004
2.254415e+003,6.802455e-004
2.256343e+003,6.875172e-004
2.258272e+003,6.947927e-004
2.260200e+003,7.020570e-004
2.262129e+003,7.093251e-004
2.264057e+003,7.165894e-004
2.265986e+003,7.238463e-004
2.267914e+003,7.311068e-004
2.269843e+003,7.383600e-004
2.271771e+003,7.456131e-004
2.273700e+003,7.528551e-004
2.275628e+003,7.601082e-004
2.277557e+003,7.673539e-004
2.279485e+003,7.745922e-004
2.281414e+003,7.818267e-004
2.283342e+003,7.890575e-004
2.285271e+003,7.962883e-004
2.287199e+003,8.035153e-004
2.289128e+003,8.107424e-004
2.291056e+003,8.179694e-004
2.292985e+003,8.251816e-004
2.294913e+003,8.324012e-004
2.296842e+003,8.396134e-004
2.298770e+003,8.468181e-004
2.300699e+003,8.540303e-004
2.302627e+003,8.612350e-004
2.304556e+003,8.684397e-004
2.306484e+003,8.756369e-004
2.308413e+003,8.828305e-004
2.310341e+003,8.900240e-004
2.312270e+003,8.972101e-004
2.314198e+003,9.043962e-004
2.316127e+003,9.115748e-004
2.318055e+003,9.187572e-004
2.319984e+003,9.259395e-004
2.321912e+003,9.331182e-004
2.323841e+003,9.402856e-004
2.325769e+003,9.474531e-004
2.327698e+003,9.546243e-004
2.329626e+003,9.617843e-004
2.331555e+003,9.689443e-004
2.333483e+003,9.761043e-004
2.335412e+003,9.832606e-004
2.337340e+003,9.904094e-004
2.339269e+003,9.975545e-004
2.341197e+003,1.004703e-003
2.343126e+003,1.011841e-003
2.345054e+003,1.018982e-003
2.346983e+003,1.026120e-003
2.348911e+003,1.033258e-003
2.350840e+003,1.040388e-003
2.352768e+003,1.047514e-003
2.354697e+003,1.054637e-003
2.356625e+003,1.061756e-003
2.358554e+003,1.068875e-003
2.360482e+003,1.075990e-003
2.362411e+003,1.083102e-003
2.364339e+003,1.090221e-003
2.366268e+003,1.097325e-003
2.368196e+003,1.104429e-003
2.370125e+003,1.111530e-003
2.372053e+003,1.118626e-003
2.373982e+003,1.125719e-003
2.375910e+003,1.132812e-003
2.377839e+003,1.139909e-003
2.379767e+003,1.146995e-003
2.381696e+003,1.154076e-003
2.383624e+003,1.161154e-003
2.385553e+003,1.168236e-003
2.387481e+003,1.175310e-003
2.389410e+003,1.182377e-003
2.391338e+003,1.189455e-003
2.393267e+003,1.196515e-003
2.395195e+003,1.203578e-003
2.397124e+003,1.210637e-003
2.399052e+003,1.217693e-003
2.400981e+003,1.233764e-003
2.402909e+003,1.251273e-003
2.404838e+003,1.292445e-003
2.406766e+003,1.444213e-003
2.408695e+003,1.693722e-003
2.410623e+003,1.703095e-003
2.412552e+003,1.696836e-003
2.414480e+003,1.716070e-003
2.416409e+003,1.735751e-003
2.418337e+003,1.726370e-003
2.420266e+003,1.830433e-003
2.422194e+003,1.751944e-003
2.424123e+003,1.671128e-003
2.426051e+003,1.733907e-003
2.427979e+003,1.823541e-003
2.429908e+003,1.751896e-003
2.431837e+003,1.728240e-003
2.433765e+003,1.786768e-003
2.435694e+003,1.796670e-003
2.437622e+003,1.768660e-003
2.439551e+003,1.832299e-003
2.441479e+003,1.796555e-003
2.443407e+003,1.813311e-003
2.445336e+003,1.826271e-003
2.447265e+003,1.872312e-003
2.449193e+003,1.905344e-003
2.451122e+003,1.930941e-003
2.453050e+003,1.894195e-003
2.454979e+003,2.047412e-003
2.456907e+003,2.066765e-003
2.458836e+003,2.006475e-003
2.460764e+003,1.881357e-003
2.462693e+003,1.884289e-003
2.464621e+003,1.935136e-003
2.466550e+003,2.117604e-003
2.468478e+003,2.229095e-003
2.470406e+003,2.309334e-003
2.472335e+003,2.279826e-003
2.474264e+003,2.184398e-003
2.476192e+003,2.215751e-003
2.478121e+003,2.447627e-003
2.480049e+003,2.494350e-003
2.481978e+003,2.483822e-003
2.483906e+003,2.483521e-003
2.485835e+003,2.483469e-003
2.487763e+003,2.317563e-003
2.489692e+003,2.366111e-003
2.491620e+003,2.605107e-003
2.493549e+003,2.608895e-003
2.495477e+003,2.569512e-003
2.497406e+003,2.656471e-003
2.499334e+003,2.725966e-003
2.501263e+003,2.671022e-003
2.503191e+003,2.556186e-003
2.505120e+003,2.741758e-003
2.507048e+003,2.850786e-003
2.508977e+003,2.877492e-003
2.510905e+003,3.030065e-003
2.512833e+003,3.044218e-003
2.514762e+003,3.097087e-003
2.516691e+003,3.162079e-003
2.518619e+003,3.103033e-003
2.520548e+003,3.212612e-003
2.522476e+003,3.510505e-003
2.524405e+003,3.591664e-003
2.526333e+003,3.586695e-003
2.528261e+003,3.599681e-003
2.530190e+003,3.470890e-003
2.532119e+003,3.504254e-003
2.534047e+003,3.555067e-003
2.535976e+003,3.617644e-003
2.537904e+003,3.644466e-003
2.539833e+003,3.680751e-003
2.541761e+003,3.773436e-003
2.543689e+003,4.083537e-003
2.545618e+003,4.219633e-003
2.547547e+003,4.270837e-003
2.549475e+003,4.264764e-003
2.551404e+003,4.217558e-003
2.553332e+003,4.379738e-003
2.555260e+003,4.547685e-003
2.557189e+003,4.566427e-003
2.559117e+003,4.690412e-003
2.561046e+003,4.832007e-003
2.562975e+003,5.018257e-003
2.564903e+003,5.072556e-003
2.566832e+003,5.092952e-003
2.568760e+003,5.262952e-003
2.570688e+003,5.391587e-003
2.572617e+003,5.463451e-003
2.574546e+003,5.576588e-003
2.576474e+003,5.864263e-003
2.578403e+003,5.993549e-003
2.580331e+003,6.012142e-003
2.582260e+003,6.233945e-003
2.584188e+003,6.423924e-003
2.586116e+003,6.589025e-003
2.588045e+003,6.752025e-003
2.589974e+003,6.904911e-003
2.591902e+003,7.073186e-003
2.593831e+003,7.249031e-003
2.595759e+003,7.394426e-003
2.597688e+003,7.706538e-003
2.599616e+003,7.846899e-003
2.601544e+003,7.971786e-003
2.603473e+003,8.194976e-003
2.605402e+003,8.295543e-003
2.607330e+003,8.539587e-003
2.609259e+003,8.892238e-003
2.611187e+003,9.152457e-003
2.613115e+003,9.416573e-003
2.615044e+003,9.611331e-003
2.616972e+003,9.791162e-003
2.618901e+003,1.009552e-002
2.620830e+003,1.054736e-002
2.622758e+003,1.094536e-002
2.624687e+003,1.118217e-002
2.626615e+003,1.155074e-002
2.628543e+003,1.194557e-002
2.630472e+003,1.229465e-002
2.632400e+003,1.255185e-002
2.634329e+003,1.265975e-002
2.636258e+003,1.269766e-002
2.638186e+003,1.270414e-002
2.640115e+003,1.273332e-002
2.642043e+003,1.277122e-002
2.643971e+003,1.277465e-002
2.645900e+003,1.275171e-002
2.647828e+003,1.275019e-002
2.649757e+003,1.286937e-002
2.651686e+003,1.309702e-002
2.653614e+003,1.326200e-002
2.655542e+003,1.339137e-002
2.657471e+003,1.346206e-002
2.659399e+003,1.343412e-002
2.661328e+003,1.325299e-002
2.663256e+003,1.301097e-002
2.665185e+003,1.276958e-002
2.667114e+003,1.256115e-002
2.669042e+003,1.237128e-002
2.670970e+003,1.229866e-002
2.672899e+003,1.222266e-002
2.674827e+003,1.210362e-002
2.676756e+003,1.197423e-002
2.678685e+003,1.189031e-002
2.680613e+003,1.186131e-002
2.682542e+003,1.187826e-002
2.684470e+003,1.186173e-002
2.686398e+003,1.181213e-002
2.688327e+003,1.182996e-002
2.690255e+003,1.189206e-002
2.692184e+003,1.191897e-002
2.694113e+003,1.190175e-002
2.696041e+003,1.195880e-002
2.697969e+003,1.216898e-002
2.699898e+003,1.234097e-002
2.701826e+003,1.247885e-002
2.703755e+003,1.267174e-002
2.705683e+003,1.288117e-002
2.707612e+003,1.304878e-002
2.709541e+003,1.319172e-002
2.711469e+003,1.330451e-002
2.713397e+003,1.342002e-002
2.715326e+003,1.356683e-002
2.717254e+003,1.375290e-002
2.719183e+003,1.395827e-002
2.721111e+003,1.417214e-002
2.723040e+003,1.443140e-002
2.724969e+003,1.465489e-002
2.726897e+003,1.488924e-002
2.728825e+003,1.514944e-002
2.730754e+003,1.532424e-002
2.732682e+003,1.559033e-002
2.734611e+003,1.590569e-002
2.736539e+003,1.614800e-002
2.738468e+003,1.632702e-002
2.740396e+003,1.650408e-002
2.742325e+003,1.661407e-002
2.744253e+003,1.669429e-002
2.746182e+003,1.677489e-002
2.748110e+003,1.689972e-002
2.750039e+003,1.699713e-002
2.751967e+003,1.714969e-002
2.753896e+003,1.743188e-002
2.755824e+003,1.777021e-002
2.757753e+003,1.811257e-002
2.759681e+003,1.855955e-002
2.761610e+003,1.894266e-002
2.763538e+003,1.931622e-002
2.765467e+003,1.980126e-002
2.767395e+003,2.031828e-002
2.769324e+003,2.078614e-002
2.771252e+003,2.130531e-002
2.773181e+003,2.186042e-002
2.775109e+003,2.254732e-002
2.777038e+003,2.334024e-002
2.778966e+003,2.413954e-002
2.780895e+003,2.502425e-002
2.782823e+003,2.600161e-002
2.784752e+003,2.703067e-002
2.786680e+003,2.819882e-002
2.788609e+003,2.942250e-002
2.790537e+003,3.067109e-002
2.792466e+003,3.195513e-002
2.794394e+003,3.332324e-002
2.796323e+003,3.468246e-002
2.798251e+003,3.613238e-002
2.800180e+003,3.763037e-002
2.802108e+003,3.917956e-002
2.804037e+003,4.085536e-002
2.805965e+003,4.273396e-002
2.807894e+003,4.489250e-002
2.809822e+003,4.736890e-002
2.811751e+003,5.012847e-002
2.813679e+003,5.321720e-002
2.815608e+003,5.682534e-002
2.817536e+003,6.099265e-002
2.819465e+003,6.577529e-002
2.821393e+003,7.137749e-002
2.823322e+003,7.814504e-002
2.825250e+003,8.634536e-002
2.827179e+003,9.646395e-002
2.829107e+003,1.090376e-001
2.831036e+003,1.248720e-001
2.832964e+003,1.452292e-001
2.834893e+003,1.723317e-001
2.836821e+003,2.089813e-001
2.838750e+003,2.595411e-001
2.840678e+003,3.310262e-001
2.842607e+003,4.300240e-001
2.844535e+003,5.510267e-001
2.846464e+003,6.485332e-001
2.848392e+003,6.365094e-001
2.850321e+003,5.110558e-001
2.852249e+003,3.705780e-001
2.854178e+003,2.696503e-001
2.856106e+003,2.030733e-001
2.858035e+003,1.575827e-001
2.859963e+003,1.264099e-001
2.861892e+003,1.057833e-001
2.863820e+003,9.295735e-002
2.865749e+003,8.593976e-002
2.867677e+003,8.326921e-002
2.869606e+003,8.411683e-002
2.871534e+003,8.817928e-002
2.873463e+003,9.538305e-002
2.875391e+003,1.060267e-001
2.877320e+003,1.197704e-001
2.879248e+003,1.358205e-001
2.881177e+003,1.531702e-001
2.883105e+003,1.711643e-001
2.885034e+003,1.893748e-001
2.886962e+003,2.076845e-001
2.888891e+003,2.260342e-001
2.890819e+003,2.441452e-001
2.892748e+003,2.620142e-001
2.894676e+003,2.796265e-001
2.896605e+003,2.973804e-001
2.898533e+003,3.160738e-001
2.900462e+003,3.372463e-001
2.902390e+003,3.633989e-001
2.904319e+003,3.976546e-001
2.906247e+003,4.438508e-001
2.908176e+003,5.050353e-001
2.910104e+003,5.808661e-001
2.912033e+003,6.595293e-001
2.913961e+003,7.084796e-001
2.915890e+003,6.935855e-001
2.917818e+003,6.211759e-001
2.919747e+003,5.281497e-001
2.921675e+003,4.401103e-001
2.923604e+003,3.651932e-001
2.925532e+003,3.040655e-001
2.927461e+003,2.541947e-001
2.929389e+003,2.124670e-001
2.931318e+003,1.767205e-001
2.933246e+003,1.460782e-001
2.935175e+003,1.201795e-001
2.937103e+003,9.849599e-002
2.939032e+003,8.039404e-002
2.940960e+003,6.538974e-002
2.942889e+003,5.325624e-002
2.944817e+003,4.387239e-002
2.946746e+003,3.686306e-002
2.948674e+003,3.167129e-002
2.950603e+003,2.776898e-002
2.952531e+003,2.454603e-002
2.954460e+003,2.173599e-002
2.956388e+003,1.934900e-002
2.958317e+003,1.717601e-002
2.960245e+003,1.515058e-002
2.962174e+003,1.326672e-002
2.964102e+003,1.156088e-002
2.966031e+003,9.937428e-003
2.967959e+003,8.508060e-003
2.969888e+003,7.234611e-003
2.971816e+003,6.130427e-003
2.973745e+003,5.242277e-003
2.975673e+003,4.556898e-003
2.977602e+003,3.930368e-003
2.979530e+003,3.360093e-003
2.981459e+003,2.883114e-003
2.983387e+003,2.442479e-003
2.985316e+003,2.043054e-003
2.987244e+003,1.806494e-003
2.989173e+003,1.641568e-003
2.991101e+003,1.450766e-003
2.993030e+003,1.182284e-003
2.994958e+003,1.051296e-003
2.996887e+003,1.074716e-003
2.998815e+003,1.132488e-003
3.000744e+003,1.001310e-003
3.002672e+003,8.362159e-004
3.004601e+003,8.114129e-004
3.006529e+003,7.271953e-004
3.008458e+003,6.080084e-004
3.010386e+003,6.039217e-004
3.012315e+003,6.039850e-004
3.014243e+003,6.084256e-004
3.016172e+003,6.032586e-004
3.018100e+003,6.643608e-004
3.020029e+003,6.808452e-004
3.021957e+003,6.828047e-004
3.023886e+003,6.606057e-004
3.025814e+003,6.729141e-004
3.027743e+003,7.247999e-004
3.029671e+003,6.901026e-004
3.031600e+003,6.078556e-004
3.033528e+003,5.252063e-004
3.035457e+003,3.946908e-004
3.037385e+003,3.499128e-004
3.039314e+003,3.125370e-004
3.041242e+003,2.569184e-004
3.043171e+003,1.778677e-004
3.045099e+003,8.933246e-006
3.047028e+003,-6.614998e-005
3.048956e+003,-4.934520e-005
3.050885e+003,-2.247281e-004
3.052813e+003,-3.911555e-004
3.054742e+003,-4.399866e-004
3.056670e+003,-4.562400e-004
3.058599e+003,-4.816167e-004
3.060527e+003,-4.582778e-004
3.062456e+003,-4.705638e-004
3.064384e+003,-5.028918e-004
3.066313e+003,-5.500987e-004
3.068241e+003,-5.243309e-004
3.070170e+003,-4.358366e-004
3.072098e+003,-3.510639e-004
3.074027e+003,-3.601760e-004
3.075955e+003,-4.302114e-004
3.077884e+003,-4.892759e-004
3.079812e+003,-5.292706e-004
3.081741e+003,-5.446114e-004
3.083669e+003,-5.146973e-004
3.085598e+003,-5.469024e-004
3.087526e+003,-6.886944e-004
3.089455e+003,-7.396266e-004
3.091383e+003,-7.614717e-004
3.093312e+003,-1.027044e-003
3.095240e+003,-1.222804e-003
3.097169e+003,-1.385298e-003
3.099097e+003,-1.526576e-003
3.101026e+003,-1.642764e-003
3.102954e+003,-1.723971e-003
3.104883e+003,-1.763474e-003
3.106811e+003,-1.817066e-003
3.108740e+003,-1.913447e-003
3.110668e+003,-1.987066e-003
3.112597e+003,-1.972917e-003
3.114525e+003,-1.950897e-003
3.116454e+003,-1.935318e-003
3.118382e+003,-2.033044e-003
3.120311e+003,-2.153173e-003
3.122239e+003,-2.135869e-003
3.124168e+003,-1.995958e-003
3.126096e+003,-1.962788e-003
3.128025e+003,-2.033431e-003
3.129953e+003,-2.018940e-003
3.131882e+003,-2.110459e-003
3.133810e+003,-2.062377e-003
3.135739e+003,-1.958605e-003
3.137667e+003,-1.966022e-003
3.139596e+003,-1.938354e-003
3.141524e+003,-1.931142e-003
3.143453e+003,-1.915466e-003
3.145381e+003,-1.940593e-003
3.147310e+003,-1.935229e-003
3.149238e+003,-1.861930e-003
3.151167e+003,-1.811273e-003
3.153095e+003,-1.867753e-003
3.155024e+003,-1.918975e-003
3.156952e+003,-1.887225e-003
3.158881e+003,-1.759835e-003
3.160809e+003,-1.755230e-003
3.162738e+003,-1.674101e-003
3.164666e+003,-1.492698e-003
3.166594e+003,-1.495253e-003
3.168523e+003,-1.571663e-003
3.170452e+003,-1.644444e-003
3.172380e+003,-1.648325e-003
3.174309e+003,-1.681138e-003
3.176237e+003,-1.663130e-003
3.178166e+003,-1.564242e-003
3.180094e+003,-1.496401e-003
3.182022e+003,-1.406960e-003
3.183951e+003,-1.391936e-003
3.185880e+003,-1.364250e-003
3.187808e+003,-1.321007e-003
3.189737e+003,-1.321342e-003
3.191665e+003,-1.259509e-003
3.193594e+003,-1.198612e-003
3.195522e+003,-1.338016e-003
3.197450e+003,-1.474254e-003
3.199379e+003,-1.374956e-003
3.201308e+003,-1.264922e-003
3.203236e+003,-1.286704e-003
3.205165e+003,-1.202155e-003
3.207093e+003,-1.199581e-003
3.209021e+003,-1.185250e-003
3.210950e+003,-1.110364e-003
3.212878e+003,-1.156110e-003
3.214807e+003,-1.265395e-003
3.216736e+003,-1.291409e-003
3.218664e+003,-1.185205e-003
3.220593e+003,-1.095556e-003
3.222521e+003,-1.041397e-003
3.224449e+003,-1.043852e-003
3.226378e+003,-1.043770e-003
3.228307e+003,-1.082588e-003
3.230235e+003,-1.022629e-003
3.232164e+003,-8.897111e-004
3.234092e+003,-8.687675e-004
3.236021e+003,-8.888282e-004
3.237949e+003,-8.693226e-004
3.239877e+003,-8.098483e-004
3.241806e+003,-7.620640e-004
3.243735e+003,-7.448159e-004
3.245663e+003,-7.249676e-004
3.247592e+003,-6.685294e-004
3.249520e+003,-6.292090e-004
3.251448e+003,-5.605258e-004
3.253377e+003,-5.080551e-004
3.255305e+003,-4.709288e-004
3.257234e+003,-4.444644e-004
3.259163e+003,-4.354268e-004
3.261091e+003,-4.235543e-004
3.263020e+003,-4.606098e-004
3.264948e+003,-4.288927e-004
3.266876e+003,-3.388040e-004
3.268805e+003,-2.462268e-004
3.270733e+003,-3.020428e-004
3.272662e+003,-2.731159e-004
3.274591e+003,-9.118766e-005
3.276519e+003,-1.273267e-004
3.278448e+003,-2.371445e-004
3.280376e+003,-2.848692e-004
3.282304e+003,-2.733469e-004
3.284233e+003,-2.411492e-004
3.286161e+003,-1.193359e-004
3.288090e+003,-6.531924e-005
3.290019e+003,-7.081777e-005
3.291947e+003,-7.962808e-005
3.293875e+003,-1.117922e-004
3.295804e+003,-5.458668e-005
3.297732e+003,-1.840293e-005
3.299661e+003,-6.359071e-005
3.301589e+003,-1.578927e-004
3.303518e+003,-8.302554e-005
3.305447e+003,4.070252e-005
3.307375e+003,5.428493e-005
3.309303e+003,1.538545e-006
3.311232e+003,2.849847e-005
3.313160e+003,2.158433e-005
3.315089e+003,6.185845e-005
3.317018e+003,8.577853e-005
3.318946e+003,7.714331e-005
3.320875e+003,1.754612e-005
3.322803e+003,7.063895e-005
3.324731e+003,2.058335e-004
3.326660e+003,2.151690e-004
3.328588e+003,2.040379e-004
3.330517e+003,2.664439e-004
3.332446e+003,3.125593e-004
3.334374e+003,3.737137e-004
3.336302e+003,4.672185e-004
3.338231e+003,5.029067e-004
3.340159e+003,4.977621e-004
3.342088e+003,4.688017e-004
3.344016e+003,4.781894e-004
3.345945e+003,4.857183e-004
3.347874e+003,4.292615e-004
3.349802e+003,3.110208e-004
3.351730e+003,3.577359e-004
3.353659e+003,5.203038e-004
3.355587e+003,6.051250e-004
3.357516e+003,5.180128e-004
3.359444e+003,5.080253e-004
3.361373e+003,5.256906e-004
3.363302e+003,4.613996e-004
3.365230e+003,5.248673e-004
3.367158e+003,5.548857e-004
3.369087e+003,6.535538e-004
3.371015e+003,7.029027e-004
3.372944e+003,7.110164e-004
3.374872e+003,7.112175e-004
3.376801e+003,6.917864e-004
3.378729e+003,6.420873e-004
3.380658e+003,5.770139e-004
3.382586e+003,5.948804e-004
3.384515e+003,5.639754e-004
3.386443e+003,6.396882e-004
3.388372e+003,7.213391e-004
3.390300e+003,6.586760e-004
3.392229e+003,5.831569e-004
3.394157e+003,5.929582e-004
3.396086e+003,5.714223e-004
3.398014e+003,4.880801e-004
3.399943e+003,5.306304e-004
3.401871e+003,5.824007e-004
3.403800e+003,5.961023e-004
3.405728e+003,6.286502e-004
3.407657e+003,5.621463e-004
3.409585e+003,5.305856e-004
3.411514e+003,5.854256e-004
3.413442e+003,5.286895e-004
3.415371e+003,4.819185e-004
3.417299e+003,5.375184e-004
3.419228e+003,6.176531e-004
3.421156e+003,5.917661e-004
3.423085e+003,5.845465e-004
3.425013e+003,6.669536e-004
3.426942e+003,6.230325e-004
3.428870e+003,4.987046e-004
3.430799e+003,5.511716e-004
3.432727e+003,6.398931e-004
3.434656e+003,6.791949e-004
3.436584e+003,7.167682e-004
3.438513e+003,6.691366e-004
3.440441e+003,6.418973e-004
3.442370e+003,7.025748e-004
3.444298e+003,7.435456e-004
3.446227e+003,6.787702e-004
3.448155e+003,5.283356e-004
3.450084e+003,5.023479e-004
3.452012e+003,6.086752e-004
3.453941e+003,6.883740e-004
3.455869e+003,6.403178e-004
3.457798e+003,5.403310e-004
3.459726e+003,5.820766e-004
3.461655e+003,6.576180e-004
3.463583e+003,5.909801e-004
3.465512e+003,5.223602e-004
3.467440e+003,4.909337e-004
3.469369e+003,4.453212e-004
3.471297e+003,4.379153e-004
3.473226e+003,6.204396e-004
3.475154e+003,7.360280e-004
3.477083e+003,6.768405e-004
3.479011e+003,5.661026e-004
3.480940e+003,5.815923e-004
3.482868e+003,4.990846e-004
3.484797e+003,4.763752e-004
3.486725e+003,4.892871e-004
3.488654e+003,5.031750e-004
3.490582e+003,5.592033e-004
3.492511e+003,6.549954e-004
3.494439e+003,6.197095e-004
3.496368e+003,6.425157e-004
3.498296e+003,6.951988e-004
3.500225e+003,7.086247e-004
3.502153e+003,6.727800e-004
3.504082e+003,5.822629e-004
3.506010e+003,5.574673e-004
3.507939e+003,5.989522e-004
3.509867e+003,5.075037e-004
3.511796e+003,4.443750e-004
3.513724e+003,4.466102e-004
3.515653e+003,4.471689e-004
3.517581e+003,4.870966e-004
3.519510e+003,5.316958e-004
3.521438e+003,6.241873e-004
3.523367e+003,5.667135e-004
3.525295e+003,3.542006e-004
3.527224e+003,1.339093e-004
3.529152e+003,1.209676e-004
3.531081e+003,3.510863e-004
3.533009e+003,4.651099e-004
3.534938e+003,3.640950e-004
3.536866e+003,4.395992e-004
3.538795e+003,6.152615e-004
3.540723e+003,5.044714e-004
3.542652e+003,3.601462e-004
3.544580e+003,3.614277e-004
3.546509e+003,2.092719e-004
3.548437e+003,-4.775822e-005
3.550366e+003,4.151464e-005
3.552294e+003,1.246259e-004
3.554223e+003,1.424700e-004
3.556151e+003,2.135560e-004
3.558080e+003,2.920926e-004
3.560008e+003,4.633516e-004
3.561937e+003,6.130338e-004
3.563865e+003,5.842522e-004
3.565794e+003,2.802312e-004
3.567722e+003,-1.405552e-004
3.569651e+003,-2.495795e-004
3.571579e+003,-4.962832e-005
3.573508e+003,2.393499e-004
3.575436e+003,3.461838e-004
3.577365e+003,2.453923e-004
3.579293e+003,3.596321e-004
3.581222e+003,7.379130e-004
3.583150e+003,8.495897e-004
3.585079e+003,6.953999e-004
3.587007e+003,2.793446e-004
3.588936e+003,8.791685e-006
3.590864e+003,3.043935e-004
3.592793e+003,7.773489e-004
3.594721e+003,1.051076e-003
3.596650e+003,1.297653e-003
3.598578e+003,1.325607e-003
3.600507e+003,1.323454e-003
3.602435e+003,1.626551e-003
3.604364e+003,2.006084e-003
3.606292e+003,2.114698e-003
3.608221e+003,1.789257e-003
3.610149e+003,1.287743e-003
3.612078e+003,1.132786e-003
3.614006e+003,1.336940e-003
3.615935e+003,1.384147e-003
3.617863e+003,1.216315e-003
3.619792e+003,6.697774e-004
3.621720e+003,6.307811e-004
3.623649e+003,9.896010e-004
3.625577e+003,1.257479e-003
3.627506e+003,1.574725e-003
3.629434e+003,8.600131e-004
3.631363e+003,2.244264e-004
3.633291e+003,4.362985e-004
3.635220e+003,9.100661e-004
3.637148e+003,1.155950e-003
3.639077e+003,1.230240e-003
3.641005e+003,1.330383e-003
3.642934e+003,1.674846e-003
3.644862e+003,2.089970e-003
3.646791e+003,2.171226e-003
3.648719e+003,1.464963e-003
3.650648e+003,4.762262e-004
3.652576e+003,5.122125e-004
3.654505e+003,9.504929e-004
3.656433e+003,1.100689e-003
3.658362e+003,8.172095e-004
3.660290e+003,7.934794e-004
3.662219e+003,1.179188e-003
3.664147e+003,1.579069e-003
3.666076e+003,1.771256e-003
3.668004e+003,1.776740e-003
3.669933e+003,1.733236e-003
3.671861e+003,1.204960e-003
3.673790e+003,1.053013e-003
3.675718e+003,7.333085e-004
3.677647e+003,3.806651e-004
3.679575e+003,4.469678e-004
3.681504e+003,8.590817e-004
3.683432e+003,1.430079e-003
3.685361e+003,1.799785e-003
3.687289e+003,2.117790e-003
3.689218e+003,1.365319e-003
3.691146e+003,6.038547e-004
3.693075e+003,7.814392e-004
3.695003e+003,1.255848e-003
3.696932e+003,1.584381e-003
3.698860e+003,1.701422e-003
3.700789e+003,1.648471e-003
3.702717e+003,1.347415e-003
3.704646e+003,1.610689e-003
3.706574e+003,2.174459e-003
3.708503e+003,2.380922e-003
3.710431e+003,2.018631e-003
3.712360e+003,1.400419e-003
3.714288e+003,1.132861e-003
3.716217e+003,1.247838e-003
3.718145e+003,1.648270e-003
3.720074e+003,1.745895e-003
3.722002e+003,1.723252e-003
3.723931e+003,1.469903e-003
3.725859e+003,1.286931e-003
3.727788e+003,1.694731e-003
3.729716e+003,2.288483e-003
3.731645e+003,2.628885e-003
3.733573e+003,1.847535e-003
3.735502e+003,1.296304e-003
3.737430e+003,1.370482e-003
3.739359e+003,1.654379e-003
3.741287e+003,1.752257e-003
3.743216e+003,2.369940e-003
3.745144e+003,2.478167e-003
3.747073e+003,2.229951e-003
3.749001e+003,2.471425e-003
3.750930e+003,2.124183e-003
3.752858e+003,1.861811e-003
3.754787e+003,1.859464e-003
3.756715e+003,2.085187e-003
3.758644e+003,2.332762e-003
3.760572e+003,2.112836e-003
3.762501e+003,2.046295e-003
3.764429e+003,2.500653e-003
3.766358e+003,2.693720e-003
3.768286e+003,2.425872e-003
3.770215e+003,2.068304e-003
3.772143e+003,2.056099e-003
3.774072e+003,2.387024e-003
3.776000e+003,2.703980e-003
3.777929e+003,2.888575e-003
3.779857e+003,2.778225e-003
3.781786e+003,2.548404e-003
3.783714e+003,2.577484e-003
3.785643e+003,2.429344e-003
3.787571e+003,2.431251e-003
3.789500e+003,2.484173e-003
3.791428e+003,2.453558e-003
3.793357e+003,2.758451e-003
3.795285e+003,3.317393e-003
3.797214e+003,3.135696e-003
3.799142e+003,2.847314e-003
3.801071e+003,2.958335e-003
3.802999e+003,2.189696e-003
3.804927e+003,2.059944e-003
3.806856e+003,2.380744e-003
3.808785e+003,2.594642e-003
3.810713e+003,2.929464e-003
3.812642e+003,3.408305e-003
3.814570e+003,4.047997e-003
3.816499e+003,3.706232e-003
3.818427e+003,3.239647e-003
3.820355e+003,2.972387e-003
3.822284e+003,2.464950e-003
3.824213e+003,2.583392e-003
3.826141e+003,2.706058e-003
3.828070e+003,2.896011e-003
3.829998e+003,3.499866e-003
3.831927e+003,3.804497e-003
3.833855e+003,3.601767e-003
3.835783e+003,3.301620e-003
3.837712e+003,2.868675e-003
3.839641e+003,2.538502e-003
3.841569e+003,2.363831e-003
3.843498e+003,2.475977e-003
3.845426e+003,2.945304e-003
3.847354e+003,3.666461e-003
3.849283e+003,4.358888e-003
3.851211e+003,4.661709e-003
3.853140e+003,3.490739e-003
3.855069e+003,2.113886e-003
3.856997e+003,2.421752e-003
3.858926e+003,2.997220e-003
3.860854e+003,3.742971e-003
3.862782e+003,3.901631e-003
3.864711e+003,3.634982e-003
3.866640e+003,3.596500e-003
3.868568e+003,3.828697e-003
3.870497e+003,3.314652e-003
3.872425e+003,3.139205e-003
3.874354e+003,3.355615e-003
3.876282e+003,3.595360e-003
3.878210e+003,4.198939e-003
3.880139e+003,4.293069e-003
3.882068e+003,3.684394e-003
3.883996e+003,3.567584e-003
3.885925e+003,3.546037e-003
3.887853e+003,3.660299e-003
3.889781e+003,3.899403e-003
3.891710e+003,3.754266e-003
3.893638e+003,3.784940e-003
3.895567e+003,4.152633e-003
3.897496e+003,4.574105e-003
3.899424e+003,4.789092e-003
3.901353e+003,4.386179e-003
3.903281e+003,3.686830e-003
3.905209e+003,3.378421e-003
3.907138e+003,3.614448e-003
3.909066e+003,3.932759e-003
3.910995e+003,4.343845e-003
3.912924e+003,4.602626e-003
3.914852e+003,4.458874e-003
3.916781e+003,4.230611e-003
3.918709e+003,4.135698e-003
3.920637e+003,4.086182e-003
3.922566e+003,4.033603e-003
3.924494e+003,4.092582e-003
3.926423e+003,4.151732e-003
3.928352e+003,4.217200e-003
3.930280e+003,4.142113e-003
3.932208e+003,4.117198e-003
3.934137e+003,4.062690e-003
3.936065e+003,4.054196e-003
3.937994e+003,4.176624e-003
3.939922e+003,4.224941e-003
3.941851e+003,4.135802e-003
3.943780e+003,4.062437e-003
3.945708e+003,4.165538e-003
3.947636e+003,4.243307e-003
3.949565e+003,4.213504e-003
3.951493e+003,4.139587e-003
3.953422e+003,3.968261e-003
3.955351e+003,4.086614e-003
3.957279e+003,4.347898e-003
3.959208e+003,4.455313e-003
3.961136e+003,4.414782e-003
3.963064e+003,4.305981e-003
3.964993e+003,4.237317e-003
3.966921e+003,4.254036e-003
3.968850e+003,4.255235e-003
3.970779e+003,4.267573e-003
3.972707e+003,4.322298e-003
3.974635e+003,4.247099e-003
3.976564e+003,4.250489e-003
3.978492e+003,4.335716e-003
3.980421e+003,4.389733e-003
3.982349e+003,4.281580e-003
3.984278e+003,4.259571e-003
3.986207e+003,4.275650e-003
3.988135e+003,4.340082e-003
3.990063e+003,4.237346e-003
3.991992e+003,4.084177e-003
3.993920e+003,3.971964e-003
3.995849e+003,3.990814e-003
3.997777e+003,4.194647e-003
3.999706e+003,4.264861e-003
4.001635e+003,0.000000e+000
