3.991992e+002,0.000000e+000
4.011277e+002,0.000000e+000
4.030562e+002,0.000000e+000
4.049846e+002,0.000000e+000
4.069131e+002,0.000000e+000
4.088416e+002,0.000000e+000
4.107701e+002,0.000000e+000
4.126986e+002,0.000000e+000
4.146271e+002,0.000000e+000
4.165556e+002,0.000000e+000
4.184841e+002,0.000000e+000
4.204126e+002,0.000000e+000
4.223411e+002,0.000000e+000
4.242697e+002,0.000000e+000
4.261982e+002,0.000000e+000
4.281266e+002,0.000000e+000
4.300551e+002,0.000000e+000
4.319836e+002,0.000000e+000
4.339121e+002,0.000000e+000
4.358406e+002,0.000000e+000
4.377691e+002,0.000000e+000
4.396976e+002,0.000000e+000
4.416261e+002,0.000000e+000
4.435546e+002,0.000000e+000
4.454831e+002,0.000000e+000
4.474116e+002,0.000000e+000
4.493401e+002,0.000000e+000
4.512686e+002,0.000000e+000
4.531971e+002,0.000000e+000
4.551256e+002,0.000000e+000
4.570541e+002,0.000000e+000
4.589826e+002,0.000000e+000
4.609111e+002,0.000000e+000
4.628396e+002,0.000000e+000
4.647681e+002,0.000000e+000
4.666966e+002,0.000000e+000
4.686251e+002,0.000000e+000
4.705536e+002,0.000000e+000
4.724821e+002,0.000000e+000
4.744106e+002,0.000000e+000
4.763391e+002,0.000000e+000
4.782676e+002,0.000000e+000
4.801961e+002,0.000000e+000
4.821246e+002,0.000000e+000
4.840531e+002,0.000000e+000
4.859816e+002,0.000000e+000
4.879101e+002,0.000000e+000
4.898386e+002,0.000000e+000
4.917671e+002,0.000000e+000
4.936956e+002,0.000000e+000
4.956241e+002,0.000000e+000
4.975526e+002,0.000000e+000
4.994811e+002,0.000000e+000
5.014096e+002,0.000000e+000
5.033381e+002,0.000000e+000
5.052666e+002,0.000000e+000
5.071951e+002,0.000000e+000
5.091236e+002,0.000000e+000
5.110521e+002,0.000000e+000
5.129806e+002,0.000000e+000
5.149091e+002,0.000000e+000
5.168376e+002,0.000000e+000
5.187661e+002,0.000000e+000
5.206946e+002,0.000000e+000
5.226230e+002,0.000000e+000
5.245516e+002,-8.855484e-004
5.264800e+002,-8.796338e-004
5.284086e+002,-7.979317e-004
5.303370e+002,-8.534355e-004
5.322656e+002,-7.602819e-004
5.341940e+002,-6.528451e-004
5.361226e+002,-6.276297e-004
5.380510e+002,-7.875430e-004
5.399796e+002,-8.155098e-004
5.419081e+002,-6.714381e-004
5.438365e+002,-4.650799e-004
5.457650e+002,-4.349621e-004
5.476935e+002,-5.219999e-004
5.496221e+002,-5.841388e-004
5.515505e+002,-5.133336e-004
5.534790e+002,-3.970847e-004
5.554075e+002,-2.498146e-004
5.573361e+002,-4.052649e-004
5.592645e+002,-5.924042e-004
5.611931e+002,-6.351454e-004
5.631215e+002,-5.006511e-004
5.650500e+002,-3.948857e-004
5.669785e+002,-2.218631e-004
5.689070e+002,-1.120802e-004
5.708355e+002,-9.106362e-005
5.727640e+002,-8.760914e-005
5.746925e+002,1.611988e-004
5.766210e+002,3.307895e-004
5.785495e+002,3.508348e-004
5.804780e+002,3.397522e-004
5.824065e+002,3.975312e-004
5.843350e+002,4.941243e-004
5.862635e+002,7.617990e-004
5.881920e+002,8.647913e-004
5.901205e+002,7.408976e-004
5.920490e+002,5.862089e-004
5.939775e+002,5.214768e-004
5.959060e+002,5.899893e-004
5.978345e+002,7.747959e-004
5.997630e+002,8.567969e-004
6.016915e+002,9.138933e-004
6.036200e+002,9.276704e-004
6.055485e+002,9.215977e-004
6.074770e+002,8.982936e-004
6.094055e+002,8.782751e-004
6.113340e+002,6.720885e-004
6.132625e+002,6.257292e-004
6.151910e+002,5.747984e-004
6.171195e+002,4.101029e-004
6.190480e+002,4.579540e-004
6.209765e+002,6.901376e-004
6.229050e+002,7.512660e-004
6.248335e+002,8.351789e-004
6.267620e+002,8.630666e-004
6.286905e+002,8.607466e-004
6.306190e+002,9.256655e-004
6.325475e+002,1.063775e-003
6.344760e+002,1.035569e-003
6.364045e+002,1.139988e-003
6.383330e+002,1.323965e-003
6.402615e+002,1.462779e-003
6.421899e+002,1.410023e-003
6.441185e+002,1.497133e-003
6.460470e+002,1.560305e-003
6.479755e+002,1.568287e-003
6.499039e+002,1.589762e-003
6.518325e+002,1.717128e-003
6.537610e+002,1.747265e-003
6.556895e+002,1.921335e-003
6.576179e+002,2.054788e-003
6.595464e+002,2.202907e-003
6.614750e+002,2.324595e-003
6.634034e+002,2.499792e-003
6.653319e+002,2.499935e-003
6.672604e+002,2.561765e-003
6.691890e+002,2.933185e-003
6.711174e+002,3.409089e-003
6.730460e+002,3.730067e-003
6.749745e+002,4.059312e-003
6.769030e+002,4.328059e-003
6.788314e+002,4.808487e-003
6.807599e+002,5.269182e-003
6.826885e+002,5.733872e-003
6.846169e+002,6.119779e-003
6.865454e+002,6.670367e-003
6.884739e+002,7.095149e-003
6.904025e+002,7.552654e-003
6.923309e+002,8.089284e-003
6.942594e+002,8.833293e-003
6.961879e+002,9.519191e-003
6.981165e+002,1.034541e-002
7.000449e+002,1.124055e-002
7.019734e+002,1.253024e-002
7.039019e+002,1.406507e-002
7.058304e+002,1.642534e-002
7.077589e+002,1.956784e-002
7.096874e+002,2.426446e-002
7.116159e+002,3.160487e-002
7.135444e+002,4.569278e-002
7.154729e+002,7.236788e-002
7.174014e+002,1.131513e-001
7.193299e+002,1.283275e-001
7.212584e+002,8.934993e-002
7.231869e+002,5.716648e-002
7.251154e+002,4.860519e-002
7.270439e+002,5.648681e-002
7.289724e+002,8.069857e-002
7.309009e+002,8.482212e-002
7.328294e+002,5.146361e-002
7.347579e+002,2.643888e-002
7.366864e+002,1.744929e-002
7.386149e+002,1.381516e-002
7.405434e+002,1.155888e-002
7.424719e+002,1.010082e-002
7.444004e+002,8.896826e-003
7.463289e+002,8.037776e-003
7.482574e+002,7.297019e-003
7.501859e+002,6.689208e-003
7.521144e+002,6.118907e-003
7.540428e+002,5.723778e-003
7.559714e+002,5.349921e-003
7.578999e+002,5.228893e-003
7.598284e+002,5.114711e-003
7.617568e+002,4.942188e-003
7.636854e+002,4.745015e-003
7.656139e+002,4.573580e-003
7.675424e+002,4.288316e-003
7.694709e+002,4.201503e-003
7.713994e+002,3.978261e-003
7.733279e+002,3.751628e-003
7.752563e+002,3.598870e-003
7.771849e+002,3.474362e-003
7.791134e+002,3.318290e-003
7.810419e+002,3.205348e-003
7.829703e+002,3.052205e-003
7.848989e+002,2.915176e-003
7.868274e+002,2.903718e-003
7.887559e+002,3.003768e-003
7.906843e+002,2.959121e-003
7.926129e+002,2.993220e-003
7.945414e+002,3.053613e-003
7.964698e+002,3.128803e-003
7.983983e+002,3.197066e-003
8.003268e+002,3.197749e-003
8.022554e+002,3.176108e-003
8.041838e+002,3.276221e-003
8.061123e+002,3.346554e-003
8.080408e+002,3.364190e-003
8.099694e+002,3.378268e-003
8.118978e+002,3.537457e-003
8.138263e+002,3.674434e-003
8.157548e+002,3.729215e-003
8.176833e+002,3.754149e-003
8.196118e+002,3.852077e-003
8.215403e+002,3.897752e-003
8.234689e+002,3.892027e-003
8.253973e+002,3.876454e-003
8.273258e+002,3.873561e-003
8.292543e+002,3.902010e-003
8.311829e+002,4.022044e-003
8.331113e+002,4.077904e-003
8.350398e+002,4.117381e-003
8.369683e+002,4.254504e-003
8.388969e+002,4.425053e-003
8.408253e+002,4.550972e-003
8.427538e+002,4.643562e-003
8.446823e+002,4.684103e-003
8.466108e+002,4.828291e-003
8.485393e+002,4.987693e-003
8.504678e+002,5.138121e-003
8.523963e+002,5.225464e-003
8.543248e+002,5.202354e-003
8.562533e+002,5.228182e-003
8.581818e+002,5.280836e-003
8.601103e+002,5.313766e-003
8.620388e+002,5.302975e-003
8.639673e+002,5.377524e-003
8.658958e+002,5.450583e-003
8.678243e+002,5.532943e-003
8.697528e+002,5.623452e-003
8.716813e+002,5.666825e-003
8.736098e+002,5.688246e-003
8.755383e+002,5.665419e-003
8.774668e+002,5.638602e-003
8.793953e+002,5.685911e-003
8.813238e+002,5.785695e-003
8.832523e+002,5.858042e-003
8.851808e+002,5.933176e-003
8.871093e+002,6.145911e-003
8.890378e+002,6.238448e-003
8.909663e+002,6.204333e-003
8.928948e+002,6.205223e-003
8.948232e+002,6.235557e-003
8.967518e+002,6.257441e-003
8.986803e+002,6.357311e-003
9.006088e+002,6.643521e-003
9.025372e+002,7.066460e-003
9.044658e+002,7.708663e-003
9.063943e+002,8.651676e-003
9.083228e+002,9.266464e-003
9.102512e+002,8.875264e-003
9.121797e+002,7.956114e-003
9.141083e+002,7.243065e-003
9.160367e+002,6.866994e-003
9.179653e+002,6.650927e-003
9.198937e+002,6.533477e-003
9.218223e+002,6.462240e-003
9.237507e+002,6.476629e-003
9.256793e+002,6.565522e-003
9.276077e+002,6.622388e-003
9.295363e+002,6.744856e-003
9.314647e+002,6.878287e-003
9.333932e+002,7.088250e-003
9.353217e+002,7.380343e-003
9.372502e+002,7.668495e-003
9.391787e+002,7.956398e-003
9.411072e+002,8.139374e-003
9.430358e+002,8.341813e-003
9.449642e+002,8.611491e-003
9.468928e+002,8.852899e-003
9.488212e+002,9.126908e-003
9.507498e+002,9.361394e-003
9.526782e+002,9.614645e-003
9.546068e+002,9.967200e-003
9.565352e+002,1.041256e-002
9.584637e+002,1.077701e-002
9.603922e+002,1.112353e-002
9.623207e+002,1.139545e-002
9.642492e+002,1.163888e-002
9.661777e+002,1.179901e-002
9.681062e+002,1.178269e-002
9.700347e+002,1.166426e-002
9.719632e+002,1.153549e-002
9.738917e+002,1.138100e-002
9.758202e+002,1.126274e-002
9.777487e+002,1.112314e-002
9.796772e+002,1.105553e-002
9.816057e+002,1.107940e-002
9.835342e+002,1.121949e-002
9.854627e+002,1.144515e-002
9.873912e+002,1.166944e-002
9.893197e+002,1.184571e-002
9.912482e+002,1.195891e-002
9.931767e+002,1.191473e-002
9.951052e+002,1.182445e-002
9.970337e+002,1.179082e-002
9.989622e+002,1.183113e-002
1.000891e+003,1.193194e-002
1.002819e+003,1.213340e-002
1.004748e+003,1.232996e-002
1.006676e+003,1.250340e-002
1.008605e+003,1.273397e-002
1.010533e+003,1.299373e-002
1.012462e+003,1.318982e-002
1.014390e+003,1.353578e-002
1.016319e+003,1.391355e-002
1.018247e+003,1.419994e-002
1.020176e+003,1.447547e-002
1.022104e+003,1.479409e-002
1.024033e+003,1.508654e-002
1.025961e+003,1.534739e-002
1.027890e+003,1.560764e-002
1.029818e+003,1.582602e-002
1.031747e+003,1.594546e-002
1.033675e+003,1.610615e-002
1.035604e+003,1.619747e-002
1.037532e+003,1.616274e-002
1.039461e+003,1.612460e-002
1.041389e+003,1.613275e-002
1.043318e+003,1.622633e-002
1.045246e+003,1.644809e-002
1.047175e+003,1.678755e-002
1.049103e+003,1.733477e-002
1.051032e+003,1.783664e-002
1.052960e+003,1.815263e-002
1.054889e+003,1.849793e-002
1.056817e+003,1.897876e-002
1.058746e+003,1.945547e-002
1.060674e+003,1.992242e-002
1.062603e+003,2.026131e-002
1.064531e+003,2.048676e-002
1.066460e+003,2.060381e-002
1.068388e+003,2.083696e-002
1.070317e+003,2.130906e-002
1.072245e+003,2.205404e-002
1.074174e+003,2.308547e-002
1.076102e+003,2.449317e-002
1.078031e+003,2.620270e-002
1.079959e+003,2.801824e-002
1.081888e+003,2.967826e-002
1.083816e+003,3.110076e-002
1.085745e+003,3.236118e-002
1.087673e+003,3.378076e-002
1.089602e+003,3.531481e-002
1.091530e+003,3.682561e-002
1.093459e+003,3.814087e-002
1.095387e+003,3.905555e-002
1.097316e+003,3.944345e-002
1.099244e+003,3.944851e-002
1.101173e+003,3.911562e-002
1.103101e+003,3.859361e-002
1.105030e+003,3.810845e-002
1.106958e+003,3.791523e-002
1.108887e+003,3.815807e-002
1.110815e+003,3.889506e-002
1.112744e+003,3.989897e-002
1.114672e+003,4.091258e-002
1.116601e+003,4.160686e-002
1.118529e+003,4.166122e-002
1.120458e+003,4.085226e-002
1.122386e+003,3.926280e-002
1.124315e+003,3.722569e-002
1.126243e+003,3.548914e-002
1.128172e+003,3.464984e-002
1.130100e+003,3.514855e-002
1.132029e+003,3.700612e-002
1.133957e+003,3.998738e-002
1.135885e+003,4.372053e-002
1.137814e+003,4.773160e-002
1.139743e+003,5.139785e-002
1.141671e+003,5.433975e-002
1.143600e+003,5.650726e-002
1.145528e+003,5.815596e-002
1.147457e+003,5.965645e-002
1.149385e+003,6.137905e-002
1.151314e+003,6.330320e-002
1.153242e+003,6.524856e-002
1.155171e+003,6.707509e-002
1.157099e+003,6.869225e-002
1.159028e+003,7.002060e-002
1.160956e+003,7.087982e-002
1.162885e+003,7.109142e-002
1.164813e+003,7.062161e-002
1.166742e+003,6.954843e-002
1.168670e+003,6.795827e-002
1.170599e+003,6.598152e-002
1.172527e+003,6.375226e-002
1.174456e+003,6.149352e-002
1.176384e+003,5.914563e-002
1.178313e+003,5.660306e-002
1.180241e+003,5.421166e-002
1.182170e+003,5.211597e-002
1.184098e+003,5.022925e-002
1.186027e+003,4.849428e-002
1.187955e+003,4.688188e-002
1.189884e+003,4.530576e-002
1.191812e+003,4.372382e-002
1.193740e+003,4.214175e-002
1.195669e+003,4.066545e-002
1.197598e+003,3.935775e-002
1.199526e+003,3.827808e-002
1.201455e+003,3.742456e-002
1.203383e+003,3.683968e-002
1.205312e+003,3.649434e-002
1.207240e+003,3.636843e-002
1.209168e+003,3.629086e-002
1.211097e+003,3.615784e-002
1.213026e+003,3.595504e-002
1.214954e+003,3.585030e-002
1.216883e+003,3.588567e-002
1.218811e+003,3.610016e-002
1.220740e+003,3.650308e-002
1.222668e+003,3.709054e-002
1.224596e+003,3.776739e-002
1.226525e+003,3.853926e-002
1.228453e+003,3.932622e-002
1.230382e+003,4.007933e-002
1.232311e+003,4.077033e-002
1.234239e+003,4.140288e-002
1.236167e+003,4.191065e-002
1.238096e+003,4.219509e-002
1.240025e+003,4.221691e-002
1.241953e+003,4.191376e-002
1.243882e+003,4.122693e-002
1.245810e+003,4.017195e-002
1.247739e+003,3.873497e-002
1.249667e+003,3.713331e-002
1.251595e+003,3.570752e-002
1.253524e+003,3.471489e-002
1.255453e+003,3.398862e-002
1.257381e+003,3.336226e-002
1.259310e+003,3.268691e-002
1.261238e+003,3.194229e-002
1.263167e+003,3.124124e-002
1.265095e+003,3.060418e-002
1.267023e+003,2.993177e-002
1.268952e+003,2.939289e-002
1.270880e+003,2.896832e-002
1.272809e+003,2.876900e-002
1.274738e+003,2.877624e-002
1.276666e+003,2.882330e-002
1.278594e+003,2.872158e-002
1.280523e+003,2.841548e-002
1.282451e+003,2.775211e-002
1.284380e+003,2.686342e-002
1.286308e+003,2.600656e-002
1.288237e+003,2.547060e-002
1.290166e+003,2.525075e-002
1.292094e+003,2.532540e-002
1.294022e+003,2.544691e-002
1.295951e+003,2.560114e-002
1.297879e+003,2.574749e-002
1.299808e+003,2.589163e-002
1.301736e+003,2.586261e-002
1.303665e+003,2.565863e-002
1.305594e+003,2.535023e-002
1.307522e+003,2.510053e-002
1.309450e+003,2.484176e-002
1.311379e+003,2.463058e-002
1.313307e+003,2.436907e-002
1.315236e+003,2.409661e-002
1.317164e+003,2.375658e-002
1.319093e+003,2.340191e-002
1.321021e+003,2.287672e-002
1.322950e+003,2.231466e-002
1.324878e+003,2.167200e-002
1.326807e+003,2.105590e-002
1.328735e+003,2.055435e-002
1.330664e+003,2.036950e-002
1.332592e+003,2.045638e-002
1.334521e+003,2.084076e-002
1.336449e+003,2.148632e-002
1.338378e+003,2.251641e-002
1.340306e+003,2.368333e-002
1.342235e+003,2.447382e-002
1.344163e+003,2.515437e-002
1.346092e+003,2.600251e-002
1.348021e+003,2.686240e-002
1.349949e+003,2.767820e-002
1.351877e+003,2.808129e-002
1.353806e+003,2.819990e-002
1.355734e+003,2.815050e-002
1.357663e+003,2.826215e-002
1.359591e+003,2.862232e-002
1.361520e+003,2.940532e-002
1.363448e+003,3.040636e-002
1.365377e+003,3.106777e-002
1.367305e+003,3.155828e-002
1.369234e+003,3.170884e-002
1.371162e+003,3.135343e-002
1.373091e+003,3.142104e-002
1.375019e+003,3.276646e-002
1.376948e+003,3.374260e-002
1.378876e+003,3.255344e-002
1.380805e+003,2.919022e-002
1.382733e+003,2.562525e-002
1.384662e+003,2.306955e-002
1.386590e+003,2.110252e-002
1.388519e+003,1.944270e-002
1.390447e+003,1.819449e-002
1.392376e+003,1.743704e-002
1.394304e+003,1.696850e-002
1.396233e+003,1.692734e-002
1.398161e+003,1.704766e-002
1.400090e+003,1.759924e-002
1.402018e+003,1.761534e-002
1.403947e+003,1.753774e-002
1.405875e+003,1.701831e-002
1.407804e+003,1.684898e-002
1.409732e+003,1.716649e-002
1.411661e+003,1.848124e-002
1.413589e+003,2.002076e-002
1.415518e+003,2.154927e-002
1.417446e+003,2.242731e-002
1.419375e+003,2.256265e-002
1.421303e+003,2.170504e-002
1.423232e+003,2.155865e-002
1.425160e+003,2.211071e-002
1.427089e+003,2.355929e-002
1.429017e+003,2.602186e-002
1.430946e+003,2.982641e-002
1.432874e+003,3.295374e-002
1.434803e+003,3.568067e-002
1.436731e+003,3.910358e-002
1.438660e+003,4.185014e-002
1.440588e+003,4.332286e-002
1.442517e+003,4.531941e-002
1.444445e+003,4.699148e-002
1.446374e+003,4.916352e-002
1.448302e+003,5.259415e-002
1.450231e+003,5.753427e-002
1.452159e+003,6.510464e-002
1.454088e+003,7.469395e-002
1.456016e+003,8.552204e-002
1.457945e+003,1.165160e-001
1.459873e+003,1.711267e-001
1.461802e+003,2.087724e-001
1.463730e+003,1.849950e-001
1.465659e+003,1.346009e-001
1.467587e+003,1.241212e-001
1.469516e+003,1.247977e-001
1.471444e+003,1.453906e-001
1.473373e+003,1.338537e-001
1.475301e+003,7.489178e-002
1.477230e+003,3.506656e-002
1.479158e+003,2.331680e-002
1.481087e+003,1.793608e-002
1.483015e+003,1.521498e-002
1.484944e+003,1.317455e-002
1.486872e+003,1.255219e-002
1.488801e+003,1.144771e-002
1.490729e+003,1.138846e-002
1.492658e+003,1.042077e-002
1.494586e+003,1.025995e-002
1.496515e+003,9.519772e-003
1.498443e+003,9.342794e-003
1.500372e+003,8.594821e-003
1.502300e+003,8.340474e-003
1.504229e+003,7.530520e-003
1.506157e+003,7.731472e-003
1.508086e+003,7.821984e-003
1.510014e+003,7.913684e-003
1.511943e+003,7.367138e-003
1.513871e+003,7.361563e-003
1.515800e+003,6.963409e-003
1.517728e+003,7.075229e-003
1.519657e+003,6.666890e-003
1.521585e+003,7.175567e-003
1.523514e+003,6.952137e-003
1.525442e+003,6.996622e-003
1.527371e+003,6.875651e-003
1.529299e+003,6.984835e-003
1.531228e+003,6.639185e-003
1.533156e+003,6.870952e-003
1.535085e+003,6.658944e-003
1.537013e+003,6.307949e-003
1.538942e+003,5.828347e-003
1.540870e+003,6.894467e-003
1.542799e+003,6.765774e-003
1.544727e+003,6.881117e-003
1.546656e+003,6.490170e-003
1.548584e+003,6.469036e-003
1.550513e+003,6.266500e-003
1.552441e+003,6.061594e-003
1.554370e+003,5.746040e-003
1.556298e+003,5.619139e-003
1.558227e+003,5.207250e-003
1.560155e+003,6.165660e-003
1.562084e+003,5.528419e-003
1.564012e+003,5.348260e-003
1.565941e+003,5.117376e-003
1.567869e+003,5.042449e-003
1.569798e+003,5.100181e-003
1.571726e+003,5.111107e-003
1.573655e+003,4.701899e-003
1.575583e+003,4.884689e-003
1.577512e+003,5.215819e-003
1.579440e+003,5.139552e-003
1.581369e+003,4.909772e-003
1.583297e+003,4.954981e-003
1.585226e+003,4.917946e-003
1.587154e+003,4.973567e-003
1.589083e+003,5.004982e-003
1.591011e+003,5.117605e-003
1.592940e+003,4.971980e-003
1.594868e+003,5.035538e-003
1.596797e+003,5.081082e-003
1.598725e+003,5.153835e-003
1.600654e+003,5.054791e-003
1.602582e+003,5.105620e-003
1.604511e+003,5.169495e-003
1.606439e+003,5.413160e-003
1.608368e+003,5.507244e-003
1.610296e+003,5.601637e-003
1.612225e+003,5.576426e-003
1.614153e+003,5.535002e-003
1.616082e+003,5.680886e-003
1.618010e+003,6.277970e-003
1.619939e+003,6.194682e-003
1.621867e+003,6.248241e-003
1.623796e+003,6.663845e-003
1.625724e+003,7.002939e-003
1.627653e+003,7.196178e-003
1.629581e+003,7.438708e-003
1.631510e+003,7.298286e-003
1.633438e+003,7.188329e-003
1.635367e+003,7.666499e-003
1.637295e+003,8.846769e-003
1.639224e+003,9.039111e-003
1.641152e+003,9.470087e-003
1.643081e+003,9.773356e-003
1.645009e+003,9.821135e-003
1.646938e+003,1.013514e-002
1.648866e+003,1.038237e-002
1.650795e+003,9.791223e-003
1.652723e+003,9.436319e-003
1.654652e+003,1.050767e-002
1.656580e+003,1.027156e-002
1.658509e+003,9.704374e-003
1.660437e+003,9.197384e-003
1.662366e+003,8.711037e-003
1.664294e+003,8.704758e-003
1.666223e+003,8.366736e-003
1.668151e+003,8.139079e-003
1.670080e+003,8.258577e-003
1.672008e+003,8.283490e-003
1.673937e+003,8.050118e-003
1.675865e+003,8.246927e-003
1.677794e+003,8.128270e-003
1.679722e+003,8.023760e-003
1.681651e+003,7.738672e-003
1.683579e+003,7.679799e-003
1.685508e+003,8.591249e-003
1.687436e+003,8.856513e-003
1.689365e+003,9.112950e-003
1.691293e+003,9.346684e-003
1.693222e+003,9.338514e-003
1.695150e+003,9.712340e-003
1.697079e+003,1.072160e-002
1.699007e+003,1.099959e-002
1.700936e+003,1.245187e-002
1.702864e+003,1.339363e-002
1.704793e+003,1.407332e-002
1.706721e+003,1.533609e-002
1.708650e+003,1.617607e-002
1.710578e+003,1.702319e-002
1.712507e+003,1.787690e-002
1.714435e+003,1.906735e-002
1.716364e+003,2.085510e-002
1.718292e+003,2.463512e-002
1.720221e+003,2.763001e-002
1.722149e+003,3.038322e-002
1.724078e+003,3.485715e-002
1.726006e+003,3.986643e-002
1.727935e+003,4.592402e-002
1.729863e+003,5.497609e-002
1.731792e+003,6.433462e-002
1.733720e+003,8.077420e-002
1.735649e+003,1.044741e-001
1.737577e+003,1.169023e-001
1.739506e+003,1.371402e-001
1.741434e+003,1.544739e-001
1.743363e+003,1.646641e-001
1.745291e+003,1.674520e-001
1.747220e+003,1.625092e-001
1.749148e+003,1.481331e-001
1.751077e+003,1.267825e-001
1.753005e+003,1.039820e-001
1.754934e+003,8.667904e-002
1.756862e+003,6.597289e-002
1.758791e+003,5.005773e-002
1.760719e+003,3.907193e-002
1.762648e+003,2.868147e-002
1.764576e+003,2.260834e-002
1.766505e+003,1.859136e-002
1.768433e+003,1.511418e-002
1.770362e+003,1.292733e-002
1.772290e+003,1.103855e-002
1.774219e+003,9.820155e-003
1.776147e+003,8.811336e-003
1.778076e+003,7.890110e-003
1.780004e+003,7.316936e-003
1.781933e+003,6.823436e-003
1.783861e+003,6.306082e-003
1.785790e+003,5.815069e-003
1.787718e+003,5.390485e-003
1.789646e+003,4.863115e-003
1.791575e+003,4.489011e-003
1.793504e+003,4.402386e-003
1.795432e+003,4.220589e-003
1.797361e+003,3.826058e-003
1.799289e+003,3.637335e-003
1.801218e+003,3.420531e-003
1.803146e+003,3.269533e-003
1.805074e+003,3.081856e-003
1.807003e+003,2.906147e-003
1.808932e+003,2.647782e-003
1.810860e+003,2.493775e-003
1.812789e+003,2.286150e-003
1.814717e+003,1.924339e-003
1.816646e+003,1.586805e-003
1.818574e+003,1.836142e-003
1.820502e+003,1.868907e-003
1.822431e+003,1.677305e-003
1.824360e+003,1.317929e-003
1.826288e+003,1.221292e-003
1.828217e+003,8.256743e-004
1.830145e+003,7.797666e-004
1.832073e+003,7.998096e-004
1.834002e+003,6.445106e-004
1.835931e+003,3.400985e-004
1.837859e+003,3.329106e-004
1.839788e+003,2.351096e-004
1.841716e+003,1.057796e-005
1.843645e+003,-3.670920e-004
1.845573e+003,-1.165261e-004
1.847501e+003,-9.723846e-005
1.849430e+003,-2.558343e-005
1.851359e+003,-1.396202e-004
1.853287e+003,-3.487803e-005
1.855216e+003,-1.066020e-004
1.857144e+003,-2.511097e-004
1.859073e+003,-4.975824e-004
1.861001e+003,-4.929649e-004
1.862929e+003,-8.224715e-004
1.864858e+003,-9.626746e-004
1.866787e+003,-1.373617e-003
1.868715e+003,-1.370193e-003
1.870644e+003,-1.050547e-003
1.872572e+003,-7.693693e-004
1.874500e+003,-9.340486e-004
1.876429e+003,-9.343028e-004
1.878357e+003,-1.063862e-003
1.880286e+003,-9.658011e-004
1.882215e+003,-1.067090e-003
1.884143e+003,-1.050437e-003
1.886072e+003,-1.229693e-003
1.888000e+003,-1.421078e-003
1.889928e+003,-1.361092e-003
1.891857e+003,-7.914547e-004
1.893785e+003,-8.359319e-004
1.895714e+003,-5.946569e-004
1.897643e+003,-6.275736e-004
1.899571e+003,-7.006312e-004
1.901500e+003,-6.937068e-004
1.903428e+003,-6.867964e-004
1.905356e+003,-6.798971e-004
1.907285e+003,-6.730100e-004
1.909213e+003,-6.661341e-004
1.911142e+003,-6.592711e-004
1.913071e+003,-6.524222e-004
1.914999e+003,-6.455835e-004
1.916927e+003,-6.387606e-004
1.918856e+003,-6.319471e-004
1.920784e+003,-6.251475e-004
1.922713e+003,-6.183572e-004
1.924641e+003,-6.115828e-004
1.926570e+003,-6.048195e-004
1.928499e+003,-5.980683e-004
1.930427e+003,-5.913284e-004
1.932355e+003,-5.846014e-004
1.934284e+003,-5.778866e-004
1.936212e+003,-5.711839e-004
1.938141e+003,-5.644970e-004
1.940070e+003,-5.578175e-004
1.941998e+003,-5.511539e-004
1.943927e+003,-5.445015e-004
1.945855e+003,-5.378611e-004
1.947783e+003,-5.312338e-004
1.949712e+003,-5.246177e-004
1.951640e+003,-5.180147e-004
1.953569e+003,-5.114237e-004
1.955498e+003,-5.048448e-004
1.957426e+003,-4.982781e-004
1.959354e+003,-4.917253e-004
1.961283e+003,-4.851827e-004
1.963211e+003,-4.786560e-004
1.965140e+003,-4.721377e-004
1.967068e+003,-4.656324e-004
1.968997e+003,-4.591402e-004
1.970926e+003,-4.526600e-004
1.972854e+003,-4.461929e-004
1.974782e+003,-4.397379e-004
1.976711e+003,-4.332941e-004
1.978639e+003,-4.268643e-004
1.980568e+003,-4.204456e-004
1.982496e+003,-4.140409e-004
1.984425e+003,-4.076483e-004
1.986354e+003,-4.012659e-004
1.988282e+003,-3.948985e-004
1.990210e+003,-3.885403e-004
1.992139e+003,-3.821962e-004
1.994067e+003,-3.758650e-004
1.995996e+003,-3.695460e-004
1.997924e+003,-3.632382e-004
1.999853e+003,-3.569424e-004
2.001781e+003,-3.506616e-004
2.003710e+003,-3.443910e-004
2.005638e+003,-3.381334e-004
2.007567e+003,-3.318870e-004
2.009495e+003,-3.256546e-004
2.011424e+003,-3.194343e-004
2.013352e+003,-3.132261e-004
2.015281e+003,-3.070310e-004
2.017209e+003,-3.008461e-004
2.019138e+003,-2.946742e-004
2.021066e+003,-2.885144e-004
2.022995e+003,-2.823696e-004
2.024923e+003,-2.762321e-004
2.026852e+003,-2.701133e-004
2.028781e+003,-2.640020e-004
2.030709e+003,-2.579065e-004
2.032637e+003,-2.518203e-004
2.034566e+003,-2.457481e-004
2.036494e+003,-2.396870e-004
2.038423e+003,-2.336400e-004
2.040351e+003,-2.276022e-004
2.042280e+003,-2.215803e-004
2.044208e+003,-2.155695e-004
2.046137e+003,-2.095699e-004
2.048065e+003,-2.035853e-004
2.049994e+003,-1.976090e-004
2.051922e+003,-1.916476e-004
2.053851e+003,-1.856983e-004
2.055779e+003,-1.797620e-004
2.057708e+003,-1.738388e-004
2.059636e+003,-1.679249e-004
2.061565e+003,-1.620241e-004
2.063493e+003,-1.561381e-004
2.065422e+003,-1.502614e-004
2.067350e+003,-1.443978e-004
2.069279e+003,-1.385473e-004
2.071207e+003,-1.327097e-004
2.073136e+003,-1.268853e-004
2.075064e+003,-1.210701e-004
2.076993e+003,-1.152698e-004
2.078921e+003,-1.094807e-004
2.080850e+003,-1.037028e-004
2.082778e+003,-9.793788e-005
2.084707e+003,-9.218790e-005
2.086635e+003,-8.644722e-005
2.088564e+003,-8.071959e-005
2.090492e+003,-7.500499e-005
2.092421e+003,-6.930158e-005
2.094349e+003,-6.361306e-005
2.096278e+003,-5.793385e-005
2.098206e+003,-5.226955e-005
2.100135e+003,-4.661828e-005
2.102063e+003,-4.097447e-005
2.103992e+003,-3.534742e-005
2.105920e+003,-2.973154e-005
2.107849e+003,-2.412498e-005
2.109777e+003,-1.853518e-005
2.111706e+003,-1.295656e-005
2.113634e+003,-7.389113e-006
2.115563e+003,-1.836568e-006
2.117491e+003,3.708526e-006
2.119420e+003,9.236857e-006
2.121348e+003,1.475587e-005
2.123277e+003,2.025999e-005
2.125205e+003,2.575479e-005
2.127134e+003,3.123470e-005
2.129062e+003,3.670342e-005
2.130991e+003,4.215725e-005
2.132919e+003,4.760176e-005
2.134848e+003,5.303323e-005
2.136776e+003,5.844980e-005
2.138705e+003,6.385893e-005
2.140633e+003,6.925128e-005
2.142562e+003,7.463247e-005
2.144490e+003,8.000247e-005
2.146419e+003,8.536130e-005
2.148347e+003,9.070337e-005
2.150276e+003,9.603798e-005
2.152204e+003,1.013577e-004
2.154133e+003,1.066644e-004
2.156061e+003,1.119599e-004
2.157990e+003,1.172405e-004
2.159918e+003,1.225155e-004
2.161847e+003,1.277719e-004
2.163775e+003,1.330189e-004
2.165704e+003,1.382548e-004
2.167632e+003,1.434758e-004
2.169561e+003,1.486838e-004
2.171489e+003,1.538806e-004
2.173418e+003,1.590643e-004
2.175346e+003,1.642387e-004
2.177275e+003,1.693983e-004
2.179203e+003,1.745448e-004
2.181132e+003,1.796801e-004
2.183060e+003,1.848023e-004
2.184989e+003,1.899134e-004
2.186917e+003,1.950096e-004
2.188846e+003,2.000965e-004
2.190774e+003,2.051704e-004
2.192703e+003,2.102293e-004
2.194631e+003,2.152808e-004
2.196560e+003,2.203155e-004
2.198488e+003,2.253409e-004
2.200417e+003,2.303515e-004
2.202345e+003,2.353508e-004
2.204274e+003,2.403352e-004
2.206202e+003,2.453141e-004
2.208131e+003,2.502725e-004
2.210059e+003,2.552252e-004
2.211988e+003,2.601612e-004
2.213916e+003,2.650879e-004
2.215845e+003,2.700016e-004
2.217773e+003,2.749022e-004
2.219702e+003,2.797898e-004
2.221630e+003,2.846662e-004
2.223559e+003,2.895296e-004
2.225487e+003,2.943799e-004
2.227416e+003,2.992209e-004
2.229344e+003,3.040452e-004
2.231273e+003,3.088582e-004
2.233201e+003,3.136601e-004
2.235130e+003,3.184509e-004
2.237058e+003,3.232285e-004
2.238987e+003,3.279950e-004
2.240915e+003,3.327485e-004
2.242844e+003,3.374889e-004
2.244772e+003,3.422163e-004
2.246701e+003,3.469288e-004
2.248629e+003,3.516339e-004
2.250558e+003,3.563222e-004
2.252486e+003,3.610030e-004
2.254415e+003,3.656689e-004
2.256343e+003,3.703218e-004
2.258272e+003,3.749654e-004
2.260200e+003,3.795940e-004
2.262129e+003,3.842115e-004
2.264057e+003,3.888160e-004
2.265986e+003,3.934093e-004
2.267914e+003,3.979858e-004
2.269843e+003,4.025549e-004
2.271771e+003,4.071109e-004
2.273700e+003,4.116520e-004
2.275628e+003,4.161820e-004
2.277557e+003,4.207008e-004
2.279485e+003,4.252065e-004
2.281414e+003,4.297011e-004
2.283342e+003,4.341844e-004
2.285271e+003,4.386529e-004
2.287199e+003,4.431084e-004
2.289128e+003,4.475527e-004
2.291056e+003,4.519839e-004
2.292985e+003,4.564021e-004
2.294913e+003,4.608110e-004
2.296842e+003,4.652068e-004
2.298770e+003,4.695859e-004
2.300699e+003,4.739575e-004
2.302627e+003,4.783161e-004
2.304556e+003,4.826598e-004
2.306484e+003,4.869923e-004
2.308413e+003,4.913155e-004
2.310341e+003,4.956219e-004
2.312270e+003,4.999191e-004
2.314198e+003,5.042031e-004
2.316127e+003,5.084779e-004
2.318055e+003,5.127341e-004
2.319984e+003,5.169827e-004
2.321912e+003,5.212147e-004
2.323841e+003,5.254373e-004
2.325769e+003,5.296469e-004
2.327698e+003,5.338453e-004
2.329626e+003,5.380288e-004
2.331555e+003,5.421992e-004
2.333483e+003,5.463623e-004
2.335412e+003,5.505104e-004
2.337340e+003,5.546473e-004
2.339269e+003,5.587675e-004
2.341197e+003,5.628802e-004
2.343126e+003,5.669799e-004
2.345054e+003,5.710647e-004
2.346983e+003,5.751383e-004
2.348911e+003,5.792025e-004
2.350840e+003,5.832519e-004
2.352768e+003,5.872883e-004
2.354697e+003,5.913116e-004
2.356625e+003,5.953256e-004
2.358554e+003,5.993266e-004
2.360482e+003,6.033126e-004
2.362411e+003,6.072894e-004
2.364339e+003,6.112494e-004
2.366268e+003,6.152000e-004
2.368196e+003,6.191395e-004
2.370125e+003,6.230660e-004
2.372053e+003,6.269794e-004
2.373982e+003,6.308816e-004
2.375910e+003,6.347690e-004
2.377839e+003,6.386451e-004
2.379767e+003,6.425120e-004
2.381696e+003,6.463621e-004
2.383624e+003,6.502047e-004
2.385553e+003,6.540287e-004
2.387481e+003,6.578434e-004
2.389410e+003,6.616469e-004
2.391338e+003,6.654356e-004
2.393267e+003,6.692149e-004
2.395195e+003,6.729811e-004
2.397124e+003,6.767344e-004
2.399052e+003,6.804746e-004
2.400981e+003,7.112157e-004
2.402909e+003,5.766004e-004
2.404838e+003,4.903655e-004
2.406766e+003,8.512083e-004
2.408695e+003,1.266861e-003
2.410623e+003,1.320012e-003
2.412552e+003,1.256332e-003
2.414480e+003,1.189392e-003
2.416409e+003,1.170473e-003
2.418337e+003,1.165396e-003
2.420266e+003,1.217270e-003
2.422194e+003,1.211170e-003
2.424123e+003,1.134465e-003
2.426051e+003,1.095446e-003
2.427979e+003,1.059594e-003
2.429908e+003,1.085630e-003
2.431837e+003,1.294389e-003
2.433765e+003,1.355635e-003
2.435694e+003,1.263751e-003
2.437622e+003,1.197230e-003
2.439551e+003,1.237903e-003
2.441479e+003,1.177764e-003
2.443407e+003,1.049887e-003
2.445336e+003,1.088031e-003
2.447265e+003,1.214720e-003
2.449193e+003,1.394488e-003
2.451122e+003,1.495574e-003
2.453050e+003,1.390222e-003
2.454979e+003,1.490397e-003
2.456907e+003,1.437828e-003
2.458836e+003,1.255028e-003
2.460764e+003,1.191026e-003
2.462693e+003,1.329444e-003
2.464621e+003,1.436252e-003
2.466550e+003,1.408797e-003
2.468478e+003,1.459546e-003
2.470406e+003,1.582479e-003
2.472335e+003,1.721583e-003
2.474264e+003,1.906440e-003
2.476192e+003,1.819877e-003
2.478121e+003,1.813296e-003
2.480049e+003,1.888098e-003
2.481978e+003,2.027720e-003
2.483906e+003,2.193671e-003
2.485835e+003,2.189988e-003
2.487763e+003,2.016770e-003
2.489692e+003,2.091736e-003
2.491620e+003,2.197545e-003
2.493549e+003,2.256153e-003
2.495477e+003,2.240065e-003
2.497406e+003,2.375728e-003
2.499334e+003,2.420304e-003
2.501263e+003,2.398388e-003
2.503191e+003,2.499169e-003
2.505120e+003,2.446918e-003
2.507048e+003,2.532812e-003
2.508977e+003,2.808817e-003
2.510905e+003,2.868393e-003
2.512833e+003,2.874624e-003
2.514762e+003,3.008984e-003
2.516691e+003,3.078935e-003
2.518619e+003,3.078811e-003
2.520548e+003,3.031082e-003
2.522476e+003,3.035013e-003
2.524405e+003,3.209388e-003
2.526333e+003,3.328735e-003
2.528261e+003,3.368555e-003
2.530190e+003,3.424869e-003
2.532119e+003,3.687887e-003
2.534047e+003,3.803990e-003
2.535976e+003,3.634891e-003
2.537904e+003,3.374157e-003
2.539833e+003,3.412291e-003
2.541761e+003,3.445405e-003
2.543689e+003,3.631501e-003
2.545618e+003,3.960193e-003
2.547547e+003,4.284221e-003
2.549475e+003,4.367092e-003
2.551404e+003,4.506157e-003
2.553332e+003,4.568350e-003
2.555260e+003,4.571949e-003
2.557189e+003,4.628908e-003
2.559117e+003,4.689956e-003
2.561046e+003,4.702415e-003
2.562975e+003,4.907474e-003
2.564903e+003,5.196807e-003
2.566832e+003,5.399922e-003
2.568760e+003,5.481262e-003
2.570688e+003,5.639721e-003
2.572617e+003,5.632997e-003
2.574546e+003,5.716267e-003
2.576474e+003,5.855672e-003
2.578403e+003,6.106847e-003
2.580331e+003,6.273649e-003
2.582260e+003,6.550194e-003
2.584188e+003,6.735818e-003
2.586116e+003,6.971747e-003
2.588045e+003,7.267796e-003
2.589974e+003,7.498353e-003
2.591902e+003,7.633050e-003
2.593831e+003,7.780963e-003
2.595759e+003,7.920411e-003
2.597688e+003,8.199081e-003
2.599616e+003,8.441872e-003
2.601544e+003,8.541331e-003
2.603473e+003,8.702553e-003
2.605402e+003,9.044259e-003
2.607330e+003,9.202097e-003
2.609259e+003,9.369685e-003
2.611187e+003,9.698376e-003
2.613115e+003,9.998085e-003
2.615044e+003,1.035675e-002
2.616972e+003,1.081742e-002
2.618901e+003,1.106043e-002
2.620830e+003,1.141439e-002
2.622758e+003,1.191538e-002
2.624687e+003,1.229784e-002
2.626615e+003,1.262508e-002
2.628543e+003,1.304485e-002
2.630472e+003,1.339495e-002
2.632400e+003,1.378671e-002
2.634329e+003,1.406758e-002
2.636258e+003,1.418343e-002
2.638186e+003,1.419022e-002
2.640115e+003,1.413788e-002
2.642043e+003,1.411402e-002
2.643971e+003,1.405103e-002
2.645900e+003,1.403811e-002
2.647828e+003,1.415928e-002
2.649757e+003,1.433025e-002
2.651686e+003,1.450786e-002
2.653614e+003,1.468337e-002
2.655542e+003,1.483959e-002
2.657471e+003,1.487694e-002
2.659399e+003,1.490825e-002
2.661328e+003,1.488312e-002
2.663256e+003,1.470194e-002
2.665185e+003,1.441167e-002
2.667114e+003,1.421945e-002
2.669042e+003,1.407581e-002
2.670970e+003,1.393831e-002
2.672899e+003,1.380703e-002
2.674827e+003,1.368720e-002
2.676756e+003,1.357054e-002
2.678685e+003,1.345167e-002
2.680613e+003,1.337053e-002
2.682542e+003,1.332531e-002
2.684470e+003,1.318174e-002
2.686398e+003,1.307902e-002
2.688327e+003,1.297570e-002
2.690255e+003,1.288915e-002
2.692184e+003,1.282623e-002
2.694113e+003,1.278467e-002
2.696041e+003,1.279481e-002
2.697969e+003,1.283453e-002
2.699898e+003,1.293654e-002
2.701826e+003,1.312138e-002
2.703755e+003,1.325303e-002
2.705683e+003,1.338977e-002
2.707612e+003,1.356819e-002
2.709541e+003,1.373214e-002
2.711469e+003,1.381586e-002
2.713397e+003,1.395346e-002
2.715326e+003,1.407611e-002
2.717254e+003,1.421048e-002
2.719183e+003,1.440835e-002
2.721111e+003,1.467276e-002
2.723040e+003,1.494386e-002
2.724969e+003,1.517221e-002
2.726897e+003,1.542440e-002
2.728825e+003,1.568436e-002
2.730754e+003,1.588539e-002
2.732682e+003,1.604763e-002
2.734611e+003,1.620333e-002
2.736539e+003,1.643733e-002
2.738468e+003,1.653227e-002
2.740396e+003,1.657164e-002
2.742325e+003,1.661638e-002
2.744253e+003,1.669989e-002
2.746182e+003,1.673349e-002
2.748110e+003,1.668022e-002
2.750039e+003,1.670136e-002
2.751967e+003,1.681489e-002
2.753896e+003,1.703578e-002
2.755824e+003,1.735720e-002
2.757753e+003,1.770877e-002
2.759681e+003,1.802265e-002
2.761610e+003,1.838171e-002
2.763538e+003,1.877655e-002
2.765467e+003,1.908508e-002
2.767395e+003,1.948104e-002
2.769324e+003,1.998307e-002
2.771252e+003,2.060447e-002
2.773181e+003,2.130389e-002
2.775109e+003,2.203016e-002
2.777038e+003,2.282009e-002
2.778966e+003,2.377993e-002
2.780895e+003,2.481803e-002
2.782823e+003,2.589602e-002
2.784752e+003,2.707143e-002
2.786680e+003,2.846186e-002
2.788609e+003,2.999191e-002
2.790537e+003,3.156449e-002
2.792466e+003,3.317917e-002
2.794394e+003,3.482326e-002
2.796323e+003,3.643974e-002
2.798251e+003,3.819092e-002
2.800180e+003,4.010677e-002
2.802108e+003,4.213365e-002
2.804037e+003,4.434140e-002
2.805965e+003,4.685361e-002
2.807894e+003,4.971955e-002
2.809822e+003,5.286540e-002
2.811751e+003,5.641454e-002
2.813679e+003,6.046005e-002
2.815608e+003,6.516180e-002
2.817536e+003,7.071970e-002
2.819465e+003,7.742910e-002
2.821393e+003,8.546909e-002
2.823322e+003,9.525165e-002
2.825250e+003,1.074366e-001
2.827179e+003,1.225946e-001
2.829107e+003,1.416441e-001
2.831036e+003,1.657836e-001
2.832964e+003,1.967258e-001
2.834893e+003,2.377664e-001
2.836821e+003,2.932595e-001
2.838750e+003,3.699639e-001
2.840678e+003,4.789288e-001
2.842607e+003,6.316640e-001
2.844535e+003,8.225614e-001
2.846464e+003,9.848046e-001
2.848392e+003,9.850389e-001
2.850321e+003,8.239582e-001
2.852249e+003,6.490769e-001
2.854178e+003,5.219382e-001
2.856106e+003,4.280363e-001
2.858035e+003,3.536136e-001
2.859963e+003,2.948050e-001
2.861892e+003,2.503082e-001
2.863820e+003,2.188237e-001
2.865749e+003,1.988124e-001
2.867677e+003,1.885454e-001
2.869606e+003,1.856038e-001
2.871534e+003,1.866769e-001
2.873463e+003,1.898031e-001
2.875391e+003,1.962263e-001
2.877320e+003,2.078960e-001
2.879248e+003,2.249296e-001
2.881177e+003,2.463077e-001
2.883105e+003,2.706786e-001
2.885034e+003,2.969965e-001
2.886962e+003,3.249365e-001
2.888891e+003,3.539020e-001
2.890819e+003,3.835799e-001
2.892748e+003,4.136392e-001
2.894676e+003,4.438578e-001
2.896605e+003,4.747145e-001
2.898533e+003,5.074936e-001
2.900462e+003,5.442466e-001
2.902390e+003,5.880700e-001
2.904319e+003,6.433966e-001
2.906247e+003,7.152789e-001
2.908176e+003,8.075522e-001
2.910104e+003,9.190971e-001
2.912033e+003,1.035251e+000
2.913961e+003,1.117496e+000
2.915890e+003,1.121195e+000
2.917818e+003,1.045527e+000
2.919747e+003,9.344568e-001
2.921675e+003,8.235731e-001
2.923604e+003,7.247599e-001
2.925532e+003,6.394746e-001
2.927461e+003,5.649647e-001
2.929389e+003,4.981214e-001
2.931318e+003,4.373227e-001
2.933246e+003,3.824676e-001
2.935175e+003,3.336081e-001
2.937103e+003,2.908607e-001
2.939032e+003,2.541427e-001
2.940960e+003,2.234004e-001
2.942889e+003,1.984376e-001
2.944817e+003,1.792246e-001
2.946746e+003,1.655549e-001
2.948674e+003,1.568398e-001
2.950603e+003,1.516142e-001
2.952531e+003,1.477434e-001
2.954460e+003,1.433687e-001
2.956388e+003,1.374536e-001
2.958317e+003,1.297843e-001
2.960245e+003,1.206974e-001
2.962174e+003,1.104492e-001
2.964102e+003,9.962967e-002
2.966031e+003,8.879802e-002
2.967959e+003,7.861032e-002
2.969888e+003,6.957788e-002
2.971816e+003,6.181628e-002
2.973745e+003,5.521567e-002
2.975673e+003,4.968701e-002
2.977602e+003,4.502666e-002
2.979530e+003,4.110680e-002
2.981459e+003,3.778502e-002
2.983387e+003,3.515099e-002
2.985316e+003,3.308051e-002
2.987244e+003,3.141643e-002
2.989173e+003,3.019486e-002
2.991101e+003,2.965725e-002
2.993030e+003,2.990677e-002
2.994958e+003,3.086710e-002
2.996887e+003,3.239183e-002
2.998815e+003,3.435003e-002
3.000744e+003,3.619001e-002
3.002672e+003,3.756244e-002
3.004601e+003,3.815501e-002
3.006529e+003,3.764711e-002
3.008458e+003,3.606515e-002
3.010386e+003,3.379142e-002
3.012315e+003,3.093156e-002
3.014243e+003,2.780201e-002
3.016172e+003,2.482304e-002
3.018100e+003,2.217362e-002
3.020029e+003,1.999539e-002
3.021957e+003,1.824605e-002
3.023886e+003,1.686008e-002
3.025814e+003,1.574620e-002
3.027743e+003,1.479701e-002
3.029671e+003,1.410042e-002
3.031600e+003,1.357313e-002
3.033528e+003,1.302100e-002
3.035457e+003,1.243062e-002
3.037385e+003,1.194126e-002
3.039314e+003,1.150761e-002
3.041242e+003,1.115062e-002
3.043171e+003,1.069945e-002
3.045099e+003,1.031577e-002
3.047028e+003,1.009484e-002
3.048956e+003,9.906603e-003
3.050885e+003,9.655123e-003
3.052813e+003,9.470514e-003
3.054742e+003,9.342948e-003
3.056670e+003,9.130034e-003
3.058599e+003,8.995872e-003
3.060527e+003,8.889567e-003
3.062456e+003,8.783218e-003
3.064384e+003,8.691620e-003
3.066313e+003,8.501501e-003
3.068241e+003,8.471007e-003
3.070170e+003,8.388989e-003
3.072098e+003,8.180998e-003
3.074027e+003,8.044345e-003
3.075955e+003,7.835803e-003
3.077884e+003,7.544876e-003
3.079812e+003,7.385587e-003
3.081741e+003,7.233276e-003
3.083669e+003,7.087247e-003
3.085598e+003,6.883003e-003
3.087526e+003,6.617113e-003
3.089455e+003,6.444857e-003
3.091383e+003,6.343273e-003
3.093312e+003,6.238519e-003
3.095240e+003,6.051727e-003
3.097169e+003,5.732577e-003
3.099097e+003,5.372416e-003
3.101026e+003,5.162496e-003
3.102954e+003,5.112469e-003
3.104883e+003,4.956700e-003
3.106811e+003,4.751548e-003
3.108740e+003,4.593657e-003
3.110668e+003,4.470685e-003
3.112597e+003,4.336255e-003
3.114525e+003,4.233958e-003
3.116454e+003,4.246704e-003
3.118382e+003,4.201526e-003
3.120311e+003,4.129650e-003
3.122239e+003,4.139362e-003
3.124168e+003,4.102696e-003
3.126096e+003,4.045935e-003
3.128025e+003,3.985420e-003
3.129953e+003,3.898107e-003
3.131882e+003,3.856461e-003
3.133810e+003,3.995512e-003
3.135739e+003,4.013430e-003
3.137667e+003,3.980568e-003
3.139596e+003,3.941908e-003
3.141524e+003,3.805716e-003
3.143453e+003,3.731331e-003
3.145381e+003,3.775626e-003
3.147310e+003,3.821407e-003
3.149238e+003,3.878051e-003
3.151167e+003,3.933415e-003
3.153095e+003,3.939666e-003
3.155024e+003,3.917642e-003
3.156952e+003,3.901985e-003
3.158881e+003,3.902413e-003
3.160809e+003,3.987690e-003
3.162738e+003,4.036663e-003
3.164666e+003,4.092729e-003
3.166594e+003,4.176294e-003
3.168523e+003,4.188046e-003
3.170452e+003,4.147431e-003
3.172380e+003,4.247040e-003
3.174309e+003,4.281567e-003
3.176237e+003,4.347295e-003
3.178166e+003,4.423182e-003
3.180094e+003,4.514758e-003
3.182022e+003,4.589165e-003
3.183951e+003,4.622197e-003
3.185880e+003,4.591573e-003
3.187808e+003,4.470903e-003
3.189737e+003,4.378263e-003
3.191665e+003,4.485648e-003
3.193594e+003,4.593896e-003
3.195522e+003,4.511269e-003
3.197450e+003,4.535329e-003
3.199379e+003,4.563814e-003
3.201308e+003,4.453758e-003
3.203236e+003,4.372599e-003
3.205165e+003,4.334528e-003
3.207093e+003,4.329035e-003
3.209021e+003,4.337484e-003
3.210950e+003,4.335223e-003
3.212878e+003,4.326539e-003
3.214807e+003,4.387977e-003
3.216736e+003,4.439175e-003
3.218664e+003,4.462201e-003
3.220593e+003,4.319740e-003
3.222521e+003,4.174052e-003
3.224449e+003,4.208533e-003
3.226378e+003,4.258672e-003
3.228307e+003,4.310869e-003
3.230235e+003,4.396517e-003
3.232164e+003,4.443033e-003
3.234092e+003,4.400402e-003
3.236021e+003,4.256940e-003
3.237949e+003,4.196241e-003
3.239877e+003,4.327489e-003
3.241806e+003,4.443739e-003
3.243735e+003,4.437655e-003
3.245663e+003,4.476687e-003
3.247592e+003,4.533073e-003
3.249520e+003,4.522329e-003
3.251448e+003,4.548162e-003
3.253377e+003,4.689833e-003
3.255305e+003,4.799506e-003
3.257234e+003,4.828406e-003
3.259163e+003,4.792910e-003
3.261091e+003,4.816912e-003
3.263020e+003,4.922308e-003
3.264948e+003,4.977813e-003
3.266876e+003,4.974686e-003
3.268805e+003,4.960947e-003
3.270733e+003,5.056696e-003
3.272662e+003,5.242541e-003
3.274591e+003,5.352296e-003
3.276519e+003,5.299667e-003
3.278448e+003,5.196638e-003
3.280376e+003,5.310182e-003
3.282304e+003,5.428474e-003
3.284233e+003,5.457876e-003
3.286161e+003,5.405428e-003
3.288090e+003,5.408784e-003
3.290019e+003,5.447462e-003
3.291947e+003,5.476909e-003
3.293875e+003,5.493872e-003
3.295804e+003,5.511602e-003
3.297732e+003,5.439296e-003
3.299661e+003,5.384075e-003
3.301589e+003,5.468979e-003
3.303518e+003,5.502811e-003
3.305447e+003,5.463414e-003
3.307375e+003,5.485464e-003
3.309303e+003,5.545460e-003
3.311232e+003,5.503057e-003
3.313160e+003,5.467756e-003
3.315089e+003,5.516421e-003
3.317018e+003,5.579473e-003
3.318946e+003,5.490445e-003
3.320875e+003,5.429143e-003
3.322803e+003,5.415415e-003
3.324731e+003,5.440848e-003
3.326660e+003,5.449316e-003
3.328588e+003,5.462136e-003
3.330517e+003,5.543344e-003
3.332446e+003,5.549451e-003
3.334374e+003,5.551746e-003
3.336302e+003,5.518740e-003
3.338231e+003,5.526135e-003
3.340159e+003,5.510014e-003
3.342088e+003,5.455239e-003
3.344016e+003,5.494222e-003
3.345945e+003,5.479231e-003
3.347874e+003,5.506204e-003
3.349802e+003,5.539007e-003
3.351730e+003,5.468573e-003
3.353659e+003,5.478974e-003
3.355587e+003,5.503889e-003
3.357516e+003,5.501991e-003
3.359444e+003,5.522197e-003
3.361373e+003,5.564211e-003
3.363302e+003,5.484460e-003
3.365230e+003,5.518988e-003
3.367158e+003,5.587621e-003
3.369087e+003,5.650587e-003
3.371015e+003,5.728744e-003
3.372944e+003,5.732868e-003
3.374872e+003,5.671442e-003
3.376801e+003,5.614037e-003
3.378729e+003,5.655358e-003
3.380658e+003,5.711116e-003
3.382586e+003,5.770475e-003
3.384515e+003,5.769042e-003
3.386443e+003,5.686969e-003
3.388372e+003,5.814748e-003
3.390300e+003,6.018968e-003
3.392229e+003,6.143425e-003
3.394157e+003,6.085785e-003
3.396086e+003,6.007824e-003
3.398014e+003,5.956151e-003
3.399943e+003,5.794050e-003
3.401871e+003,5.541874e-003
3.403800e+003,5.359882e-003
3.405728e+003,5.291425e-003
3.407657e+003,5.221773e-003
3.409585e+003,5.241562e-003
3.411514e+003,5.322238e-003
3.413442e+003,5.292799e-003
3.415371e+003,5.096387e-003
3.417299e+003,4.922805e-003
3.419228e+003,5.024144e-003
3.421156e+003,5.180137e-003
3.423085e+003,5.186584e-003
3.425013e+003,5.157487e-003
3.426942e+003,5.176142e-003
3.428870e+003,5.107475e-003
3.430799e+003,5.073542e-003
3.432727e+003,5.097328e-003
3.434656e+003,5.171167e-003
3.436584e+003,5.243851e-003
3.438513e+003,5.218776e-003
3.440441e+003,5.156161e-003
3.442370e+003,5.165815e-003
3.444298e+003,5.108725e-003
3.446227e+003,5.247088e-003
3.448155e+003,5.496608e-003
3.450084e+003,5.370090e-003
3.452012e+003,5.325938e-003
3.453941e+003,5.525580e-003
3.455869e+003,5.476236e-003
3.457798e+003,5.420614e-003
3.459726e+003,5.430624e-003
3.461655e+003,5.580189e-003
3.463583e+003,5.750118e-003
3.465512e+003,5.725579e-003
3.467440e+003,5.814342e-003
3.469369e+003,5.846841e-003
3.471297e+003,5.744288e-003
3.473226e+003,5.668236e-003
3.475154e+003,5.650939e-003
3.477083e+003,5.487286e-003
3.479011e+003,5.290423e-003
3.480940e+003,5.286200e-003
3.482868e+003,5.375259e-003
3.484797e+003,5.230250e-003
3.486725e+003,5.015919e-003
3.488654e+003,4.906429e-003
3.490582e+003,4.809503e-003
3.492511e+003,4.738076e-003
3.494439e+003,4.653638e-003
3.496368e+003,4.665578e-003
3.498296e+003,4.621875e-003
3.500225e+003,4.437787e-003
3.502153e+003,4.479283e-003
3.504082e+003,4.488489e-003
3.506010e+003,4.233910e-003
3.507939e+003,4.186954e-003
3.509867e+003,4.351841e-003
3.511796e+003,4.285229e-003
3.513724e+003,4.120121e-003
3.515653e+003,4.118178e-003
3.517581e+003,4.192999e-003
3.519510e+003,4.088355e-003
3.521438e+003,3.845463e-003
3.523367e+003,3.941083e-003
3.525295e+003,3.980640e-003
3.527224e+003,3.965646e-003
3.529152e+003,3.975809e-003
3.531081e+003,3.743945e-003
3.533009e+003,3.385786e-003
3.534938e+003,3.398970e-003
3.536866e+003,3.650479e-003
3.538795e+003,3.427677e-003
3.540723e+003,3.122097e-003
3.542652e+003,3.081614e-003
3.544580e+003,3.069708e-003
3.546509e+003,3.192205e-003
3.548437e+003,3.113611e-003
3.550366e+003,2.779197e-003
3.552294e+003,2.733743e-003
3.554223e+003,2.811534e-003
3.556151e+003,2.618618e-003
3.558080e+003,2.364691e-003
3.560008e+003,2.388023e-003
3.561937e+003,2.182843e-003
3.563865e+003,1.575140e-003
3.565794e+003,1.700686e-003
3.567722e+003,2.690909e-003
3.569651e+003,2.312338e-003
3.571579e+003,1.668541e-003
3.573508e+003,1.399431e-003
3.575436e+003,1.372293e-003
3.577365e+003,1.382394e-003
3.579293e+003,1.505222e-003
3.581222e+003,1.499135e-003
3.583150e+003,1.117675e-003
3.585079e+003,6.356873e-004
3.587007e+003,1.475181e-003
3.588936e+003,2.076387e-003
3.590864e+003,1.398725e-003
3.592793e+003,1.142913e-003
3.594721e+003,1.447860e-003
3.596650e+003,1.610415e-003
3.598578e+003,1.719184e-003
3.600507e+003,2.394330e-003
3.602435e+003,2.707556e-003
3.604364e+003,2.089441e-003
3.606292e+003,1.770183e-003
3.608221e+003,2.488224e-003
3.610149e+003,2.255239e-003
3.612078e+003,1.486171e-003
3.614006e+003,1.464114e-003
3.615935e+003,1.171986e-003
3.617863e+003,1.551697e-003
3.619792e+003,2.146384e-003
3.621720e+003,1.554837e-003
3.623649e+003,5.315393e-004
3.625577e+003,-6.618407e-004
3.627506e+003,-1.167722e-003
3.629434e+003,1.333179e-003
3.631363e+003,1.492396e-003
3.633291e+003,8.775685e-004
3.635220e+003,8.646231e-004
3.637148e+003,5.892683e-004
3.639077e+003,5.782824e-004
3.641005e+003,7.711947e-004
3.642934e+003,5.391315e-004
3.644862e+003,-3.124345e-004
3.646791e+003,-7.167701e-004
3.648719e+003,7.749945e-004
3.650648e+003,2.328238e-003
3.652576e+003,1.086887e-003
3.654505e+003,-1.481436e-004
3.656433e+003,1.812857e-004
3.658362e+003,4.752856e-004
3.660290e+003,3.510676e-004
3.662219e+003,3.351606e-004
3.664147e+003,2.316944e-005
3.666076e+003,-8.067712e-004
3.668004e+003,-1.225745e-003
3.669933e+003,3.119726e-004
3.671861e+003,1.191627e-004
3.673790e+003,-1.185047e-003
3.675718e+003,5.378537e-004
3.677647e+003,1.128320e-003
3.679575e+003,7.652249e-004
3.681504e+003,2.888367e-004
3.683432e+003,-5.217884e-004
3.685361e+003,-1.406781e-003
3.687289e+003,-2.048442e-003
3.689218e+003,-6.369837e-004
3.691146e+003,9.215269e-004
3.693075e+003,5.426463e-004
3.695003e+003,-1.544096e-004
3.696932e+003,-4.746486e-004
3.698860e+003,-9.092186e-004
3.700789e+003,-7.409044e-004
3.702717e+003,-2.952777e-004
3.704646e+003,-4.240144e-004
3.706574e+003,-8.870754e-004
3.708503e+003,-1.455383e-003
3.710431e+003,-7.296074e-004
3.712360e+003,6.407201e-004
3.714288e+003,3.416259e-004
3.716217e+003,-6.149802e-004
3.718145e+003,-1.205245e-003
3.720074e+003,-1.153147e-003
3.722002e+003,-7.515885e-004
3.723931e+003,-4.995242e-005
3.725859e+003,2.574828e-004
3.727788e+003,-1.797862e-004
3.729716e+003,-1.299297e-003
3.731645e+003,-1.484495e-003
3.733573e+003,-7.038899e-004
3.735502e+003,8.741580e-005
3.737430e+003,8.588042e-004
3.739359e+003,7.174481e-004
3.741287e+003,-4.189387e-004
3.743216e+003,-1.495274e-003
3.745144e+003,4.855916e-005
3.747073e+003,-4.255790e-004
3.749001e+003,-1.266694e-003
3.750930e+003,1.105927e-004
3.752858e+003,8.829851e-004
3.754787e+003,1.405906e-004
3.756715e+003,-3.577117e-004
3.758644e+003,1.687948e-004
3.760572e+003,4.758984e-004
3.762501e+003,-2.062861e-004
3.764429e+003,-5.194359e-004
3.766358e+003,-1.443569e-004
3.768286e+003,-5.133823e-005
3.770215e+003,5.520415e-004
3.772143e+003,3.726315e-004
3.774072e+003,-4.689582e-005
3.776000e+003,-4.122704e-004
3.777929e+003,-7.280055e-004
3.779857e+003,5.787238e-006
3.781786e+003,6.376021e-005
3.783714e+003,-2.387315e-004
3.785643e+003,1.614559e-004
3.787571e+003,1.268201e-004
3.789500e+003,6.701984e-005
3.791428e+003,-6.836094e-005
3.793357e+003,-6.022751e-004
3.795285e+003,-3.480688e-004
3.797214e+003,2.001226e-005
3.799142e+003,-8.459594e-004
3.801071e+003,-2.001282e-004
3.802999e+003,7.062592e-004
3.804927e+003,-1.707543e-004
3.806856e+003,1.014117e-004
3.808785e+003,5.350113e-004
3.810713e+003,1.750533e-004
3.812642e+003,-5.888827e-004
3.814570e+003,-9.465590e-004
3.816499e+003,-1.659747e-004
3.818427e+003,-8.783955e-004
3.820355e+003,-6.643776e-004
3.822284e+003,1.285288e-003
3.824213e+003,7.661693e-004
3.826141e+003,6.036367e-004
3.828070e+003,4.370790e-004
3.829998e+003,-5.307235e-004
3.831927e+003,-6.211214e-004
3.833855e+003,-2.040192e-004
3.835783e+003,-2.420116e-004
3.837712e+003,4.825536e-004
3.839641e+003,1.193602e-003
3.841569e+003,1.277637e-003
3.843498e+003,1.400944e-003
3.845426e+003,8.380525e-004
3.847354e+003,-3.009625e-004
3.849283e+003,-1.230959e-003
3.851211e+003,-2.090281e-003
3.853140e+003,4.094820e-004
3.855069e+003,2.073200e-003
3.856997e+003,1.253627e-003
3.858926e+003,3.624111e-004
3.860854e+003,-3.639795e-004
3.862782e+003,-3.101602e-004
3.864711e+003,5.016308e-004
3.866640e+003,-1.197681e-006
3.868568e+003,-8.061286e-004
3.870497e+003,4.830547e-004
3.872425e+003,9.006001e-004
3.874354e+003,1.384655e-003
3.876282e+003,7.088259e-004
3.878210e+003,-5.092379e-004
3.880139e+003,-1.066923e-004
3.882068e+003,2.703499e-004
3.883996e+003,-1.092572e-004
3.885925e+003,7.671323e-004
3.887853e+003,5.619321e-004
3.889781e+003,-1.637693e-004
3.891710e+003,8.601248e-004
3.893638e+003,1.061952e-003
3.895567e+003,1.486167e-004
3.897496e+003,-4.821084e-004
3.899424e+003,-2.194438e-004
3.901353e+003,1.396239e-004
3.903281e+003,1.069305e-003
3.905209e+003,2.020475e-003
3.907138e+003,1.305871e-003
3.909066e+003,3.752504e-004
3.910995e+003,1.369361e-004
3.912924e+003,9.103306e-005
3.914852e+003,-9.929016e-005
3.916781e+003,2.572984e-004
3.918709e+003,5.664211e-004
3.920637e+003,5.626306e-004
3.922566e+003,4.555341e-004
3.924494e+003,6.271098e-004
3.926423e+003,4.253685e-004
3.928352e+003,-5.273335e-005
3.930280e+003,1.596194e-004
3.932208e+003,7.399619e-004
3.934137e+003,7.861089e-004
3.936065e+003,4.046075e-004
3.937994e+003,1.504347e-004
3.939922e+003,-1.141205e-004
3.941851e+003,9.068660e-005
3.943780e+003,4.296154e-004
3.945708e+003,2.364200e-004
3.947636e+003,1.564305e-004
3.949565e+003,4.250314e-004
3.951493e+003,4.050750e-004
3.953422e+003,2.104454e-004
3.955351e+003,1.457706e-004
3.957279e+003,7.689185e-005
3.959208e+003,-3.331155e-005
3.961136e+003,1.606196e-004
3.963064e+003,4.087631e-004
3.964993e+003,1.732465e-004
3.966921e+003,-2.774782e-005
3.968850e+003,7.864274e-005
3.970779e+003,3.438070e-005
3.972707e+003,-8.236617e-006
3.974635e+003,6.895326e-005
3.976564e+003,1.512859e-004
3.978492e+003,1.515485e-004
3.980421e+003,1.904275e-004
3.982349e+003,1.870561e-004
3.984278e+003,6.755441e-005
3.986207e+003,-8.696504e-005
3.988135e+003,-1.152474e-004
3.990063e+003,-9.544753e-005
3.991992e+003,-1.012068e-004
3.993920e+003,-4.995055e-005
3.995849e+003,1.012329e-004
3.997777e+003,7.974729e-005
3.999706e+003,1.772679e-005
4.001635e+003,0.000000e+000
