3.991992e+002,0.000000e+000
4.011277e+002,0.000000e+000
4.030562e+002,0.000000e+000
4.049846e+002,0.000000e+000
4.069131e+002,0.000000e+000
4.088416e+002,0.000000e+000
4.107701e+002,0.000000e+000
4.126986e+002,0.000000e+000
4.146271e+002,0.000000e+000
4.165556e+002,0.000000e+000
4.184841e+002,0.000000e+000
4.204126e+002,0.000000e+000
4.223411e+002,0.000000e+000
4.242697e+002,0.000000e+000
4.261982e+002,0.000000e+000
4.281266e+002,0.000000e+000
4.300551e+002,0.000000e+000
4.319836e+002,0.000000e+000
4.339121e+002,0.000000e+000
4.358406e+002,0.000000e+000
4.377691e+002,0.000000e+000
4.396976e+002,0.000000e+000
4.416261e+002,0.000000e+000
4.435546e+002,0.000000e+000
4.454831e+002,0.000000e+000
4.474116e+002,0.000000e+000
4.493401e+002,0.000000e+000
4.512686e+002,0.000000e+000
4.531971e+002,0.000000e+000
4.551256e+002,0.000000e+000
4.570541e+002,0.000000e+000
4.589826e+002,0.000000e+000
4.609111e+002,0.000000e+000
4.628396e+002,0.000000e+000
4.647681e+002,0.000000e+000
4.666966e+002,0.000000e+000
4.686251e+002,0.000000e+000
4.705536e+002,0.000000e+000
4.724821e+002,0.000000e+000
4.744106e+002,0.000000e+000
4.763391e+002,0.000000e+000
4.782676e+002,0.000000e+000
4.801961e+002,0.000000e+000
4.821246e+002,0.000000e+000
4.840531e+002,0.000000e+000
4.859816e+002,0.000000e+000
4.879101e+002,0.000000e+000
4.898386e+002,0.000000e+000
4.917671e+002,0.000000e+000
4.936956e+002,0.000000e+000
4.956241e+002,0.000000e+000
4.975526e+002,0.000000e+000
4.994811e+002,0.000000e+000
5.014096e+002,0.000000e+000
5.033381e+002,0.000000e+000
5.052666e+002,0.000000e+000
5.071951e+002,0.000000e+000
5.091236e+002,0.000000e+000
5.110521e+002,0.000000e+000
5.129806e+002,0.000000e+000
5.149091e+002,0.000000e+000
5.168376e+002,0.000000e+000
5.187661e+002,0.000000e+000
5.206946e+002,0.000000e+000
5.226230e+002,0.000000e+000
5.245516e+002,-1.247940e-004
5.264800e+002,-2.129698e-004
5.284086e+002,-2.045197e-004
5.303370e+002,-2.378583e-004
5.322656e+002,-2.416591e-004
5.341940e+002,-2.565280e-004
5.361226e+002,-1.188217e-004
5.380510e+002,-1.315598e-004
5.399796e+002,-2.164334e-004
5.419081e+002,-2.519339e-004
5.438365e+002,-2.884744e-004
5.457650e+002,-3.225271e-004
5.476935e+002,-2.106342e-004
5.496221e+002,-9.752053e-005
5.515505e+002,-8.337502e-005
5.534790e+002,-3.324472e-005
5.554075e+002,9.560923e-005
5.573361e+002,1.327367e-006
5.592645e+002,-1.640664e-004
5.611931e+002,-2.220434e-004
5.631215e+002,-2.061577e-004
5.650500e+002,-1.039575e-004
5.669785e+002,4.275760e-005
5.689070e+002,1.285870e-004
5.708355e+002,1.663624e-004
5.727640e+002,2.092663e-004
5.746925e+002,3.549331e-004
5.766210e+002,4.129256e-004
5.785495e+002,4.899276e-004
5.804780e+002,5.693890e-004
5.824065e+002,6.658046e-004
5.843350e+002,7.335916e-004
5.862635e+002,7.955313e-004
5.881920e+002,7.276488e-004
5.901205e+002,6.828611e-004
5.920490e+002,6.986540e-004
5.939775e+002,8.052639e-004
5.959060e+002,7.897166e-004
5.978345e+002,7.800062e-004
5.997630e+002,7.929732e-004
6.016915e+002,9.394728e-004
6.036200e+002,1.052951e-003
6.055485e+002,1.135195e-003
6.074770e+002,1.017482e-003
6.094055e+002,9.091557e-004
6.113340e+002,8.075384e-004
6.132625e+002,7.921921e-004
6.151910e+002,7.367304e-004
6.171195e+002,7.355853e-004
6.190480e+002,8.105852e-004
6.209765e+002,9.016027e-004
6.229050e+002,8.302140e-004
6.248335e+002,9.222480e-004
6.267620e+002,1.013437e-003
6.286905e+002,1.023644e-003
6.306190e+002,1.099611e-003
6.325475e+002,1.260649e-003
6.344760e+002,1.300967e-003
6.364045e+002,1.375127e-003
6.383330e+002,1.365319e-003
6.402615e+002,1.435797e-003
6.421899e+002,1.459016e-003
6.441185e+002,1.508646e-003
6.460470e+002,1.512584e-003
6.479755e+002,1.699466e-003
6.499039e+002,1.749225e-003
6.518325e+002,1.720053e-003
6.537610e+002,1.735434e-003
6.556895e+002,1.969272e-003
6.576179e+002,2.103294e-003
6.595464e+002,2.266967e-003
6.614750e+002,2.269820e-003
6.634034e+002,2.397989e-003
6.653319e+002,2.573977e-003
6.672604e+002,2.746523e-003
6.691890e+002,2.909783e-003
6.711174e+002,3.252514e-003
6.730460e+002,3.541599e-003
6.749745e+002,3.877551e-003
6.769030e+002,4.229249e-003
6.788314e+002,4.713765e-003
6.807599e+002,5.143865e-003
6.826885e+002,5.689751e-003
6.846169e+002,6.077715e-003
6.865454e+002,6.504651e-003
6.884739e+002,6.884421e-003
6.904025e+002,7.432591e-003
6.923309e+002,7.868594e-003
6.942594e+002,8.548344e-003
6.961879e+002,9.293621e-003
6.981165e+002,1.015852e-002
7.000449e+002,1.101557e-002
7.019734e+002,1.233845e-002
7.039019e+002,1.397156e-002
7.058304e+002,1.633952e-002
7.077589e+002,1.945052e-002
7.096874e+002,2.423103e-002
7.116159e+002,3.182983e-002
7.135444e+002,4.651702e-002
7.154729e+002,7.491485e-002
7.174014e+002,1.196530e-001
7.193299e+002,1.366224e-001
7.212584e+002,9.359375e-002
7.231869e+002,5.851678e-002
7.251154e+002,4.929850e-002
7.270439e+002,5.771455e-002
7.289724e+002,8.334344e-002
7.309009e+002,8.757108e-002
7.328294e+002,5.255146e-002
7.347579e+002,2.657376e-002
7.366864e+002,1.733691e-002
7.386149e+002,1.357349e-002
7.405434e+002,1.128124e-002
7.424719e+002,9.875326e-003
7.444004e+002,8.724211e-003
7.463289e+002,7.878831e-003
7.482574e+002,7.091922e-003
7.501859e+002,6.525608e-003
7.521144e+002,5.952877e-003
7.540428e+002,5.608838e-003
7.559714e+002,5.256268e-003
7.578999e+002,5.020498e-003
7.598284e+002,4.897899e-003
7.617568e+002,4.855736e-003
7.636854e+002,4.680092e-003
7.656139e+002,4.550513e-003
7.675424e+002,4.354291e-003
7.694709e+002,4.171359e-003
7.713994e+002,3.933882e-003
7.733279e+002,3.700262e-003
7.752563e+002,3.482905e-003
7.771849e+002,3.323523e-003
7.791134e+002,3.188068e-003
7.810419e+002,3.097522e-003
7.829703e+002,3.008035e-003
7.848989e+002,2.985964e-003
7.868274e+002,2.901930e-003
7.887559e+002,2.967254e-003
7.906843e+002,3.061013e-003
7.926129e+002,3.130453e-003
7.945414e+002,3.137056e-003
7.964698e+002,3.204533e-003
7.983983e+002,3.282951e-003
8.003268e+002,3.331805e-003
8.022554e+002,3.361763e-003
8.041838e+002,3.428908e-003
8.061123e+002,3.350254e-003
8.080408e+002,3.363363e-003
8.099694e+002,3.411692e-003
8.118978e+002,3.424651e-003
8.138263e+002,3.414502e-003
8.157548e+002,3.413177e-003
8.176833e+002,3.383149e-003
8.196118e+002,3.406569e-003
8.215403e+002,3.414922e-003
8.234689e+002,3.408432e-003
8.253973e+002,3.410557e-003
8.273258e+002,3.448848e-003
8.292543e+002,3.470667e-003
8.311829e+002,3.497367e-003
8.331113e+002,3.480867e-003
8.350398e+002,3.571729e-003
8.369683e+002,3.702594e-003
8.388969e+002,3.744612e-003
8.408253e+002,3.787657e-003
8.427538e+002,3.916134e-003
8.446823e+002,4.067971e-003
8.466108e+002,4.154785e-003
8.485393e+002,4.276165e-003
8.504678e+002,4.353041e-003
8.523963e+002,4.401109e-003
8.543248e+002,4.480556e-003
8.562533e+002,4.486055e-003
8.581818e+002,4.467166e-003
8.601103e+002,4.476737e-003
8.620388e+002,4.543920e-003
8.639673e+002,4.556554e-003
8.658958e+002,4.574441e-003
8.678243e+002,4.656253e-003
8.697528e+002,4.706718e-003
8.716813e+002,4.636212e-003
8.736098e+002,4.620059e-003
8.755383e+002,4.638331e-003
8.774668e+002,4.635353e-003
8.793953e+002,4.658624e-003
8.813238e+002,4.730240e-003
8.832523e+002,4.802587e-003
8.851808e+002,4.880777e-003
8.871093e+002,4.914929e-003
8.890378e+002,4.963372e-003
8.909663e+002,4.983927e-003
8.928948e+002,4.983937e-003
8.948232e+002,5.042238e-003
8.967518e+002,5.071366e-003
8.986803e+002,5.171787e-003
9.006088e+002,5.357750e-003
9.025372e+002,5.823337e-003
9.044658e+002,6.574037e-003
9.063943e+002,7.649876e-003
9.083228e+002,8.348703e-003
9.102512e+002,7.872911e-003
9.121797e+002,6.753020e-003
9.141083e+002,5.868637e-003
9.160367e+002,5.363189e-003
9.179653e+002,5.158579e-003
9.198937e+002,5.070512e-003
9.218223e+002,4.942515e-003
9.237507e+002,4.891161e-003
9.256793e+002,4.891959e-003
9.276077e+002,4.947003e-003
9.295363e+002,5.009861e-003
9.314647e+002,5.055740e-003
9.333932e+002,5.184074e-003
9.353217e+002,5.352475e-003
9.372502e+002,5.498999e-003
9.391787e+002,5.667626e-003
9.411072e+002,5.864589e-003
9.430358e+002,6.034025e-003
9.449642e+002,6.230090e-003
9.468928e+002,6.428781e-003
9.488212e+002,6.665322e-003
9.507498e+002,6.825466e-003
9.526782e+002,6.993560e-003
9.546068e+002,7.268418e-003
9.565352e+002,7.640251e-003
9.584637e+002,7.992484e-003
9.603922e+002,8.353037e-003
9.623207e+002,8.612529e-003
9.642492e+002,8.778254e-003
9.661777e+002,8.869519e-003
9.681062e+002,8.909196e-003
9.700347e+002,8.880856e-003
9.719632e+002,8.755691e-003
9.738917e+002,8.534635e-003
9.758202e+002,8.351410e-003
9.777487e+002,8.241468e-003
9.796772e+002,8.210680e-003
9.816057e+002,8.244797e-003
9.835342e+002,8.399221e-003
9.854627e+002,8.668104e-003
9.873912e+002,8.995606e-003
9.893197e+002,9.233339e-003
9.912482e+002,9.312127e-003
9.931767e+002,9.217233e-003
9.951052e+002,9.100324e-003
9.970337e+002,9.009464e-003
9.989622e+002,8.968425e-003
1.000891e+003,8.956968e-003
1.002819e+003,9.044592e-003
1.004748e+003,9.212196e-003
1.006676e+003,9.433107e-003
1.008605e+003,9.627707e-003
1.010533e+003,9.845594e-003
1.012462e+003,1.010816e-002
1.014390e+003,1.039801e-002
1.016319e+003,1.070146e-002
1.018247e+003,1.102053e-002
1.020176e+003,1.131754e-002
1.022104e+003,1.155723e-002
1.024033e+003,1.171269e-002
1.025961e+003,1.193043e-002
1.027890e+003,1.210731e-002
1.029818e+003,1.221018e-002
1.031747e+003,1.222725e-002
1.033675e+003,1.226354e-002
1.035604e+003,1.226338e-002
1.037532e+003,1.224143e-002
1.039461e+003,1.218806e-002
1.041389e+003,1.215546e-002
1.043318e+003,1.215672e-002
1.045246e+003,1.229571e-002
1.047175e+003,1.259477e-002
1.049103e+003,1.307438e-002
1.051032e+003,1.358279e-002
1.052960e+003,1.387114e-002
1.054889e+003,1.415656e-002
1.056817e+003,1.458441e-002
1.058746e+003,1.503315e-002
1.060674e+003,1.542765e-002
1.062603e+003,1.563924e-002
1.064531e+003,1.579430e-002
1.066460e+003,1.595017e-002
1.068388e+003,1.619580e-002
1.070317e+003,1.655003e-002
1.072245e+003,1.721289e-002
1.074174e+003,1.819347e-002
1.076102e+003,1.945993e-002
1.078031e+003,2.093849e-002
1.079959e+003,2.252979e-002
1.081888e+003,2.387163e-002
1.083816e+003,2.494974e-002
1.085745e+003,2.588596e-002
1.087673e+003,2.690048e-002
1.089602e+003,2.798868e-002
1.091530e+003,2.906207e-002
1.093459e+003,2.994446e-002
1.095387e+003,3.046812e-002
1.097316e+003,3.054866e-002
1.099244e+003,3.028373e-002
1.101173e+003,2.972866e-002
1.103101e+003,2.901266e-002
1.105030e+003,2.831219e-002
1.106958e+003,2.793084e-002
1.108887e+003,2.816358e-002
1.110815e+003,2.900330e-002
1.112744e+003,3.014261e-002
1.114672e+003,3.138878e-002
1.116601e+003,3.243414e-002
1.118529e+003,3.288845e-002
1.120458e+003,3.251314e-002
1.122386e+003,3.136147e-002
1.124315e+003,2.981005e-002
1.126243e+003,2.849564e-002
1.128172e+003,2.795782e-002
1.130100e+003,2.857652e-002
1.132029e+003,3.030565e-002
1.133957e+003,3.299909e-002
1.135885e+003,3.631439e-002
1.137814e+003,3.978838e-002
1.139743e+003,4.290712e-002
1.141671e+003,4.540493e-002
1.143600e+003,4.728418e-002
1.145528e+003,4.872255e-002
1.147457e+003,5.016685e-002
1.149385e+003,5.195064e-002
1.151314e+003,5.391832e-002
1.153242e+003,5.584211e-002
1.155171e+003,5.757974e-002
1.157099e+003,5.913943e-002
1.159028e+003,6.038655e-002
1.160956e+003,6.115921e-002
1.162885e+003,6.135631e-002
1.164813e+003,6.092190e-002
1.166742e+003,5.990690e-002
1.168670e+003,5.845697e-002
1.170599e+003,5.669930e-002
1.172527e+003,5.475126e-002
1.174456e+003,5.272656e-002
1.176384e+003,5.064232e-002
1.178313e+003,4.839771e-002
1.180241e+003,4.631298e-002
1.182170e+003,4.449560e-002
1.184098e+003,4.288703e-002
1.186027e+003,4.137963e-002
1.187955e+003,3.994246e-002
1.189884e+003,3.851290e-002
1.191812e+003,3.715932e-002
1.193740e+003,3.582121e-002
1.195669e+003,3.457846e-002
1.197598e+003,3.347342e-002
1.199526e+003,3.258815e-002
1.201455e+003,3.190671e-002
1.203383e+003,3.150629e-002
1.205312e+003,3.132270e-002
1.207240e+003,3.127804e-002
1.209168e+003,3.124758e-002
1.211097e+003,3.116085e-002
1.213026e+003,3.100500e-002
1.214954e+003,3.095460e-002
1.216883e+003,3.103427e-002
1.218811e+003,3.128503e-002
1.220740e+003,3.164645e-002
1.222668e+003,3.217852e-002
1.224596e+003,3.284261e-002
1.226525e+003,3.356725e-002
1.228453e+003,3.424653e-002
1.230382e+003,3.493125e-002
1.232311e+003,3.556943e-002
1.234239e+003,3.614043e-002
1.236167e+003,3.661274e-002
1.238096e+003,3.692895e-002
1.240025e+003,3.696290e-002
1.241953e+003,3.669888e-002
1.243882e+003,3.602602e-002
1.245810e+003,3.501781e-002
1.247739e+003,3.373247e-002
1.249667e+003,3.236007e-002
1.251595e+003,3.115893e-002
1.253524e+003,3.029181e-002
1.255453e+003,2.965143e-002
1.257381e+003,2.911521e-002
1.259310e+003,2.847812e-002
1.261238e+003,2.776377e-002
1.263167e+003,2.703480e-002
1.265095e+003,2.632784e-002
1.267023e+003,2.563422e-002
1.268952e+003,2.504728e-002
1.270880e+003,2.456756e-002
1.272809e+003,2.435335e-002
1.274738e+003,2.436198e-002
1.276666e+003,2.443502e-002
1.278594e+003,2.433083e-002
1.280523e+003,2.408738e-002
1.282451e+003,2.351138e-002
1.284380e+003,2.277204e-002
1.286308e+003,2.200257e-002
1.288237e+003,2.152201e-002
1.290166e+003,2.132548e-002
1.292094e+003,2.140292e-002
1.294022e+003,2.156411e-002
1.295951e+003,2.174529e-002
1.297879e+003,2.185765e-002
1.299808e+003,2.196047e-002
1.301736e+003,2.189725e-002
1.303665e+003,2.171742e-002
1.305594e+003,2.145634e-002
1.307522e+003,2.124729e-002
1.309450e+003,2.100582e-002
1.311379e+003,2.082465e-002
1.313307e+003,2.058645e-002
1.315236e+003,2.031653e-002
1.317164e+003,1.997946e-002
1.319093e+003,1.959475e-002
1.321021e+003,1.905181e-002
1.322950e+003,1.847985e-002
1.324878e+003,1.785833e-002
1.326807e+003,1.732682e-002
1.328735e+003,1.686670e-002
1.330664e+003,1.668881e-002
1.332592e+003,1.682049e-002
1.334521e+003,1.719018e-002
1.336449e+003,1.775049e-002
1.338378e+003,1.870953e-002
1.340306e+003,1.964376e-002
1.342235e+003,2.027075e-002
1.344163e+003,2.092478e-002
1.346092e+003,2.178039e-002
1.348021e+003,2.259186e-002
1.349949e+003,2.329326e-002
1.351877e+003,2.365990e-002
1.353806e+003,2.374686e-002
1.355734e+003,2.361781e-002
1.357663e+003,2.367253e-002
1.359591e+003,2.403221e-002
1.361520e+003,2.475368e-002
1.363448e+003,2.555689e-002
1.365377e+003,2.616102e-002
1.367305e+003,2.661944e-002
1.369234e+003,2.667342e-002
1.371162e+003,2.615767e-002
1.373091e+003,2.591881e-002
1.375019e+003,2.656231e-002
1.376948e+003,2.712393e-002
1.378876e+003,2.588590e-002
1.380805e+003,2.294179e-002
1.382733e+003,2.001367e-002
1.384662e+003,1.808691e-002
1.386590e+003,1.655418e-002
1.388519e+003,1.514120e-002
1.390447e+003,1.417128e-002
1.392376e+003,1.373599e-002
1.394304e+003,1.349344e-002
1.396233e+003,1.363595e-002
1.398161e+003,1.377758e-002
1.400090e+003,1.422538e-002
1.402018e+003,1.431927e-002
1.403947e+003,1.433400e-002
1.405875e+003,1.379499e-002
1.407804e+003,1.357587e-002
1.409732e+003,1.382120e-002
1.411661e+003,1.498307e-002
1.413589e+003,1.639136e-002
1.415518e+003,1.782556e-002
1.417446e+003,1.851601e-002
1.419375e+003,1.854211e-002
1.421303e+003,1.796286e-002
1.423232e+003,1.808570e-002
1.425160e+003,1.869870e-002
1.427089e+003,2.025860e-002
1.429017e+003,2.277780e-002
1.430946e+003,2.640944e-002
1.432874e+003,2.940468e-002
1.434803e+003,3.217403e-002
1.436731e+003,3.526348e-002
1.438660e+003,3.785925e-002
1.440588e+003,3.940665e-002
1.442517e+003,4.139151e-002
1.444445e+003,4.302171e-002
1.446374e+003,4.518690e-002
1.448302e+003,4.838642e-002
1.450231e+003,5.314495e-002
1.452159e+003,6.072931e-002
1.454088e+003,7.055106e-002
1.456016e+003,8.185785e-002
1.457945e+003,1.163075e-001
1.459873e+003,1.790404e-001
1.461802e+003,2.227550e-001
1.463730e+003,1.945966e-001
1.465659e+003,1.354416e-001
1.467587e+003,1.235265e-001
1.469516e+003,1.253893e-001
1.471444e+003,1.496891e-001
1.473373e+003,1.404654e-001
1.475301e+003,7.747695e-002
1.477230e+003,3.487200e-002
1.479158e+003,2.243341e-002
1.481087e+003,1.678143e-002
1.483015e+003,1.405228e-002
1.484944e+003,1.209590e-002
1.486872e+003,1.152761e-002
1.488801e+003,1.033735e-002
1.490729e+003,9.950818e-003
1.492658e+003,8.896825e-003
1.494586e+003,8.888615e-003
1.496515e+003,8.092497e-003
1.498443e+003,7.814356e-003
1.500372e+003,6.915500e-003
1.502300e+003,6.696193e-003
1.504229e+003,6.186230e-003
1.506157e+003,6.710683e-003
1.508086e+003,5.850260e-003
1.510014e+003,5.737370e-003
1.511943e+003,5.193608e-003
1.513871e+003,5.287495e-003
1.515800e+003,5.155394e-003
1.517728e+003,5.357138e-003
1.519657e+003,5.042601e-003
1.521585e+003,5.335446e-003
1.523514e+003,4.739092e-003
1.525442e+003,4.837523e-003
1.527371e+003,4.459109e-003
1.529299e+003,4.394602e-003
1.531228e+003,4.237217e-003
1.533156e+003,4.530861e-003
1.535085e+003,4.242216e-003
1.537013e+003,4.381998e-003
1.538942e+003,4.413594e-003
1.540870e+003,4.868140e-003
1.542799e+003,4.357630e-003
1.544727e+003,4.321850e-003
1.546656e+003,3.879423e-003
1.548584e+003,3.981009e-003
1.550513e+003,3.994633e-003
1.552441e+003,4.082128e-003
1.554370e+003,4.029645e-003
1.556298e+003,4.153393e-003
1.558227e+003,3.861070e-003
1.560155e+003,3.842358e-003
1.562084e+003,3.593097e-003
1.564012e+003,3.662039e-003
1.565941e+003,3.566144e-003
1.567869e+003,3.752619e-003
1.569798e+003,3.752137e-003
1.571726e+003,3.679705e-003
1.573655e+003,3.597831e-003
1.575583e+003,3.888663e-003
1.577512e+003,3.752491e-003
1.579440e+003,3.678605e-003
1.581369e+003,3.629354e-003
1.583297e+003,3.725207e-003
1.585226e+003,3.731736e-003
1.587154e+003,3.817154e-003
1.589083e+003,3.748509e-003
1.591011e+003,3.798228e-003
1.592940e+003,3.731778e-003
1.594868e+003,3.728796e-003
1.596797e+003,3.604117e-003
1.598725e+003,3.656387e-003
1.600654e+003,3.628624e-003
1.602582e+003,3.679139e-003
1.604511e+003,3.563080e-003
1.606439e+003,3.594009e-003
1.608368e+003,3.542291e-003
1.610296e+003,3.528267e-003
1.612225e+003,3.451152e-003
1.614153e+003,3.623327e-003
1.616082e+003,3.726119e-003
1.618010e+003,3.815071e-003
1.619939e+003,3.714404e-003
1.621867e+003,3.833063e-003
1.623796e+003,3.866317e-003
1.625724e+003,3.900759e-003
1.627653e+003,3.920394e-003
1.629581e+003,3.996223e-003
1.631510e+003,4.028214e-003
1.633438e+003,4.225848e-003
1.635367e+003,4.438484e-003
1.637295e+003,4.746793e-003
1.639224e+003,4.842797e-003
1.641152e+003,5.069287e-003
1.643081e+003,5.129154e-003
1.645009e+003,5.410834e-003
1.646938e+003,5.787222e-003
1.648866e+003,5.832680e-003
1.650795e+003,5.732583e-003
1.652723e+003,6.153394e-003
1.654652e+003,6.037957e-003
1.656580e+003,5.791205e-003
1.658509e+003,5.444051e-003
1.660437e+003,5.207069e-003
1.662366e+003,4.866460e-003
1.664294e+003,4.657166e-003
1.666223e+003,4.547190e-003
1.668151e+003,4.686733e-003
1.670080e+003,4.621215e-003
1.672008e+003,4.544469e-003
1.673937e+003,4.456185e-003
1.675865e+003,4.582666e-003
1.677794e+003,4.586096e-003
1.679722e+003,4.873948e-003
1.681651e+003,5.074973e-003
1.683579e+003,5.354602e-003
1.685508e+003,5.332981e-003
1.687436e+003,5.472437e-003
1.689365e+003,5.574322e-003
1.691293e+003,5.847540e-003
1.693222e+003,6.108196e-003
1.695150e+003,6.794328e-003
1.697079e+003,7.626532e-003
1.699007e+003,8.003866e-003
1.700936e+003,9.052994e-003
1.702864e+003,9.683494e-003
1.704793e+003,1.028856e-002
1.706721e+003,1.122595e-002
1.708650e+003,1.188320e-002
1.710578e+003,1.269986e-002
1.712507e+003,1.352357e-002
1.714435e+003,1.452433e-002
1.716364e+003,1.563519e-002
1.718292e+003,1.755041e-002
1.720221e+003,1.929686e-002
1.722149e+003,2.135554e-002
1.724078e+003,2.481398e-002
1.726006e+003,2.897868e-002
1.727935e+003,3.411361e-002
1.729863e+003,4.181539e-002
1.731792e+003,4.989950e-002
1.733720e+003,6.453059e-002
1.735649e+003,8.516178e-002
1.737577e+003,9.679321e-002
1.739506e+003,1.161289e-001
1.741434e+003,1.332193e-001
1.743363e+003,1.442015e-001
1.745291e+003,1.487388e-001
1.747220e+003,1.459935e-001
1.749148e+003,1.342701e-001
1.751077e+003,1.153357e-001
1.753005e+003,9.472121e-002
1.754934e+003,7.918993e-002
1.756862e+003,6.020223e-002
1.758791e+003,4.551374e-002
1.760719e+003,3.544719e-002
1.762648e+003,2.560417e-002
1.764576e+003,2.001473e-002
1.766505e+003,1.654780e-002
1.768433e+003,1.346773e-002
1.770362e+003,1.171611e-002
1.772290e+003,9.887449e-003
1.774219e+003,8.224174e-003
1.776147e+003,7.317131e-003
1.778076e+003,6.708122e-003
1.780004e+003,6.227642e-003
1.781933e+003,5.611092e-003
1.783861e+003,5.147590e-003
1.785790e+003,4.713721e-003
1.787718e+003,4.374997e-003
1.789646e+003,4.157923e-003
1.791575e+003,4.099714e-003
1.793504e+003,3.686797e-003
1.795432e+003,3.523557e-003
1.797361e+003,3.377267e-003
1.799289e+003,3.261870e-003
1.801218e+003,3.021142e-003
1.803146e+003,2.675348e-003
1.805074e+003,2.351426e-003
1.807003e+003,2.267371e-003
1.808932e+003,2.155877e-003
1.810860e+003,1.910721e-003
1.812789e+003,1.500898e-003
1.814717e+003,1.224514e-003
1.816646e+003,9.555522e-004
1.818574e+003,1.114215e-003
1.820502e+003,1.254750e-003
1.822431e+003,1.317355e-003
1.824360e+003,1.187748e-003
1.826288e+003,1.108109e-003
1.828217e+003,9.834514e-004
1.830145e+003,8.250256e-004
1.832073e+003,3.931192e-004
1.834002e+003,3.506790e-004
1.835931e+003,2.665427e-004
1.837859e+003,2.176110e-004
1.839788e+003,1.262224e-004
1.841716e+003,2.509076e-004
1.843645e+003,1.352255e-004
1.845573e+003,2.504676e-004
1.847501e+003,2.186543e-004
1.849430e+003,2.224301e-005
1.851359e+003,-3.213158e-004
1.853287e+003,-2.803169e-004
1.855216e+003,-4.220037e-004
1.857144e+003,-4.948503e-004
1.859073e+003,-5.341191e-004
1.861001e+003,-2.806727e-004
1.862929e+003,-5.477720e-004
1.864858e+003,-6.532592e-004
1.866787e+003,-6.845111e-004
1.868715e+003,-5.044336e-004
1.870644e+003,-5.016138e-004
1.872572e+003,-3.408550e-004
1.874500e+003,-4.991388e-004
1.876429e+003,-5.875900e-004
1.878357e+003,-7.756690e-004
1.880286e+003,-7.587736e-004
1.882215e+003,-9.713524e-004
1.884143e+003,-8.555362e-004
1.886072e+003,-8.722290e-004
1.888000e+003,-7.307320e-004
1.889928e+003,-6.423644e-004
1.891857e+003,-3.675995e-004
1.893785e+003,-2.609731e-004
1.895714e+003,-4.216796e-005
1.897643e+003,-2.133052e-004
1.899571e+003,-7.591699e-005
1.901500e+003,-7.434958e-005
1.903428e+003,-7.279310e-005
1.905356e+003,-7.124618e-005
1.907285e+003,-6.970740e-005
1.909213e+003,-6.817910e-005
1.911142e+003,-6.666104e-005
1.913071e+003,-6.515137e-005
1.914999e+003,-6.365264e-005
1.916927e+003,-6.216229e-005
1.918856e+003,-6.068242e-005
1.920784e+003,-5.921186e-005
1.922713e+003,-5.775061e-005
1.924641e+003,-5.629938e-005
1.926570e+003,-5.485769e-005
1.928499e+003,-5.342509e-005
1.930427e+003,-5.200296e-005
1.932355e+003,-5.058991e-005
1.934284e+003,-4.918640e-005
1.936212e+003,-4.779221e-005
1.938141e+003,-4.640897e-005
1.940070e+003,-4.503364e-005
1.941998e+003,-4.366809e-005
1.943927e+003,-4.231394e-005
1.945855e+003,-4.096609e-005
1.947783e+003,-3.963057e-005
1.949712e+003,-3.830506e-005
1.951640e+003,-3.698631e-005
1.953569e+003,-3.567967e-005
1.955498e+003,-3.438117e-005
1.957426e+003,-3.309315e-005
1.959354e+003,-3.181514e-005
1.961283e+003,-3.054575e-005
1.963211e+003,-2.928567e-005
1.965140e+003,-2.803653e-005
1.967068e+003,-2.679601e-005
1.968997e+003,-2.556480e-005
1.970926e+003,-2.434454e-005
1.972854e+003,-2.313289e-005
1.974782e+003,-2.193055e-005
1.976711e+003,-2.073916e-005
1.978639e+003,-1.955545e-005
1.980568e+003,-1.838268e-005
1.982496e+003,-1.721946e-005
1.984425e+003,-1.606531e-005
1.986354e+003,-1.492072e-005
1.988282e+003,-1.378637e-005
1.990210e+003,-1.266017e-005
1.992139e+003,-1.154561e-005
1.994067e+003,-1.043989e-005
1.995996e+003,-9.342562e-006
1.997924e+003,-8.256640e-006
1.999853e+003,-7.179100e-006
2.001781e+003,-6.110640e-006
2.003710e+003,-5.053589e-006
2.005638e+003,-4.004920e-006
2.007567e+003,-2.966262e-006
2.009495e+003,-1.937151e-006
2.011424e+003,-9.171199e-007
2.013352e+003,9.220093e-008
2.015281e+003,1.092907e-006
2.017209e+003,2.083834e-006
2.019138e+003,3.065448e-006
2.021066e+003,4.035886e-006
2.022995e+003,4.997943e-006
2.024923e+003,5.950918e-006
2.026852e+003,6.893650e-006
2.028781e+003,7.826835e-006
2.030709e+003,8.750707e-006
2.032637e+003,9.663636e-006
2.034566e+003,1.056981e-005
2.036494e+003,1.146412e-005
2.038423e+003,1.234887e-005
2.040351e+003,1.322525e-005
2.042280e+003,1.409044e-005
2.044208e+003,1.494726e-005
2.046137e+003,1.579430e-005
2.048065e+003,1.663156e-005
2.049994e+003,1.745950e-005
2.051922e+003,1.827721e-005
2.053851e+003,1.908466e-005
2.055779e+003,1.988374e-005
2.057708e+003,2.067396e-005
2.059636e+003,2.145348e-005
2.061565e+003,2.222368e-005
2.063493e+003,2.298388e-005
2.065422e+003,2.373452e-005
2.067350e+003,2.447609e-005
2.069279e+003,2.520788e-005
2.071207e+003,2.592895e-005
2.073136e+003,2.664234e-005
2.075064e+003,2.734549e-005
2.076993e+003,2.803793e-005
2.078921e+003,2.872339e-005
2.080850e+003,2.939673e-005
2.082778e+003,3.006076e-005
2.084707e+003,3.071642e-005
2.086635e+003,3.136089e-005
2.088564e+003,3.199722e-005
2.090492e+003,3.262330e-005
2.092421e+003,3.323983e-005
2.094349e+003,3.384729e-005
2.096278e+003,3.444450e-005
2.098206e+003,3.503100e-005
2.100135e+003,3.561028e-005
2.102063e+003,3.617862e-005
2.103992e+003,3.673742e-005
2.105920e+003,3.728690e-005
2.107849e+003,3.782753e-005
2.109777e+003,3.835652e-005
2.111706e+003,3.887713e-005
2.113634e+003,3.938843e-005
2.115563e+003,3.988948e-005
2.117491e+003,4.038215e-005
2.119420e+003,4.086387e-005
2.121348e+003,4.133536e-005
2.123277e+003,4.180009e-005
2.125205e+003,4.225294e-005
2.127134e+003,4.269625e-005
2.129062e+003,4.313118e-005
2.130991e+003,4.355493e-005
2.132919e+003,4.397053e-005
2.134848e+003,4.437659e-005
2.136776e+003,4.477147e-005
2.138705e+003,4.515843e-005
2.140633e+003,4.553469e-005
2.142562e+003,4.590140e-005
2.144490e+003,4.625926e-005
2.146419e+003,4.660664e-005
2.148347e+003,4.694494e-005
2.150276e+003,4.727370e-005
2.152204e+003,4.759314e-005
2.154133e+003,4.790165e-005
2.156061e+003,4.820130e-005
2.157990e+003,4.849210e-005
2.159918e+003,4.877243e-005
2.161847e+003,4.904484e-005
2.163775e+003,4.930561e-005
2.165704e+003,4.955730e-005
2.167632e+003,4.980038e-005
2.169561e+003,5.003251e-005
2.171489e+003,5.025603e-005
2.173418e+003,5.047000e-005
2.175346e+003,5.067326e-005
2.177275e+003,5.086791e-005
2.179203e+003,5.105231e-005
2.181132e+003,5.122693e-005
2.183060e+003,5.139271e-005
2.184989e+003,5.154917e-005
2.186917e+003,5.169446e-005
2.188846e+003,5.183136e-005
2.190774e+003,5.195942e-005
2.192703e+003,5.207583e-005
2.194631e+003,5.218387e-005
2.196560e+003,5.228259e-005
2.198488e+003,5.237130e-005
2.200417e+003,5.245022e-005
2.202345e+003,5.252007e-005
2.204274e+003,5.257875e-005
2.206202e+003,5.263113e-005
2.208131e+003,5.267141e-005
2.210059e+003,5.270122e-005
2.211988e+003,5.272473e-005
2.213916e+003,5.273614e-005
2.215845e+003,5.273917e-005
2.217773e+003,5.273148e-005
2.219702e+003,5.271402e-005
2.221630e+003,5.268794e-005
2.223559e+003,5.265279e-005
2.225487e+003,5.260622e-005
2.227416e+003,5.255127e-005
2.229344e+003,5.248701e-005
2.231273e+003,5.241157e-005
2.233201e+003,5.232776e-005
2.235130e+003,5.223509e-005
2.237058e+003,5.213078e-005
2.238987e+003,5.201809e-005
2.240915e+003,5.189632e-005
2.242844e+003,5.176431e-005
2.244772e+003,5.162251e-005
2.246701e+003,5.147187e-005
2.248629e+003,5.130982e-005
2.250558e+003,5.114148e-005
2.252486e+003,5.096081e-005
2.254415e+003,5.076989e-005
2.256343e+003,5.057268e-005
2.258272e+003,5.036313e-005
2.260200e+003,5.014543e-005
2.262129e+003,4.991703e-005
2.264057e+003,4.967884e-005
2.265986e+003,4.943227e-005
2.267914e+003,4.917523e-005
2.269843e+003,4.890910e-005
2.271771e+003,4.863343e-005
2.273700e+003,4.834752e-005
2.275628e+003,4.805229e-005
2.277557e+003,4.774774e-005
2.279485e+003,4.743296e-005
2.281414e+003,4.711002e-005
2.283342e+003,4.677614e-005
2.285271e+003,4.643342e-005
2.287199e+003,4.608044e-005
2.289128e+003,4.571816e-005
2.291056e+003,4.534656e-005
2.292985e+003,4.496495e-005
2.294913e+003,4.457380e-005
2.296842e+003,4.417356e-005
2.298770e+003,4.376285e-005
2.300699e+003,4.334282e-005
2.302627e+003,4.291348e-005
2.304556e+003,4.247483e-005
2.306484e+003,4.202593e-005
2.308413e+003,4.156725e-005
2.310341e+003,4.109973e-005
2.312270e+003,4.062196e-005
2.314198e+003,4.013511e-005
2.316127e+003,3.963895e-005
2.318055e+003,3.913254e-005
2.319984e+003,3.861613e-005
2.321912e+003,3.809109e-005
2.323841e+003,3.755675e-005
2.325769e+003,3.701192e-005
2.327698e+003,3.645686e-005
2.329626e+003,3.589364e-005
2.331555e+003,3.532018e-005
2.333483e+003,3.473694e-005
2.335412e+003,3.414485e-005
2.337340e+003,3.354228e-005
2.339269e+003,3.293040e-005
2.341197e+003,3.230921e-005
2.343126e+003,3.167824e-005
2.345054e+003,3.103749e-005
2.346983e+003,3.038719e-005
2.348911e+003,2.972805e-005
2.350840e+003,2.905843e-005
2.352768e+003,2.837973e-005
2.354697e+003,2.769055e-005
2.356625e+003,2.699252e-005
2.358554e+003,2.628565e-005
2.360482e+003,2.556760e-005
2.362411e+003,2.484024e-005
2.364339e+003,2.410449e-005
2.366268e+003,2.335757e-005
2.368196e+003,2.260250e-005
2.370125e+003,2.183719e-005
2.372053e+003,2.106233e-005
2.373982e+003,2.027815e-005
2.375910e+003,1.948373e-005
2.377839e+003,1.868000e-005
2.379767e+003,1.786603e-005
2.381696e+003,1.704297e-005
2.383624e+003,1.621176e-005
2.385553e+003,1.536892e-005
2.387481e+003,1.451676e-005
2.389410e+003,1.365622e-005
2.391338e+003,1.278543e-005
2.393267e+003,1.190440e-005
2.395195e+003,1.101452e-005
2.397124e+003,1.011486e-005
2.399052e+003,9.205891e-006
2.400981e+003,-1.315493e-007
2.402909e+003,-4.670396e-005
2.404838e+003,6.292388e-005
2.406766e+003,2.965026e-004
2.408695e+003,5.099704e-004
2.410623e+003,4.425840e-004
2.412552e+003,5.322578e-004
2.414480e+003,4.875788e-004
2.416409e+003,4.350785e-004
2.418337e+003,4.637395e-004
2.420266e+003,5.803176e-004
2.422194e+003,4.077889e-004
2.424123e+003,2.316420e-004
2.426051e+003,1.978560e-004
2.427979e+003,2.457262e-004
2.429908e+003,3.162236e-004
2.431837e+003,3.181463e-004
2.433765e+003,2.826038e-004
2.435694e+003,4.363165e-004
2.437622e+003,3.997465e-004
2.439551e+003,4.034869e-004
2.441479e+003,2.931873e-004
2.443407e+003,2.008758e-004
2.445336e+003,2.361885e-004
2.447265e+003,4.409167e-004
2.449193e+003,4.350424e-004
2.451122e+003,2.792755e-004
2.453050e+003,3.119817e-004
2.454979e+003,4.720653e-004
2.456907e+003,5.058618e-004
2.458836e+003,4.017681e-004
2.460764e+003,3.166988e-004
2.462693e+003,3.653963e-004
2.464621e+003,4.066741e-004
2.466550e+003,4.866372e-004
2.468478e+003,6.437220e-004
2.470406e+003,6.444075e-004
2.472335e+003,6.807067e-004
2.474264e+003,7.766646e-004
2.476192e+003,7.825086e-004
2.478121e+003,8.198847e-004
2.480049e+003,8.555092e-004
2.481978e+003,8.411461e-004
2.483906e+003,6.714466e-004
2.485835e+003,6.759625e-004
2.487763e+003,7.169796e-004
2.489692e+003,7.608519e-004
2.491620e+003,8.749473e-004
2.493549e+003,1.062172e-003
2.495477e+003,9.905887e-004
2.497406e+003,1.025133e-003
2.499334e+003,1.162179e-003
2.501263e+003,1.161756e-003
2.503191e+003,1.055816e-003
2.505120e+003,1.129082e-003
2.507048e+003,1.189861e-003
2.508977e+003,1.286482e-003
2.510905e+003,1.378687e-003
2.512833e+003,1.522805e-003
2.514762e+003,1.557534e-003
2.516691e+003,1.666891e-003
2.518619e+003,1.691777e-003
2.520548e+003,1.779808e-003
2.522476e+003,2.036383e-003
2.524405e+003,2.251631e-003
2.526333e+003,2.257541e-003
2.528261e+003,2.151758e-003
2.530190e+003,2.174831e-003
2.532119e+003,2.289352e-003
2.534047e+003,2.252671e-003
2.535976e+003,2.249917e-003
2.537904e+003,2.328285e-003
2.539833e+003,2.438798e-003
2.541761e+003,2.546200e-003
2.543689e+003,2.794744e-003
2.545618e+003,2.948874e-003
2.547547e+003,2.963960e-003
2.549475e+003,2.921650e-003
2.551404e+003,2.926751e-003
2.553332e+003,2.961019e-003
2.555260e+003,3.081225e-003
2.557189e+003,3.208983e-003
2.559117e+003,3.155793e-003
2.561046e+003,3.117446e-003
2.562975e+003,3.276823e-003
2.564903e+003,3.469849e-003
2.566832e+003,3.725449e-003
2.568760e+003,3.908604e-003
2.570688e+003,4.082680e-003
2.572617e+003,4.178654e-003
2.574546e+003,4.310365e-003
2.576474e+003,4.573423e-003
2.578403e+003,4.773896e-003
2.580331e+003,4.887983e-003
2.582260e+003,5.232108e-003
2.584188e+003,5.528209e-003
2.586116e+003,5.657064e-003
2.588045e+003,5.777349e-003
2.589974e+003,6.052523e-003
2.591902e+003,6.269106e-003
2.593831e+003,6.444682e-003
2.595759e+003,6.633125e-003
2.597688e+003,6.834381e-003
2.599616e+003,6.956649e-003
2.601544e+003,7.129939e-003
2.603473e+003,7.332492e-003
2.605402e+003,7.571059e-003
2.607330e+003,7.791024e-003
2.609259e+003,8.108119e-003
2.611187e+003,8.482929e-003
2.613115e+003,8.824997e-003
2.615044e+003,9.166874e-003
2.616972e+003,9.577939e-003
2.618901e+003,9.970021e-003
2.620830e+003,1.031545e-002
2.622758e+003,1.067249e-002
2.624687e+003,1.113327e-002
2.626615e+003,1.159182e-002
2.628543e+003,1.204375e-002
2.630472e+003,1.251433e-002
2.632400e+003,1.289537e-002
2.634329e+003,1.312419e-002
2.636258e+003,1.323893e-002
2.638186e+003,1.324354e-002
2.640115e+003,1.320271e-002
2.642043e+003,1.306965e-002
2.643971e+003,1.296722e-002
2.645900e+003,1.304008e-002
2.647828e+003,1.319370e-002
2.649757e+003,1.332293e-002
2.651686e+003,1.341336e-002
2.653614e+003,1.359534e-002
2.655542e+003,1.378948e-002
2.657471e+003,1.390902e-002
2.659399e+003,1.392612e-002
2.661328e+003,1.388398e-002
2.663256e+003,1.367216e-002
2.665185e+003,1.338213e-002
2.667114e+003,1.316044e-002
2.669042e+003,1.295343e-002
2.670970e+003,1.273472e-002
2.672899e+003,1.256285e-002
2.674827e+003,1.234519e-002
2.676756e+003,1.216986e-002
2.678685e+003,1.205562e-002
2.680613e+003,1.194550e-002
2.682542e+003,1.189144e-002
2.684470e+003,1.178846e-002
2.686398e+003,1.163020e-002
2.688327e+003,1.155262e-002
2.690255e+003,1.145975e-002
2.692184e+003,1.137257e-002
2.694113e+003,1.135031e-002
2.696041e+003,1.132648e-002
2.697969e+003,1.134714e-002
2.699898e+003,1.142715e-002
2.701826e+003,1.154080e-002
2.703755e+003,1.172858e-002
2.705683e+003,1.195049e-002
2.707612e+003,1.216967e-002
2.709541e+003,1.232514e-002
2.711469e+003,1.242625e-002
2.713397e+003,1.256364e-002
2.715326e+003,1.274040e-002
2.717254e+003,1.289400e-002
2.719183e+003,1.307460e-002
2.721111e+003,1.330629e-002
2.723040e+003,1.360012e-002
2.724969e+003,1.393503e-002
2.726897e+003,1.418370e-002
2.728825e+003,1.442225e-002
2.730754e+003,1.473807e-002
2.732682e+003,1.498648e-002
2.734611e+003,1.514733e-002
2.736539e+003,1.524046e-002
2.738468e+003,1.534590e-002
2.740396e+003,1.542708e-002
2.742325e+003,1.543770e-002
2.744253e+003,1.544931e-002
2.746182e+003,1.544962e-002
2.748110e+003,1.546214e-002
2.750039e+003,1.554893e-002
2.751967e+003,1.568004e-002
2.753896e+003,1.590610e-002
2.755824e+003,1.617494e-002
2.757753e+003,1.649462e-002
2.759681e+003,1.687454e-002
2.761610e+003,1.728063e-002
2.763538e+003,1.767970e-002
2.765467e+003,1.807749e-002
2.767395e+003,1.858809e-002
2.769324e+003,1.916382e-002
2.771252e+003,1.978890e-002
2.773181e+003,2.046406e-002
2.775109e+003,2.122709e-002
2.777038e+003,2.210907e-002
2.778966e+003,2.312491e-002
2.780895e+003,2.418760e-002
2.782823e+003,2.538990e-002
2.784752e+003,2.665716e-002
2.786680e+003,2.808216e-002
2.788609e+003,2.968417e-002
2.790537e+003,3.133104e-002
2.792466e+003,3.304243e-002
2.794394e+003,3.481858e-002
2.796323e+003,3.659226e-002
2.798251e+003,3.845417e-002
2.800180e+003,4.046200e-002
2.802108e+003,4.260492e-002
2.804037e+003,4.489237e-002
2.805965e+003,4.746016e-002
2.807894e+003,5.043809e-002
2.809822e+003,5.373655e-002
2.811751e+003,5.756200e-002
2.813679e+003,6.205262e-002
2.815608e+003,6.724526e-002
2.817536e+003,7.330509e-002
2.819465e+003,8.041382e-002
2.821393e+003,8.899219e-002
2.823322e+003,9.950523e-002
2.825250e+003,1.125351e-001
2.827179e+003,1.290054e-001
2.829107e+003,1.497528e-001
2.831036e+003,1.760481e-001
2.832964e+003,2.099920e-001
2.834893e+003,2.552962e-001
2.836821e+003,3.168972e-001
2.838750e+003,4.029725e-001
2.840678e+003,5.266432e-001
2.842607e+003,7.021951e-001
2.844535e+003,9.248018e-001
2.846464e+003,1.112779e+000
2.848392e+003,1.098229e+000
2.850321e+003,8.937647e-001
2.852249e+003,6.856298e-001
2.854178e+003,5.400780e-001
2.856106e+003,4.362820e-001
2.858035e+003,3.565410e-001
2.859963e+003,2.949177e-001
2.861892e+003,2.490269e-001
2.863820e+003,2.167891e-001
2.865749e+003,1.964163e-001
2.867677e+003,1.862132e-001
2.869606e+003,1.836866e-001
2.871534e+003,1.857915e-001
2.873463e+003,1.907418e-001
2.875391e+003,1.996712e-001
2.877320e+003,2.143517e-001
2.879248e+003,2.348530e-001
2.881177e+003,2.598256e-001
2.883105e+003,2.876198e-001
2.885034e+003,3.172539e-001
2.886962e+003,3.482007e-001
2.888891e+003,3.800167e-001
2.890819e+003,4.123780e-001
2.892748e+003,4.449259e-001
2.894676e+003,4.775715e-001
2.896605e+003,5.109175e-001
2.898533e+003,5.461181e-001
2.900462e+003,5.855739e-001
2.902390e+003,6.328894e-001
2.904319e+003,6.932411e-001
2.906247e+003,7.725924e-001
2.908176e+003,8.754456e-001
2.910104e+003,1.000812e+000
2.912033e+003,1.132162e+000
2.913961e+003,1.223215e+000
2.915890e+003,1.218715e+000
2.917818e+003,1.118973e+000
2.919747e+003,9.815592e-001
2.921675e+003,8.498780e-001
2.923604e+003,7.368033e-001
2.925532e+003,6.426461e-001
2.927461e+003,5.628304e-001
2.929389e+003,4.925762e-001
2.931318e+003,4.298006e-001
2.933246e+003,3.736102e-001
2.935175e+003,3.239819e-001
2.937103e+003,2.807581e-001
2.939032e+003,2.437076e-001
2.940960e+003,2.125518e-001
2.942889e+003,1.870751e-001
2.944817e+003,1.672242e-001
2.946746e+003,1.528491e-001
2.948674e+003,1.434209e-001
2.950603e+003,1.377444e-001
2.952531e+003,1.337111e-001
2.954460e+003,1.293704e-001
2.956388e+003,1.238226e-001
2.958317e+003,1.168413e-001
2.960245e+003,1.086454e-001
2.962174e+003,9.941649e-002
2.964102e+003,8.963185e-002
2.966031e+003,7.992855e-002
2.967959e+003,7.088539e-002
2.969888e+003,6.283723e-002
2.971816e+003,5.595409e-002
2.973745e+003,5.008339e-002
2.975673e+003,4.509602e-002
2.977602e+003,4.092374e-002
2.979530e+003,3.747425e-002
2.981459e+003,3.452772e-002
2.983387e+003,3.203185e-002
2.985316e+003,3.002859e-002
2.987244e+003,2.854445e-002
2.989173e+003,2.754474e-002
2.991101e+003,2.710767e-002
2.993030e+003,2.739113e-002
2.994958e+003,2.839534e-002
2.996887e+003,3.001966e-002
2.998815e+003,3.208138e-002
3.000744e+003,3.405305e-002
3.002672e+003,3.547525e-002
3.004601e+003,3.606417e-002
3.006529e+003,3.566852e-002
3.008458e+003,3.416366e-002
3.010386e+003,3.187281e-002
3.012315e+003,2.901935e-002
3.014243e+003,2.595704e-002
3.016172e+003,2.301201e-002
3.018100e+003,2.040647e-002
3.020029e+003,1.827889e-002
3.021957e+003,1.650212e-002
3.023886e+003,1.504691e-002
3.025814e+003,1.398142e-002
3.027743e+003,1.309844e-002
3.029671e+003,1.242758e-002
3.031600e+003,1.178894e-002
3.033528e+003,1.126961e-002
3.035457e+003,1.086806e-002
3.037385e+003,1.036623e-002
3.039314e+003,9.842500e-003
3.041242e+003,9.358891e-003
3.043171e+003,8.990470e-003
3.045099e+003,8.649837e-003
3.047028e+003,8.276321e-003
3.048956e+003,8.041108e-003
3.050885e+003,7.777231e-003
3.052813e+003,7.518542e-003
3.054742e+003,7.401085e-003
3.056670e+003,7.281854e-003
3.058599e+003,7.067347e-003
3.060527e+003,6.914008e-003
3.062456e+003,6.906477e-003
3.064384e+003,6.883250e-003
3.066313e+003,6.684680e-003
3.068241e+003,6.511765e-003
3.070170e+003,6.387788e-003
3.072098e+003,6.223159e-003
3.074027e+003,6.053947e-003
3.075955e+003,5.870441e-003
3.077884e+003,5.703988e-003
3.079812e+003,5.578329e-003
3.081741e+003,5.344210e-003
3.083669e+003,5.108399e-003
3.085598e+003,4.950632e-003
3.087526e+003,4.817257e-003
3.089455e+003,4.653287e-003
3.091383e+003,4.509117e-003
3.093312e+003,4.326924e-003
3.095240e+003,4.034205e-003
3.097169e+003,3.665217e-003
3.099097e+003,3.355318e-003
3.101026e+003,3.128926e-003
3.102954e+003,2.949154e-003
3.104883e+003,2.774935e-003
3.106811e+003,2.552671e-003
3.108740e+003,2.385953e-003
3.110668e+003,2.300507e-003
3.112597e+003,2.297089e-003
3.114525e+003,2.233747e-003
3.116454e+003,2.126580e-003
3.118382e+003,2.108372e-003
3.120311e+003,2.005122e-003
3.122239e+003,1.969029e-003
3.124168e+003,2.049233e-003
3.126096e+003,2.032978e-003
3.128025e+003,1.853102e-003
3.129953e+003,1.799611e-003
3.131882e+003,1.830532e-003
3.133810e+003,1.804540e-003
3.135739e+003,1.705967e-003
3.137667e+003,1.692632e-003
3.139596e+003,1.620566e-003
3.141524e+003,1.576275e-003
3.143453e+003,1.634393e-003
3.145381e+003,1.671031e-003
3.147310e+003,1.640629e-003
3.149238e+003,1.623109e-003
3.151167e+003,1.620057e-003
3.153095e+003,1.630041e-003
3.155024e+003,1.647447e-003
3.156952e+003,1.640316e-003
3.158881e+003,1.604315e-003
3.160809e+003,1.552054e-003
3.162738e+003,1.471990e-003
3.164666e+003,1.521265e-003
3.166594e+003,1.585376e-003
3.168523e+003,1.629429e-003
3.170452e+003,1.620855e-003
3.172380e+003,1.662664e-003
3.174309e+003,1.655772e-003
3.176237e+003,1.554364e-003
3.178166e+003,1.580729e-003
3.180094e+003,1.590073e-003
3.182022e+003,1.608165e-003
3.183951e+003,1.655252e-003
3.185880e+003,1.656208e-003
3.187808e+003,1.695778e-003
3.189737e+003,1.687563e-003
3.191665e+003,1.630637e-003
3.193594e+003,1.577337e-003
3.195522e+003,1.633642e-003
3.197450e+003,1.647047e-003
3.199379e+003,1.639497e-003
3.201308e+003,1.589973e-003
3.203236e+003,1.545051e-003
3.205165e+003,1.601376e-003
3.207093e+003,1.654052e-003
3.209021e+003,1.687562e-003
3.210950e+003,1.636298e-003
3.212878e+003,1.726298e-003
3.214807e+003,1.758727e-003
3.216736e+003,1.626904e-003
3.218664e+003,1.610191e-003
3.220593e+003,1.551135e-003
3.222521e+003,1.626072e-003
3.224449e+003,1.694055e-003
3.226378e+003,1.613888e-003
3.228307e+003,1.640152e-003
3.230235e+003,1.696918e-003
3.232164e+003,1.626971e-003
3.234092e+003,1.569782e-003
3.236021e+003,1.619950e-003
3.237949e+003,1.647025e-003
3.239877e+003,1.648710e-003
3.241806e+003,1.620242e-003
3.243735e+003,1.556736e-003
3.245663e+003,1.565448e-003
3.247592e+003,1.654246e-003
3.249520e+003,1.700127e-003
3.251448e+003,1.725393e-003
3.253377e+003,1.823704e-003
3.255305e+003,1.790981e-003
3.257234e+003,1.717781e-003
3.259163e+003,1.699080e-003
3.261091e+003,1.764880e-003
3.263020e+003,1.894491e-003
3.264948e+003,1.918435e-003
3.266876e+003,1.887457e-003
3.268805e+003,1.916827e-003
3.270733e+003,1.897280e-003
3.272662e+003,1.909885e-003
3.274591e+003,1.988311e-003
3.276519e+003,1.953352e-003
3.278448e+003,1.968061e-003
3.280376e+003,2.051644e-003
3.282304e+003,2.105982e-003
3.284233e+003,2.115466e-003
3.286161e+003,2.122669e-003
3.288090e+003,2.048111e-003
3.290019e+003,2.070200e-003
3.291947e+003,2.173737e-003
3.293875e+003,2.125237e-003
3.295804e+003,2.055176e-003
3.297732e+003,2.044541e-003
3.299661e+003,2.023947e-003
3.301589e+003,2.046616e-003
3.303518e+003,2.126407e-003
3.305447e+003,2.192172e-003
3.307375e+003,2.128004e-003
3.309303e+003,2.107373e-003
3.311232e+003,2.133422e-003
3.313160e+003,2.073154e-003
3.315089e+003,2.139712e-003
3.317018e+003,2.156474e-003
3.318946e+003,2.024332e-003
3.320875e+003,2.040158e-003
3.322803e+003,2.133128e-003
3.324731e+003,2.098381e-003
3.326660e+003,2.159210e-003
3.328588e+003,2.276880e-003
3.330517e+003,2.297397e-003
3.332446e+003,2.272685e-003
3.334374e+003,2.289020e-003
3.336302e+003,2.362937e-003
3.338231e+003,2.327921e-003
3.340159e+003,2.238212e-003
3.342088e+003,2.182487e-003
3.344016e+003,2.139986e-003
3.345945e+003,2.146961e-003
3.347874e+003,2.182322e-003
3.349802e+003,2.217056e-003
3.351730e+003,2.198765e-003
3.353659e+003,2.239424e-003
3.355587e+003,2.344588e-003
3.357516e+003,2.288624e-003
3.359444e+003,2.210787e-003
3.361373e+003,2.302515e-003
3.363302e+003,2.320162e-003
3.365230e+003,2.323109e-003
3.367158e+003,2.281332e-003
3.369087e+003,2.329446e-003
3.371015e+003,2.410437e-003
3.372944e+003,2.453870e-003
3.374872e+003,2.449164e-003
3.376801e+003,2.333045e-003
3.378729e+003,2.224405e-003
3.380658e+003,2.084295e-003
3.382586e+003,2.082149e-003
3.384515e+003,2.245219e-003
3.386443e+003,2.220047e-003
3.388372e+003,2.207076e-003
3.390300e+003,2.255282e-003
3.392229e+003,2.252754e-003
3.394157e+003,2.124877e-003
3.396086e+003,2.069289e-003
3.398014e+003,2.032765e-003
3.399943e+003,2.075010e-003
3.401871e+003,2.217579e-003
3.403800e+003,2.044318e-003
3.405728e+003,1.880799e-003
3.407657e+003,1.988258e-003
3.409585e+003,2.077889e-003
3.411514e+003,2.047404e-003
3.413442e+003,1.949736e-003
3.415371e+003,1.983380e-003
3.417299e+003,2.038336e-003
3.419228e+003,2.112487e-003
3.421156e+003,2.155903e-003
3.423085e+003,2.107418e-003
3.425013e+003,2.071804e-003
3.426942e+003,2.111510e-003
3.428870e+003,2.170451e-003
3.430799e+003,2.120252e-003
3.432727e+003,2.149581e-003
3.434656e+003,2.038676e-003
3.436584e+003,2.002536e-003
3.438513e+003,2.161317e-003
3.440441e+003,2.239832e-003
3.442370e+003,2.360171e-003
3.444298e+003,2.366319e-003
3.446227e+003,2.443481e-003
3.448155e+003,2.425802e-003
3.450084e+003,2.348094e-003
3.452012e+003,2.351030e-003
3.453941e+003,2.388290e-003
3.455869e+003,2.392844e-003
3.457798e+003,2.499925e-003
3.459726e+003,2.634754e-003
3.461655e+003,2.629692e-003
3.463583e+003,2.605110e-003
3.465512e+003,2.797064e-003
3.467440e+003,2.798504e-003
3.469369e+003,2.701188e-003
3.471297e+003,2.611587e-003
3.473226e+003,2.544670e-003
3.475154e+003,2.562992e-003
3.477083e+003,2.600110e-003
3.479011e+003,2.602453e-003
3.480940e+003,2.567195e-003
3.482868e+003,2.424695e-003
3.484797e+003,2.279968e-003
3.486725e+003,2.142020e-003
3.488654e+003,2.047716e-003
3.490582e+003,1.999439e-003
3.492511e+003,1.979677e-003
3.494439e+003,2.018798e-003
3.496368e+003,1.877080e-003
3.498296e+003,1.720732e-003
3.500225e+003,1.800789e-003
3.502153e+003,1.975120e-003
3.504082e+003,1.808563e-003
3.506010e+003,1.631388e-003
3.507939e+003,1.703187e-003
3.509867e+003,1.630709e-003
3.511796e+003,1.413965e-003
3.513724e+003,1.342530e-003
3.515653e+003,1.402660e-003
3.517581e+003,1.372361e-003
3.519510e+003,1.308000e-003
3.521438e+003,1.524786e-003
3.523367e+003,1.688982e-003
3.525295e+003,1.519487e-003
3.527224e+003,1.525234e-003
3.529152e+003,1.356758e-003
3.531081e+003,1.047840e-003
3.533009e+003,1.011105e-003
3.534938e+003,1.052142e-003
3.536866e+003,9.505041e-004
3.538795e+003,8.365740e-004
3.540723e+003,8.460426e-004
3.542652e+003,1.021564e-003
3.544580e+003,1.150239e-003
3.546509e+003,1.123252e-003
3.548437e+003,1.047251e-003
3.550366e+003,9.481324e-004
3.552294e+003,8.659551e-004
3.554223e+003,6.163014e-004
3.556151e+003,4.818500e-004
3.558080e+003,4.897225e-004
3.560008e+003,5.502641e-004
3.561937e+003,4.829736e-004
3.563865e+003,5.929868e-004
3.565794e+003,9.588914e-004
3.567722e+003,6.869202e-004
3.569651e+003,2.011445e-004
3.571579e+003,4.757289e-005
3.573508e+003,-7.317052e-005
3.575436e+003,-2.159188e-004
3.577365e+003,-3.114834e-004
3.579293e+003,-2.109751e-004
3.581222e+003,-2.666072e-004
3.583150e+003,-3.036952e-004
3.585079e+003,-4.197122e-005
3.587007e+003,2.730126e-004
3.588936e+003,3.308267e-005
3.590864e+003,-9.006867e-005
3.592793e+003,-1.687743e-005
3.594721e+003,1.715235e-004
3.596650e+003,3.813321e-004
3.598578e+003,7.238409e-004
3.600507e+003,1.111016e-003
3.602435e+003,1.170064e-003
3.604364e+003,1.243618e-003
3.606292e+003,1.284650e-003
3.608221e+003,1.287729e-003
3.610149e+003,1.201873e-003
3.612078e+003,1.036041e-003
3.614006e+003,7.506514e-004
3.615935e+003,3.315751e-004
3.617863e+003,1.881940e-004
3.619792e+003,2.115134e-004
3.621720e+003,-6.413367e-005
3.623649e+003,-1.755643e-004
3.625577e+003,-3.750552e-005
3.627506e+003,4.251787e-004
3.629434e+003,4.734207e-004
3.631363e+003,-2.361089e-005
3.633291e+003,-3.911075e-004
3.635220e+003,-6.241435e-004
3.637148e+003,-5.454866e-004
3.639077e+003,-3.547962e-004
3.641005e+003,3.081746e-006
3.642934e+003,1.707026e-004
3.644862e+003,1.723047e-004
3.646791e+003,6.028477e-004
3.648719e+003,3.723238e-004
3.650648e+003,-1.821332e-004
3.652576e+003,-3.955732e-004
3.654505e+003,-4.622224e-004
3.656433e+003,-4.010985e-004
3.658362e+003,-5.096972e-004
3.660290e+003,-5.002425e-004
3.662219e+003,-5.910795e-004
3.664147e+003,-8.956548e-004
3.666076e+003,-8.786405e-004
3.668004e+003,-4.707153e-004
3.669933e+003,-5.411985e-005
3.671861e+003,-3.024428e-004
3.673790e+003,-7.467670e-005
3.675718e+003,-3.170725e-004
3.677647e+003,-9.629088e-004
3.679575e+003,-9.004946e-004
3.681504e+003,-8.537197e-004
3.683432e+003,-7.827750e-004
3.685361e+003,-6.363012e-004
3.687289e+003,-1.990858e-004
3.689218e+003,-1.464596e-004
3.691146e+003,-6.542834e-004
3.693075e+003,-7.699470e-004
3.695003e+003,-7.035099e-004
3.696932e+003,-8.116190e-004
3.698860e+003,-8.450937e-004
3.700789e+003,-7.928004e-004
3.702717e+003,-9.263547e-004
3.704646e+003,-1.136855e-003
3.706574e+003,-1.006813e-003
3.708503e+003,-6.349781e-004
3.710431e+003,-4.822840e-004
3.712360e+003,-6.128706e-004
3.714288e+003,-8.074709e-004
3.716217e+003,-9.222443e-004
3.718145e+003,-7.810991e-004
3.720074e+003,-5.830650e-004
3.722002e+003,-2.715068e-004
3.723931e+003,-5.708407e-004
3.725859e+003,-6.508145e-004
3.727788e+003,-7.247054e-004
3.729716e+003,-8.276650e-004
3.731645e+003,-7.832290e-004
3.733573e+003,-4.518302e-004
3.735502e+003,8.914433e-005
3.737430e+003,-3.763936e-004
3.739359e+003,-6.739392e-004
3.741287e+003,-3.644328e-004
3.743216e+003,-2.689632e-004
3.745144e+003,-1.148933e-004
3.747073e+003,-1.062686e-005
3.749001e+003,1.696881e-004
3.750930e+003,7.496262e-005
3.752858e+003,-3.321895e-004
3.754787e+003,-2.687227e-004
3.756715e+003,-4.655635e-005
3.758644e+003,1.091196e-005
3.760572e+003,2.970919e-006
3.762501e+003,5.979207e-006
3.764429e+003,1.633586e-004
3.766358e+003,-1.433128e-004
3.768286e+003,-4.021202e-004
3.770215e+003,-2.548606e-004
3.772143e+003,-3.451083e-004
3.774072e+003,-3.386675e-004
3.776000e+003,-2.095178e-004
3.777929e+003,6.343971e-005
3.779857e+003,2.333674e-004
3.781786e+003,1.710134e-004
3.783714e+003,1.907530e-004
3.785643e+003,-5.385606e-006
3.787571e+003,-1.127105e-004
3.789500e+003,-1.693491e-004
3.791428e+003,-1.638120e-004
3.793357e+003,-7.704715e-005
3.795285e+003,-1.933204e-005
3.797214e+003,6.584020e-005
3.799142e+003,6.332458e-005
3.801071e+003,3.902186e-004
3.802999e+003,1.311651e-004
3.804927e+003,-6.200164e-005
3.806856e+003,1.371357e-004
3.808785e+003,-7.135898e-005
3.810713e+003,-6.412889e-005
3.812642e+003,1.739237e-004
3.814570e+003,3.934351e-004
3.816499e+003,6.479494e-004
3.818427e+003,7.119442e-004
3.820355e+003,9.703390e-004
3.822284e+003,6.648256e-004
3.824213e+003,2.646050e-004
3.826141e+003,3.394043e-004
3.828070e+003,2.369779e-004
3.829998e+003,2.400659e-004
3.831927e+003,6.567595e-004
3.833855e+003,8.425015e-004
3.835783e+003,9.524780e-004
3.837712e+003,9.158861e-004
3.839641e+003,4.655180e-004
3.841569e+003,2.266781e-004
3.843498e+003,3.242950e-004
3.845426e+003,3.196519e-004
3.847354e+003,4.870981e-004
3.849283e+003,8.311528e-004
3.851211e+003,1.198329e-003
3.853140e+003,1.052560e-003
3.855069e+003,5.347620e-004
3.856997e+003,3.240712e-004
3.858926e+003,2.079856e-004
3.860854e+003,5.457082e-004
3.862782e+003,1.008450e-003
3.864711e+003,1.233892e-003
3.866640e+003,8.022616e-004
3.868568e+003,7.323254e-004
3.870497e+003,8.299846e-004
3.872425e+003,5.823714e-004
3.874354e+003,7.060856e-004
3.876282e+003,7.276102e-004
3.878210e+003,7.462013e-004
3.880139e+003,9.654189e-004
3.882068e+003,8.942625e-004
3.883996e+003,9.264665e-004
3.885925e+003,8.382273e-004
3.887853e+003,4.009887e-004
3.889781e+003,6.251609e-004
3.891710e+003,7.909363e-004
3.893638e+003,6.707261e-004
3.895567e+003,9.064922e-004
3.897496e+003,1.109730e-003
3.899424e+003,1.280766e-003
3.901353e+003,1.442548e-003
3.903281e+003,1.303162e-003
3.905209e+003,8.725791e-004
3.907138e+003,5.977154e-004
3.909066e+003,6.182857e-004
3.910995e+003,7.798052e-004
3.912924e+003,8.020361e-004
3.914852e+003,9.826233e-004
3.916781e+003,1.124478e-003
3.918709e+003,8.473048e-004
3.920637e+003,6.302755e-004
3.922566e+003,7.558882e-004
3.924494e+003,9.468913e-004
3.926423e+003,7.828880e-004
3.928352e+003,8.140364e-004
3.930280e+003,9.665517e-004
3.932208e+003,8.545340e-004
3.934137e+003,5.080039e-004
3.936065e+003,4.517246e-004
3.937994e+003,4.685504e-004
3.939922e+003,4.277169e-004
3.941851e+003,6.668707e-004
3.943780e+003,7.072042e-004
3.945708e+003,5.579462e-004
3.947636e+003,6.645476e-004
3.949565e+003,7.380289e-004
3.951493e+003,5.256042e-004
3.953422e+003,4.646066e-004
3.955351e+003,6.157664e-004
3.957279e+003,6.910591e-004
3.959208e+003,6.447248e-004
3.961136e+003,6.655200e-004
3.963064e+003,6.417020e-004
3.964993e+003,5.561331e-004
3.966921e+003,6.414200e-004
3.968850e+003,6.264867e-004
3.970779e+003,6.558575e-004
3.972707e+003,7.430261e-004
3.974635e+003,7.529954e-004
3.976564e+003,6.803790e-004
3.978492e+003,6.352362e-004
3.980421e+003,7.087094e-004
3.982349e+003,7.259252e-004
3.984278e+003,6.126278e-004
3.986207e+003,5.653736e-004
3.988135e+003,5.530772e-004
3.990063e+003,5.275487e-004
3.991992e+003,3.106805e-004
3.993920e+003,2.618617e-004
3.995849e+003,4.152030e-004
3.997777e+003,5.190490e-004
3.999706e+003,5.465557e-004
4.001635e+003,0.000000e+000
