3.991992e+002,0.000000e+000
4.011277e+002,0.000000e+000
4.030562e+002,0.000000e+000
4.049846e+002,0.000000e+000
4.069131e+002,0.000000e+000
4.088416e+002,0.000000e+000
4.107701e+002,0.000000e+000
4.126986e+002,0.000000e+000
4.146271e+002,0.000000e+000
4.165556e+002,0.000000e+000
4.184841e+002,0.000000e+000
4.204126e+002,0.000000e+000
4.223411e+002,0.000000e+000
4.242697e+002,0.000000e+000
4.261982e+002,0.000000e+000
4.281266e+002,0.000000e+000
4.300551e+002,0.000000e+000
4.319836e+002,0.000000e+000
4.339121e+002,0.000000e+000
4.358406e+002,0.000000e+000
4.377691e+002,0.000000e+000
4.396976e+002,0.000000e+000
4.416261e+002,0.000000e+000
4.435546e+002,0.000000e+000
4.454831e+002,0.000000e+000
4.474116e+002,0.000000e+000
4.493401e+002,0.000000e+000
4.512686e+002,0.000000e+000
4.531971e+002,0.000000e+000
4.551256e+002,0.000000e+000
4.570541e+002,0.000000e+000
4.589826e+002,0.000000e+000
4.609111e+002,0.000000e+000
4.628396e+002,0.000000e+000
4.647681e+002,0.000000e+000
4.666966e+002,0.000000e+000
4.686251e+002,0.000000e+000
4.705536e+002,0.000000e+000
4.724821e+002,0.000000e+000
4.744106e+002,0.000000e+000
4.763391e+002,0.000000e+000
4.782676e+002,0.000000e+000
4.801961e+002,0.000000e+000
4.821246e+002,0.000000e+000
4.840531e+002,0.000000e+000
4.859816e+002,0.000000e+000
4.879101e+002,0.000000e+000
4.898386e+002,0.000000e+000
4.917671e+002,0.000000e+000
4.936956e+002,0.000000e+000
4.956241e+002,0.000000e+000
4.975526e+002,0.000000e+000
4.994811e+002,0.000000e+000
5.014096e+002,0.000000e+000
5.033381e+002,0.000000e+000
5.052666e+002,0.000000e+000
5.071951e+002,0.000000e+000
5.091236e+002,0.000000e+000
5.110521e+002,0.000000e+000
5.129806e+002,0.000000e+000
5.149091e+002,0.000000e+000
5.168376e+002,0.000000e+000
5.187661e+002,0.000000e+000
5.206946e+002,0.000000e+000
5.226230e+002,0.000000e+000
5.245516e+002,-4.033539e-004
5.264800e+002,-3.752913e-004
5.284086e+002,-3.785491e-004
5.303370e+002,-4.369263e-004
5.322656e+002,-4.595406e-004
5.341940e+002,-4.894938e-004
5.361226e+002,-5.049333e-004
5.380510e+002,-4.546698e-004
5.399796e+002,-3.030635e-004
5.419081e+002,-2.424009e-004
5.438365e+002,-2.919659e-004
5.457650e+002,-4.260391e-004
5.476935e+002,-3.602821e-004
5.496221e+002,-1.141317e-004
5.515505e+002,-4.069880e-005
5.534790e+002,1.048651e-004
5.554075e+002,3.157575e-004
5.573361e+002,2.438314e-004
5.592645e+002,1.523234e-004
5.611931e+002,1.662187e-004
5.631215e+002,1.135692e-004
5.650500e+002,6.750040e-005
5.669785e+002,1.710337e-004
5.689070e+002,2.288632e-004
5.708355e+002,1.729224e-004
5.727640e+002,1.044348e-004
5.746925e+002,1.669787e-004
5.766210e+002,2.558753e-004
5.785495e+002,2.734736e-004
5.804780e+002,2.416819e-004
5.824065e+002,3.242195e-004
5.843350e+002,4.384574e-004
5.862635e+002,5.363021e-004
5.881920e+002,5.721878e-004
5.901205e+002,5.920473e-004
5.920490e+002,5.488321e-004
5.939775e+002,6.534085e-004
5.959060e+002,7.567722e-004
5.978345e+002,8.702185e-004
5.997630e+002,9.403862e-004
6.016915e+002,1.085935e-003
6.036200e+002,1.244474e-003
6.055485e+002,1.409667e-003
6.074770e+002,1.500551e-003
6.094055e+002,1.583623e-003
6.113340e+002,1.557188e-003
6.132625e+002,1.581481e-003
6.151910e+002,1.524206e-003
6.171195e+002,1.465807e-003
6.190480e+002,1.556475e-003
6.209765e+002,1.821034e-003
6.229050e+002,1.922997e-003
6.248335e+002,1.891373e-003
6.267620e+002,1.838805e-003
6.286905e+002,1.943149e-003
6.306190e+002,1.956269e-003
6.325475e+002,1.918856e-003
6.344760e+002,1.892174e-003
6.364045e+002,2.006337e-003
6.383330e+002,2.097132e-003
6.402615e+002,2.199527e-003
6.421899e+002,2.142886e-003
6.441185e+002,2.155025e-003
6.460470e+002,2.220022e-003
6.479755e+002,2.298262e-003
6.499039e+002,2.185024e-003
6.518325e+002,2.145488e-003
6.537610e+002,2.239028e-003
6.556895e+002,2.396656e-003
6.576179e+002,2.484884e-003
6.595464e+002,2.533367e-003
6.614750e+002,2.558237e-003
6.634034e+002,2.646362e-003
6.653319e+002,2.738960e-003
6.672604e+002,2.854908e-003
6.691890e+002,2.873721e-003
6.711174e+002,3.054136e-003
6.730460e+002,3.139254e-003
6.749745e+002,3.208108e-003
6.769030e+002,3.269710e-003
6.788314e+002,3.400613e-003
6.807599e+002,3.459949e-003
6.826885e+002,3.575006e-003
6.846169e+002,3.664317e-003
6.865454e+002,3.863730e-003
6.884739e+002,4.052933e-003
6.904025e+002,4.303515e-003
6.923309e+002,4.520293e-003
6.942594e+002,4.844381e-003
6.961879e+002,5.177362e-003
6.981165e+002,5.672147e-003
7.000449e+002,6.234253e-003
7.019734e+002,7.073097e-003
7.039019e+002,8.133348e-003
7.058304e+002,9.735307e-003
7.077589e+002,1.179383e-002
7.096874e+002,1.503419e-002
7.116159e+002,2.033481e-002
7.135444e+002,3.073193e-002
7.154729e+002,4.897987e-002
7.174014e+002,7.255213e-002
7.193299e+002,7.763907e-002
7.212584e+002,5.106026e-002
7.231869e+002,2.980946e-002
7.251154e+002,2.497143e-002
7.270439e+002,3.174680e-002
7.289724e+002,4.922303e-002
7.309009e+002,5.163366e-002
7.328294e+002,2.830935e-002
7.347579e+002,1.114577e-002
7.366864e+002,5.526206e-003
7.386149e+002,3.719969e-003
7.405434e+002,2.817329e-003
7.424719e+002,2.309218e-003
7.444004e+002,1.914002e-003
7.463289e+002,1.659803e-003
7.482574e+002,1.505096e-003
7.501859e+002,1.455484e-003
7.521144e+002,1.363300e-003
7.540428e+002,1.325933e-003
7.559714e+002,1.294073e-003
7.578999e+002,1.463220e-003
7.598284e+002,1.555126e-003
7.617568e+002,1.590900e-003
7.636854e+002,1.610797e-003
7.656139e+002,1.687849e-003
7.675424e+002,1.684560e-003
7.694709e+002,1.617940e-003
7.713994e+002,1.565609e-003
7.733279e+002,1.538709e-003
7.752563e+002,1.547219e-003
7.771849e+002,1.562623e-003
7.791134e+002,1.563316e-003
7.810419e+002,1.640324e-003
7.829703e+002,1.657913e-003
7.848989e+002,1.701724e-003
7.868274e+002,1.769541e-003
7.887559e+002,1.916353e-003
7.906843e+002,2.010453e-003
7.926129e+002,2.086086e-003
7.945414e+002,2.223030e-003
7.964698e+002,2.400750e-003
7.983983e+002,2.511648e-003
8.003268e+002,2.649607e-003
8.022554e+002,2.836730e-003
8.041838e+002,3.021304e-003
8.061123e+002,3.178297e-003
8.080408e+002,3.389388e-003
8.099694e+002,3.633650e-003
8.118978e+002,3.914263e-003
8.138263e+002,3.999559e-003
8.157548e+002,3.884958e-003
8.176833e+002,3.635582e-003
8.196118e+002,3.249198e-003
8.215403e+002,2.697976e-003
8.234689e+002,2.074983e-003
8.253973e+002,1.434462e-003
8.273258e+002,9.204019e-004
8.292543e+002,5.721729e-004
8.311829e+002,4.605390e-004
8.331113e+002,3.920626e-004
8.350398e+002,3.159940e-004
8.369683e+002,2.142265e-004
8.388969e+002,8.944795e-005
8.408253e+002,5.407259e-006
8.427538e+002,-2.769567e-005
8.446823e+002,2.527796e-005
8.466108e+002,7.271022e-005
8.485393e+002,1.013670e-004
8.504678e+002,2.130363e-004
8.523963e+002,3.630314e-004
8.543248e+002,4.733820e-004
8.562533e+002,5.439334e-004
8.581818e+002,6.908271e-004
8.601103e+002,1.047656e-003
8.620388e+002,1.446746e-003
8.639673e+002,1.812620e-003
8.658958e+002,2.157908e-003
8.678243e+002,2.388630e-003
8.697528e+002,2.550105e-003
8.716813e+002,2.710463e-003
8.736098e+002,2.704076e-003
8.755383e+002,2.535651e-003
8.774668e+002,2.381872e-003
8.793953e+002,2.380807e-003
8.813238e+002,2.325613e-003
8.832523e+002,2.256360e-003
8.851808e+002,2.136694e-003
8.871093e+002,2.100399e-003
8.890378e+002,2.081389e-003
8.909663e+002,1.996171e-003
8.928948e+002,1.960769e-003
8.948232e+002,2.042465e-003
8.967518e+002,2.128422e-003
8.986803e+002,2.213690e-003
9.006088e+002,2.327815e-003
9.025372e+002,2.575785e-003
9.044658e+002,3.011823e-003
9.063943e+002,3.584512e-003
9.083228e+002,3.829425e-003
9.102512e+002,3.391352e-003
9.121797e+002,2.754586e-003
9.141083e+002,2.325723e-003
9.160367e+002,2.034537e-003
9.179653e+002,1.860084e-003
9.198937e+002,1.809966e-003
9.218223e+002,1.832707e-003
9.237507e+002,1.846602e-003
9.256793e+002,1.874296e-003
9.276077e+002,1.978744e-003
9.295363e+002,2.152057e-003
9.314647e+002,2.375379e-003
9.333932e+002,2.677305e-003
9.353217e+002,2.947960e-003
9.372502e+002,3.280021e-003
9.391787e+002,3.567271e-003
9.411072e+002,3.761675e-003
9.430358e+002,3.969954e-003
9.449642e+002,4.167516e-003
9.468928e+002,4.250968e-003
9.488212e+002,4.409902e-003
9.507498e+002,4.631435e-003
9.526782e+002,4.770793e-003
9.546068e+002,4.951477e-003
9.565352e+002,5.263409e-003
9.584637e+002,5.555237e-003
9.603922e+002,5.752092e-003
9.623207e+002,5.875604e-003
9.642492e+002,6.002201e-003
9.661777e+002,6.106652e-003
9.681062e+002,6.173434e-003
9.700347e+002,6.244900e-003
9.719632e+002,6.342897e-003
9.738917e+002,6.436531e-003
9.758202e+002,6.550530e-003
9.777487e+002,6.710622e-003
9.796772e+002,6.865498e-003
9.816057e+002,7.020805e-003
9.835342e+002,7.280350e-003
9.854627e+002,7.666787e-003
9.873912e+002,8.233679e-003
9.893197e+002,8.876249e-003
9.912482e+002,9.475363e-003
9.931767e+002,1.012191e-002
9.951052e+002,1.085770e-002
9.970337e+002,1.160871e-002
9.989622e+002,1.235009e-002
1.000891e+003,1.306841e-002
1.002819e+003,1.380940e-002
1.004748e+003,1.458408e-002
1.006676e+003,1.537057e-002
1.008605e+003,1.608179e-002
1.010533e+003,1.671197e-002
1.012462e+003,1.724919e-002
1.014390e+003,1.781933e-002
1.016319e+003,1.837504e-002
1.018247e+003,1.887731e-002
1.020176e+003,1.934327e-002
1.022104e+003,1.980976e-002
1.024033e+003,2.025212e-002
1.025961e+003,2.059247e-002
1.027890e+003,2.083705e-002
1.029818e+003,2.097934e-002
1.031747e+003,2.096884e-002
1.033675e+003,2.081775e-002
1.035604e+003,2.051957e-002
1.037532e+003,2.014895e-002
1.039461e+003,1.970050e-002
1.041389e+003,1.928725e-002
1.043318e+003,1.893354e-002
1.045246e+003,1.867320e-002
1.047175e+003,1.862960e-002
1.049103e+003,1.890248e-002
1.051032e+003,1.919657e-002
1.052960e+003,1.937509e-002
1.054889e+003,1.958373e-002
1.056817e+003,1.984286e-002
1.058746e+003,2.006637e-002
1.060674e+003,2.024748e-002
1.062603e+003,2.032465e-002
1.064531e+003,2.035780e-002
1.066460e+003,2.035350e-002
1.068388e+003,2.039451e-002
1.070317e+003,2.040151e-002
1.072245e+003,2.043560e-002
1.074174e+003,2.046810e-002
1.076102e+003,2.055694e-002
1.078031e+003,2.058070e-002
1.079959e+003,2.046899e-002
1.081888e+003,2.028839e-002
1.083816e+003,2.011889e-002
1.085745e+003,1.986042e-002
1.087673e+003,1.958157e-002
1.089602e+003,1.927490e-002
1.091530e+003,1.894274e-002
1.093459e+003,1.847134e-002
1.095387e+003,1.793399e-002
1.097316e+003,1.738799e-002
1.099244e+003,1.679960e-002
1.101173e+003,1.623202e-002
1.103101e+003,1.574074e-002
1.105030e+003,1.526942e-002
1.106958e+003,1.490814e-002
1.108887e+003,1.460468e-002
1.110815e+003,1.425030e-002
1.112744e+003,1.384204e-002
1.114672e+003,1.350233e-002
1.116601e+003,1.318874e-002
1.118529e+003,1.291843e-002
1.120458e+003,1.267427e-002
1.122386e+003,1.246623e-002
1.124315e+003,1.222136e-002
1.126243e+003,1.200582e-002
1.128172e+003,1.182182e-002
1.130100e+003,1.172117e-002
1.132029e+003,1.165864e-002
1.133957e+003,1.164747e-002
1.135885e+003,1.174623e-002
1.137814e+003,1.200233e-002
1.139743e+003,1.234703e-002
1.141671e+003,1.279421e-002
1.143600e+003,1.330563e-002
1.145528e+003,1.382657e-002
1.147457e+003,1.432696e-002
1.149385e+003,1.479770e-002
1.151314e+003,1.501961e-002
1.153242e+003,1.495591e-002
1.155171e+003,1.464630e-002
1.157099e+003,1.415006e-002
1.159028e+003,1.343051e-002
1.160956e+003,1.267965e-002
1.162885e+003,1.195307e-002
1.164813e+003,1.126010e-002
1.166742e+003,1.060181e-002
1.168670e+003,9.996373e-003
1.170599e+003,9.384548e-003
1.172527e+003,8.859750e-003
1.174456e+003,8.418696e-003
1.176384e+003,8.000253e-003
1.178313e+003,7.474765e-003
1.180241e+003,7.056119e-003
1.182170e+003,6.810429e-003
1.184098e+003,6.656289e-003
1.186027e+003,6.520400e-003
1.187955e+003,6.449059e-003
1.189884e+003,6.412737e-003
1.191812e+003,6.419227e-003
1.193740e+003,6.444005e-003
1.195669e+003,6.573705e-003
1.197598e+003,6.803684e-003
1.199526e+003,7.137666e-003
1.201455e+003,7.523358e-003
1.203383e+003,7.984798e-003
1.205312e+003,8.440029e-003
1.207240e+003,8.917809e-003
1.209168e+003,9.311929e-003
1.211097e+003,9.654641e-003
1.213026e+003,9.943323e-003
1.214954e+003,1.021284e-002
1.216883e+003,1.041700e-002
1.218811e+003,1.059583e-002
1.220740e+003,1.076183e-002
1.222668e+003,1.091821e-002
1.224596e+003,1.102284e-002
1.226525e+003,1.114418e-002
1.228453e+003,1.127124e-002
1.230382e+003,1.143755e-002
1.232311e+003,1.160112e-002
1.234239e+003,1.176997e-002
1.236167e+003,1.192628e-002
1.238096e+003,1.207943e-002
1.240025e+003,1.213967e-002
1.241953e+003,1.218765e-002
1.243882e+003,1.218991e-002
1.245810e+003,1.210368e-002
1.247739e+003,1.191916e-002
1.249667e+003,1.164344e-002
1.251595e+003,1.128718e-002
1.253524e+003,1.092750e-002
1.255453e+003,1.052698e-002
1.257381e+003,1.012833e-002
1.259310e+003,9.698372e-003
1.261238e+003,9.278487e-003
1.263167e+003,8.877423e-003
1.265095e+003,8.590991e-003
1.267023e+003,8.366346e-003
1.268952e+003,8.250805e-003
1.270880e+003,8.126291e-003
1.272809e+003,8.027082e-003
1.274738e+003,7.962164e-003
1.276666e+003,7.933816e-003
1.278594e+003,7.881342e-003
1.280523e+003,7.915674e-003
1.282451e+003,7.940220e-003
1.284380e+003,8.004185e-003
1.286308e+003,8.070452e-003
1.288237e+003,8.220403e-003
1.290166e+003,8.372493e-003
1.292094e+003,8.585718e-003
1.294022e+003,8.820524e-003
1.295951e+003,9.058768e-003
1.297879e+003,9.258404e-003
1.299808e+003,9.473091e-003
1.301736e+003,9.618528e-003
1.303665e+003,9.745920e-003
1.305594e+003,9.825220e-003
1.307522e+003,9.858267e-003
1.309450e+003,9.775626e-003
1.311379e+003,9.697292e-003
1.313307e+003,9.552754e-003
1.315236e+003,9.399289e-003
1.317164e+003,9.245612e-003
1.319093e+003,9.095591e-003
1.321021e+003,8.850442e-003
1.322950e+003,8.696880e-003
1.324878e+003,8.559793e-003
1.326807e+003,8.499810e-003
1.328735e+003,8.454895e-003
1.330664e+003,8.487817e-003
1.332592e+003,8.541606e-003
1.334521e+003,8.697607e-003
1.336449e+003,8.926105e-003
1.338378e+003,9.355308e-003
1.340306e+003,9.550203e-003
1.342235e+003,9.542845e-003
1.344163e+003,9.701557e-003
1.346092e+003,1.001739e-002
1.348021e+003,1.030882e-002
1.349949e+003,1.062894e-002
1.351877e+003,1.082297e-002
1.353806e+003,1.093034e-002
1.355734e+003,1.088186e-002
1.357663e+003,1.098192e-002
1.359591e+003,1.125440e-002
1.361520e+003,1.178908e-002
1.363448e+003,1.231356e-002
1.365377e+003,1.274792e-002
1.367305e+003,1.316865e-002
1.369234e+003,1.322530e-002
1.371162e+003,1.278267e-002
1.373091e+003,1.233591e-002
1.375019e+003,1.177118e-002
1.376948e+003,1.135880e-002
1.378876e+003,1.086321e-002
1.380805e+003,1.026767e-002
1.382733e+003,9.759670e-003
1.384662e+003,9.540118e-003
1.386590e+003,9.428693e-003
1.388519e+003,9.141186e-003
1.390447e+003,8.876892e-003
1.392376e+003,8.948667e-003
1.394304e+003,9.045158e-003
1.396233e+003,9.105615e-003
1.398161e+003,9.132817e-003
1.400090e+003,9.161465e-003
1.402018e+003,9.149566e-003
1.403947e+003,9.435365e-003
1.405875e+003,9.527491e-003
1.407804e+003,9.683339e-003
1.409732e+003,9.880288e-003
1.411661e+003,1.016636e-002
1.413589e+003,1.028451e-002
1.415518e+003,1.065631e-002
1.417446e+003,1.099423e-002
1.419375e+003,1.131049e-002
1.421303e+003,1.141679e-002
1.423232e+003,1.199463e-002
1.425160e+003,1.252001e-002
1.427089e+003,1.324945e-002
1.429017e+003,1.423186e-002
1.430946e+003,1.548976e-002
1.432874e+003,1.644283e-002
1.434803e+003,1.752631e-002
1.436731e+003,1.844336e-002
1.438660e+003,1.911690e-002
1.440588e+003,1.957339e-002
1.442517e+003,2.020114e-002
1.444445e+003,2.061419e-002
1.446374e+003,2.145837e-002
1.448302e+003,2.254639e-002
1.450231e+003,2.437920e-002
1.452159e+003,2.739615e-002
1.454088e+003,3.164782e-002
1.456016e+003,3.687930e-002
1.457945e+003,5.508704e-002
1.459873e+003,8.791219e-002
1.461802e+003,1.105422e-001
1.463730e+003,9.682095e-002
1.465659e+003,6.714401e-002
1.467587e+003,6.483293e-002
1.469516e+003,7.370818e-002
1.471444e+003,9.686212e-002
1.473373e+003,9.014984e-002
1.475301e+003,4.634389e-002
1.477230e+003,1.820869e-002
1.479158e+003,1.053655e-002
1.481087e+003,7.497251e-003
1.483015e+003,6.203411e-003
1.484944e+003,5.317053e-003
1.486872e+003,5.310943e-003
1.488801e+003,4.894203e-003
1.490729e+003,4.714949e-003
1.492658e+003,4.062606e-003
1.494586e+003,4.202403e-003
1.496515e+003,3.940035e-003
1.498443e+003,4.022835e-003
1.500372e+003,3.670221e-003
1.502300e+003,3.689811e-003
1.504229e+003,3.705537e-003
1.506157e+003,4.434144e-003
1.508086e+003,3.890989e-003
1.510014e+003,3.932172e-003
1.511943e+003,3.657628e-003
1.513871e+003,3.802756e-003
1.515800e+003,3.898462e-003
1.517728e+003,4.089125e-003
1.519657e+003,4.073506e-003
1.521585e+003,4.368044e-003
1.523514e+003,4.018385e-003
1.525442e+003,4.304131e-003
1.527371e+003,4.075458e-003
1.529299e+003,4.023978e-003
1.531228e+003,4.078705e-003
1.533156e+003,4.336378e-003
1.535085e+003,4.018705e-003
1.537013e+003,4.314223e-003
1.538942e+003,4.668802e-003
1.540870e+003,5.019631e-003
1.542799e+003,4.699051e-003
1.544727e+003,4.547205e-003
1.546656e+003,4.081909e-003
1.548584e+003,4.201233e-003
1.550513e+003,4.197476e-003
1.552441e+003,4.221935e-003
1.554370e+003,4.230261e-003
1.556298e+003,4.513251e-003
1.558227e+003,4.975079e-003
1.560155e+003,4.328005e-003
1.562084e+003,3.955016e-003
1.564012e+003,4.026072e-003
1.565941e+003,3.920088e-003
1.567869e+003,4.213480e-003
1.569798e+003,4.273552e-003
1.571726e+003,4.071314e-003
1.573655e+003,4.192753e-003
1.575583e+003,4.644988e-003
1.577512e+003,4.477961e-003
1.579440e+003,4.456889e-003
1.581369e+003,4.512915e-003
1.583297e+003,4.632490e-003
1.585226e+003,4.712934e-003
1.587154e+003,4.891699e-003
1.589083e+003,5.026726e-003
1.591011e+003,5.175574e-003
1.592940e+003,5.276168e-003
1.594868e+003,5.487394e-003
1.596797e+003,5.582877e-003
1.598725e+003,5.687455e-003
1.600654e+003,5.778147e-003
1.602582e+003,5.985590e-003
1.604511e+003,6.066255e-003
1.606439e+003,6.248262e-003
1.608368e+003,6.422050e-003
1.610296e+003,6.554339e-003
1.612225e+003,6.624509e-003
1.614153e+003,6.939881e-003
1.616082e+003,7.284660e-003
1.618010e+003,7.291354e-003
1.619939e+003,7.324921e-003
1.621867e+003,7.625002e-003
1.623796e+003,7.765424e-003
1.625724e+003,7.860571e-003
1.627653e+003,7.972384e-003
1.629581e+003,7.925769e-003
1.631510e+003,7.966347e-003
1.633438e+003,8.312780e-003
1.635367e+003,8.712817e-003
1.637295e+003,8.673184e-003
1.639224e+003,8.576650e-003
1.641152e+003,8.539949e-003
1.643081e+003,8.470554e-003
1.645009e+003,8.746848e-003
1.646938e+003,8.664615e-003
1.648866e+003,8.145561e-003
1.650795e+003,8.211724e-003
1.652723e+003,8.691339e-003
1.654652e+003,7.850353e-003
1.656580e+003,7.504981e-003
1.658509e+003,7.277288e-003
1.660437e+003,7.231941e-003
1.662366e+003,7.077381e-003
1.664294e+003,6.649066e-003
1.666223e+003,6.506722e-003
1.668151e+003,6.633688e-003
1.670080e+003,6.278910e-003
1.672008e+003,5.979396e-003
1.673937e+003,5.780693e-003
1.675865e+003,5.375836e-003
1.677794e+003,5.078848e-003
1.679722e+003,5.028706e-003
1.681651e+003,4.918199e-003
1.683579e+003,5.144749e-003
1.685508e+003,4.296429e-003
1.687436e+003,4.195971e-003
1.689365e+003,3.949210e-003
1.691293e+003,3.549257e-003
1.693222e+003,3.496215e-003
1.695150e+003,3.643818e-003
1.697079e+003,3.452955e-003
1.699007e+003,3.675675e-003
1.700936e+003,3.194215e-003
1.702864e+003,3.032865e-003
1.704793e+003,3.087958e-003
1.706721e+003,2.882194e-003
1.708650e+003,2.690280e-003
1.710578e+003,2.728976e-003
1.712507e+003,2.788134e-003
1.714435e+003,3.158905e-003
1.716364e+003,3.414888e-003
1.718292e+003,3.251497e-003
1.720221e+003,2.864489e-003
1.722149e+003,2.961859e-003
1.724078e+003,2.943356e-003
1.726006e+003,2.968756e-003
1.727935e+003,3.052630e-003
1.729863e+003,3.235174e-003
1.731792e+003,3.492136e-003
1.733720e+003,3.822161e-003
1.735649e+003,3.312774e-003
1.737577e+003,3.346868e-003
1.739506e+003,3.370795e-003
1.741434e+003,3.243454e-003
1.743363e+003,3.229983e-003
1.745291e+003,3.167309e-003
1.747220e+003,3.099825e-003
1.749148e+003,3.077520e-003
1.751077e+003,2.605319e-003
1.753005e+003,2.139702e-003
1.754934e+003,1.952048e-003
1.756862e+003,1.772519e-003
1.758791e+003,1.466971e-003
1.760719e+003,1.506984e-003
1.762648e+003,1.226617e-003
1.764576e+003,1.073161e-003
1.766505e+003,1.085920e-003
1.768433e+003,1.111720e-003
1.770362e+003,1.161804e-003
1.772290e+003,1.205510e-003
1.774219e+003,8.049160e-004
1.776147e+003,7.066913e-004
1.778076e+003,7.483698e-004
1.780004e+003,9.175390e-004
1.781933e+003,7.519964e-004
1.783861e+003,7.747617e-004
1.785790e+003,6.519407e-004
1.787718e+003,6.354805e-004
1.789646e+003,7.878225e-004
1.791575e+003,9.617731e-004
1.793504e+003,7.043444e-004
1.795432e+003,7.140879e-004
1.797361e+003,6.287526e-004
1.799289e+003,7.794220e-004
1.801218e+003,7.194281e-004
1.803146e+003,5.890280e-004
1.805074e+003,4.148595e-004
1.807003e+003,4.393850e-004
1.808932e+003,4.044026e-004
1.810860e+003,3.879517e-004
1.812789e+003,1.420416e-004
1.814717e+003,-1.092013e-004
1.816646e+003,-2.343319e-004
1.818574e+003,5.554594e-005
1.820502e+003,2.172738e-004
1.822431e+003,3.331378e-004
1.824360e+003,2.001598e-004
1.826288e+003,4.591048e-005
1.828217e+003,4.521944e-005
1.830145e+003,1.888424e-004
1.832073e+003,-1.288131e-004
1.834002e+003,-1.180358e-004
1.835931e+003,-1.169015e-004
1.837859e+003,-1.384187e-004
1.839788e+003,-2.769213e-004
1.841716e+003,-2.158340e-004
1.843645e+003,-2.046321e-004
1.845573e+003,-2.071690e-004
1.847501e+003,-3.137104e-004
1.849430e+003,-1.844671e-004
1.851359e+003,-3.094897e-004
1.853287e+003,-3.040899e-004
1.855216e+003,-4.090052e-004
1.857144e+003,-4.192311e-004
1.859073e+003,-5.266313e-004
1.861001e+003,-3.921371e-004
1.862929e+003,-4.167687e-004
1.864858e+003,-1.804456e-004
1.866787e+003,-2.577342e-005
1.868715e+003,-6.296113e-005
1.870644e+003,-3.745556e-004
1.872572e+003,-3.835522e-004
1.874500e+003,-5.427320e-004
1.876429e+003,-5.859770e-004
1.878357e+003,-5.634651e-004
1.880286e+003,-3.535580e-004
1.882215e+003,-4.991814e-004
1.884143e+003,-4.021861e-004
1.886072e+003,-3.193598e-004
1.888000e+003,-2.108999e-004
1.889928e+003,-4.153289e-004
1.891857e+003,-4.072823e-004
1.893785e+003,-3.428757e-004
1.895714e+003,-2.028923e-004
1.897643e+003,-2.763644e-004
1.899571e+003,-1.371261e-004
1.901500e+003,-1.241062e-004
1.903428e+003,-1.110993e-004
1.905356e+003,-9.810738e-005
1.907285e+003,-8.513220e-005
1.909213e+003,-7.216819e-005
1.911142e+003,-5.921721e-005
1.913071e+003,-4.628114e-005
1.914999e+003,-3.336370e-005
1.916927e+003,-2.045371e-005
1.918856e+003,-7.560477e-006
1.920784e+003,5.319715e-006
1.922713e+003,1.818314e-005
1.924641e+003,3.103353e-005
1.926570e+003,4.386902e-005
1.928499e+003,5.669147e-005
1.930427e+003,6.950088e-005
1.932355e+003,8.229166e-005
1.934284e+003,9.507500e-005
1.936212e+003,1.078397e-004
1.938141e+003,1.205895e-004
1.940070e+003,1.333319e-004
1.941998e+003,1.460537e-004
1.943927e+003,1.587607e-004
1.945855e+003,1.714583e-004
1.947783e+003,1.841392e-004
1.949712e+003,1.968071e-004
1.951640e+003,2.094582e-004
1.953569e+003,2.220981e-004
1.955498e+003,2.347212e-004
1.957426e+003,2.473332e-004
1.959354e+003,2.599284e-004
1.961283e+003,2.725087e-004
1.963211e+003,2.850797e-004
1.965140e+003,2.976321e-004
1.967068e+003,3.101733e-004
1.968997e+003,3.226977e-004
1.970926e+003,3.352109e-004
1.972854e+003,3.477074e-004
1.974782e+003,3.601927e-004
1.976711e+003,3.726613e-004
1.978639e+003,3.851168e-004
1.980568e+003,3.975574e-004
1.982496e+003,4.099831e-004
1.984425e+003,4.223976e-004
1.986354e+003,4.347954e-004
1.988282e+003,4.471801e-004
1.990210e+003,4.595518e-004
1.992139e+003,4.719086e-004
1.994067e+003,4.842486e-004
1.995996e+003,4.965756e-004
1.997924e+003,5.088914e-004
1.999853e+003,5.211923e-004
2.001781e+003,5.334765e-004
2.003710e+003,5.457494e-004
2.005638e+003,5.580075e-004
2.007567e+003,5.702525e-004
2.009495e+003,5.824789e-004
2.011424e+003,5.946942e-004
2.013352e+003,6.068945e-004
2.015281e+003,6.190836e-004
2.017209e+003,6.312542e-004
2.019138e+003,6.434135e-004
2.021066e+003,6.555598e-004
2.022995e+003,6.676875e-004
2.024923e+003,6.798059e-004
2.026852e+003,6.919056e-004
2.028781e+003,7.039979e-004
2.030709e+003,7.160679e-004
2.032637e+003,7.281285e-004
2.034566e+003,7.401742e-004
2.036494e+003,7.522069e-004
2.038423e+003,7.642247e-004
2.040351e+003,7.762238e-004
2.042280e+003,7.882174e-004
2.044208e+003,8.001924e-004
2.046137e+003,8.121543e-004
2.048065e+003,8.240994e-004
2.049994e+003,8.360334e-004
2.051922e+003,8.479506e-004
2.053851e+003,8.598566e-004
2.055779e+003,8.717477e-004
2.057708e+003,8.836240e-004
2.059636e+003,8.954853e-004
2.061565e+003,9.073336e-004
2.063493e+003,9.191670e-004
2.065422e+003,9.309836e-004
2.067350e+003,9.427890e-004
2.069279e+003,9.545851e-004
2.071207e+003,9.663589e-004
2.073136e+003,9.781271e-004
2.075064e+003,9.898748e-004
2.076993e+003,1.001609e-003
2.078921e+003,1.013331e-003
2.080850e+003,1.025032e-003
2.082778e+003,1.036726e-003
2.084707e+003,1.048407e-003
2.086635e+003,1.060072e-003
2.088564e+003,1.071721e-003
2.090492e+003,1.083357e-003
2.092421e+003,1.094982e-003
2.094349e+003,1.106586e-003
2.096278e+003,1.118181e-003
2.098206e+003,1.129763e-003
2.100135e+003,1.141330e-003
2.102063e+003,1.152880e-003
2.103992e+003,1.164418e-003
2.105920e+003,1.175942e-003
2.107849e+003,1.187446e-003
2.109777e+003,1.198944e-003
2.111706e+003,1.210421e-003
2.113634e+003,1.221895e-003
2.115563e+003,1.233345e-003
2.117491e+003,1.244783e-003
2.119420e+003,1.256205e-003
2.121348e+003,1.267616e-003
2.123277e+003,1.279011e-003
2.125205e+003,1.290396e-003
2.127134e+003,1.301762e-003
2.129062e+003,1.313116e-003
2.130991e+003,1.324460e-003
2.132919e+003,1.335785e-003
2.134848e+003,1.347091e-003
2.136776e+003,1.358394e-003
2.138705e+003,1.369674e-003
2.140633e+003,1.380941e-003
2.142562e+003,1.392201e-003
2.144490e+003,1.403440e-003
2.146419e+003,1.414666e-003
2.148347e+003,1.425881e-003
2.150276e+003,1.437077e-003
2.152204e+003,1.448262e-003
2.154133e+003,1.459431e-003
2.156061e+003,1.470588e-003
2.157990e+003,1.481730e-003
2.159918e+003,1.492862e-003
2.161847e+003,1.503970e-003
2.163775e+003,1.515072e-003
2.165704e+003,1.526156e-003
2.167632e+003,1.537226e-003
2.169561e+003,1.548283e-003
2.171489e+003,1.559325e-003
2.173418e+003,1.570359e-003
2.175346e+003,1.581371e-003
2.177275e+003,1.592372e-003
2.179203e+003,1.603359e-003
2.181132e+003,1.614334e-003
2.183060e+003,1.625290e-003
2.184989e+003,1.636233e-003
2.186917e+003,1.647167e-003
2.188846e+003,1.658082e-003
2.190774e+003,1.668984e-003
2.192703e+003,1.679869e-003
2.194631e+003,1.690742e-003
2.196560e+003,1.701603e-003
2.198488e+003,1.712447e-003
2.200417e+003,1.723278e-003
2.202345e+003,1.734100e-003
2.204274e+003,1.744905e-003
2.206202e+003,1.755692e-003
2.208131e+003,1.766466e-003
2.210059e+003,1.777224e-003
2.211988e+003,1.787968e-003
2.213916e+003,1.798699e-003
2.215845e+003,1.809420e-003
2.217773e+003,1.820128e-003
2.219702e+003,1.830814e-003
2.221630e+003,1.841493e-003
2.223559e+003,1.852155e-003
2.225487e+003,1.862802e-003
2.227416e+003,1.873434e-003
2.229344e+003,1.884054e-003
2.231273e+003,1.894664e-003
2.233201e+003,1.905255e-003
2.235130e+003,1.915827e-003
2.237058e+003,1.926392e-003
2.238987e+003,1.936942e-003
2.240915e+003,1.947474e-003
2.242844e+003,1.957998e-003
2.244772e+003,1.968507e-003
2.246701e+003,1.979001e-003
2.248629e+003,1.989476e-003
2.250558e+003,1.999937e-003
2.252486e+003,2.010390e-003
2.254415e+003,2.020825e-003
2.256343e+003,2.031244e-003
2.258272e+003,2.041653e-003
2.260200e+003,2.052046e-003
2.262129e+003,2.062432e-003
2.264057e+003,2.072793e-003
2.265986e+003,2.083145e-003
2.267914e+003,2.093479e-003
2.269843e+003,2.103802e-003
2.271771e+003,2.114113e-003
2.273700e+003,2.124403e-003
2.275628e+003,2.134692e-003
2.277557e+003,2.144955e-003
2.279485e+003,2.155207e-003
2.281414e+003,2.165444e-003
2.283342e+003,2.175670e-003
2.285271e+003,2.185881e-003
2.287199e+003,2.196074e-003
2.289128e+003,2.206258e-003
2.291056e+003,2.216425e-003
2.292985e+003,2.226576e-003
2.294913e+003,2.236720e-003
2.296842e+003,2.246842e-003
2.298770e+003,2.256956e-003
2.300699e+003,2.267051e-003
2.302627e+003,2.277136e-003
2.304556e+003,2.287205e-003
2.306484e+003,2.297260e-003
2.308413e+003,2.307296e-003
2.310341e+003,2.317328e-003
2.312270e+003,2.327334e-003
2.314198e+003,2.337337e-003
2.316127e+003,2.347317e-003
2.318055e+003,2.357289e-003
2.319984e+003,2.367247e-003
2.321912e+003,2.377190e-003
2.323841e+003,2.387114e-003
2.325769e+003,2.397027e-003
2.327698e+003,2.406929e-003
2.329626e+003,2.416816e-003
2.331555e+003,2.426680e-003
2.333483e+003,2.436545e-003
2.335412e+003,2.446387e-003
2.337340e+003,2.456218e-003
2.339269e+003,2.466030e-003
2.341197e+003,2.475828e-003
2.343126e+003,2.485614e-003
2.345054e+003,2.495386e-003
2.346983e+003,2.505146e-003
2.348911e+003,2.514891e-003
2.350840e+003,2.524622e-003
2.352768e+003,2.534334e-003
2.354697e+003,2.544038e-003
2.356625e+003,2.553724e-003
2.358554e+003,2.563395e-003
2.360482e+003,2.573058e-003
2.362411e+003,2.582699e-003
2.364339e+003,2.592333e-003
2.366268e+003,2.601955e-003
2.368196e+003,2.611551e-003
2.370125e+003,2.621140e-003
2.372053e+003,2.630714e-003
2.373982e+003,2.640277e-003
2.375910e+003,2.649825e-003
2.377839e+003,2.659354e-003
2.379767e+003,2.668872e-003
2.381696e+003,2.678379e-003
2.383624e+003,2.687868e-003
2.385553e+003,2.697345e-003
2.387481e+003,2.706807e-003
2.389410e+003,2.716251e-003
2.391338e+003,2.725687e-003
2.393267e+003,2.735104e-003
2.395195e+003,2.744507e-003
2.397124e+003,2.753902e-003
2.399052e+003,2.763279e-003
2.400981e+003,2.713036e-003
2.402909e+003,2.818055e-003
2.404838e+003,2.932545e-003
2.406766e+003,3.119543e-003
2.408695e+003,3.306691e-003
2.410623e+003,3.318418e-003
2.412552e+003,3.443815e-003
2.414480e+003,3.522657e-003
2.416409e+003,3.574736e-003
2.418337e+003,3.508173e-003
2.420266e+003,3.449291e-003
2.422194e+003,3.362205e-003
2.424123e+003,3.331933e-003
2.426051e+003,3.432475e-003
2.427979e+003,3.528498e-003
2.429908e+003,3.446590e-003
2.431837e+003,3.559165e-003
2.433765e+003,3.779601e-003
2.435694e+003,3.842019e-003
2.437622e+003,3.673702e-003
2.439551e+003,3.637932e-003
2.441479e+003,3.733400e-003
2.443407e+003,3.783371e-003
2.445336e+003,3.732495e-003
2.447265e+003,3.739819e-003
2.449193e+003,3.842723e-003
2.451122e+003,4.031789e-003
2.453050e+003,4.113760e-003
2.454979e+003,4.208650e-003
2.456907e+003,4.061267e-003
2.458836e+003,3.851615e-003
2.460764e+003,3.959596e-003
2.462693e+003,4.190188e-003
2.464621e+003,4.127882e-003
2.466550e+003,4.105441e-003
2.468478e+003,4.165318e-003
2.470406e+003,4.257083e-003
2.472335e+003,4.277311e-003
2.474264e+003,4.373085e-003
2.476192e+003,4.246105e-003
2.478121e+003,4.226640e-003
2.480049e+003,4.396714e-003
2.481978e+003,4.529878e-003
2.483906e+003,4.564349e-003
2.485835e+003,4.538909e-003
2.487763e+003,4.511949e-003
2.489692e+003,4.544359e-003
2.491620e+003,4.478205e-003
2.493549e+003,4.572507e-003
2.495477e+003,4.660003e-003
2.497406e+003,4.847657e-003
2.499334e+003,4.881963e-003
2.501263e+003,4.919834e-003
2.503191e+003,4.948609e-003
2.505120e+003,4.995055e-003
2.507048e+003,4.984610e-003
2.508977e+003,4.994120e-003
2.510905e+003,4.982658e-003
2.512833e+003,5.019344e-003
2.514762e+003,5.071431e-003
2.516691e+003,5.220868e-003
2.518619e+003,5.421698e-003
2.520548e+003,5.639829e-003
2.522476e+003,5.625442e-003
2.524405e+003,5.616382e-003
2.526333e+003,5.704317e-003
2.528261e+003,5.860161e-003
2.530190e+003,5.812034e-003
2.532119e+003,5.675975e-003
2.534047e+003,5.755145e-003
2.535976e+003,5.990937e-003
2.537904e+003,5.973909e-003
2.539833e+003,5.907834e-003
2.541761e+003,5.994316e-003
2.543689e+003,6.156508e-003
2.545618e+003,6.306238e-003
2.547547e+003,6.495457e-003
2.549475e+003,6.683383e-003
2.551404e+003,6.815579e-003
2.553332e+003,6.550744e-003
2.555260e+003,6.505206e-003
2.557189e+003,6.758634e-003
2.559117e+003,6.880887e-003
2.561046e+003,7.034156e-003
2.562975e+003,7.232647e-003
2.564903e+003,7.280186e-003
2.566832e+003,7.378045e-003
2.568760e+003,7.480726e-003
2.570688e+003,7.585842e-003
2.572617e+003,7.587355e-003
2.574546e+003,7.926583e-003
2.576474e+003,8.246131e-003
2.578403e+003,8.328993e-003
2.580331e+003,8.407161e-003
2.582260e+003,8.541834e-003
2.584188e+003,8.575261e-003
2.586116e+003,8.723866e-003
2.588045e+003,8.859035e-003
2.589974e+003,9.025190e-003
2.591902e+003,9.208571e-003
2.593831e+003,9.505305e-003
2.595759e+003,9.689324e-003
2.597688e+003,9.763043e-003
2.599616e+003,9.829395e-003
2.601544e+003,1.016754e-002
2.603473e+003,1.050562e-002
2.605402e+003,1.062427e-002
2.607330e+003,1.063207e-002
2.609259e+003,1.085470e-002
2.611187e+003,1.118175e-002
2.613115e+003,1.144090e-002
2.615044e+003,1.159719e-002
2.616972e+003,1.188981e-002
2.618901e+003,1.227669e-002
2.620830e+003,1.266487e-002
2.622758e+003,1.291517e-002
2.624687e+003,1.321771e-002
2.626615e+003,1.357710e-002
2.628543e+003,1.393162e-002
2.630472e+003,1.419257e-002
2.632400e+003,1.443003e-002
2.634329e+003,1.461484e-002
2.636258e+003,1.473597e-002
2.638186e+003,1.475673e-002
2.640115e+003,1.478682e-002
2.642043e+003,1.475788e-002
2.643971e+003,1.480195e-002
2.645900e+003,1.490189e-002
2.647828e+003,1.501836e-002
2.649757e+003,1.511800e-002
2.651686e+003,1.518789e-002
2.653614e+003,1.538227e-002
2.655542e+003,1.558992e-002
2.657471e+003,1.567266e-002
2.659399e+003,1.565022e-002
2.661328e+003,1.553223e-002
2.663256e+003,1.540095e-002
2.665185e+003,1.519309e-002
2.667114e+003,1.503059e-002
2.669042e+003,1.492461e-002
2.670970e+003,1.483695e-002
2.672899e+003,1.468176e-002
2.674827e+003,1.458033e-002
2.676756e+003,1.456429e-002
2.678685e+003,1.457659e-002
2.680613e+003,1.456538e-002
2.682542e+003,1.462491e-002
2.684470e+003,1.463290e-002
2.686398e+003,1.462263e-002
2.688327e+003,1.469321e-002
2.690255e+003,1.480246e-002
2.692184e+003,1.483826e-002
2.694113e+003,1.491700e-002
2.696041e+003,1.500415e-002
2.697969e+003,1.511858e-002
2.699898e+003,1.528674e-002
2.701826e+003,1.551618e-002
2.703755e+003,1.566285e-002
2.705683e+003,1.574546e-002
2.707612e+003,1.596454e-002
2.709541e+003,1.617773e-002
2.711469e+003,1.629279e-002
2.713397e+003,1.643904e-002
2.715326e+003,1.662522e-002
2.717254e+003,1.676754e-002
2.719183e+003,1.696938e-002
2.721111e+003,1.720115e-002
2.723040e+003,1.738536e-002
2.724969e+003,1.764509e-002
2.726897e+003,1.790096e-002
2.728825e+003,1.811664e-002
2.730754e+003,1.832514e-002
2.732682e+003,1.852823e-002
2.734611e+003,1.876438e-002
2.736539e+003,1.901343e-002
2.738468e+003,1.924314e-002
2.740396e+003,1.941593e-002
2.742325e+003,1.955730e-002
2.744253e+003,1.969893e-002
2.746182e+003,1.973620e-002
2.748110e+003,1.981734e-002
2.750039e+003,1.999496e-002
2.751967e+003,2.020746e-002
2.753896e+003,2.047849e-002
2.755824e+003,2.071857e-002
2.757753e+003,2.102646e-002
2.759681e+003,2.144405e-002
2.761610e+003,2.182491e-002
2.763538e+003,2.224796e-002
2.765467e+003,2.269685e-002
2.767395e+003,2.310859e-002
2.769324e+003,2.357042e-002
2.771252e+003,2.410487e-002
2.773181e+003,2.466550e-002
2.775109e+003,2.519775e-002
2.777038e+003,2.588227e-002
2.778966e+003,2.664929e-002
2.780895e+003,2.742529e-002
2.782823e+003,2.837045e-002
2.784752e+003,2.934177e-002
2.786680e+003,3.029717e-002
2.788609e+003,3.139901e-002
2.790537e+003,3.252485e-002
2.792466e+003,3.364615e-002
2.794394e+003,3.481970e-002
2.796323e+003,3.600154e-002
2.798251e+003,3.729142e-002
2.800180e+003,3.866056e-002
2.802108e+003,4.007462e-002
2.804037e+003,4.166746e-002
2.805965e+003,4.338457e-002
2.807894e+003,4.523934e-002
2.809822e+003,4.728758e-002
2.811751e+003,4.972732e-002
2.813679e+003,5.251124e-002
2.815608e+003,5.561259e-002
2.817536e+003,5.915277e-002
2.819465e+003,6.330179e-002
2.821393e+003,6.823462e-002
2.823322e+003,7.402790e-002
2.825250e+003,8.095941e-002
2.827179e+003,8.945185e-002
2.829107e+003,9.991620e-002
2.831036e+003,1.130899e-001
2.832964e+003,1.300631e-001
2.834893e+003,1.526445e-001
2.836821e+003,1.832241e-001
2.838750e+003,2.253234e-001
2.840678e+003,2.842294e-001
2.842607e+003,3.643586e-001
2.844535e+003,4.600773e-001
2.846464e+003,5.350155e-001
2.848392e+003,5.246798e-001
2.850321e+003,4.261324e-001
2.852249e+003,3.133248e-001
2.854178e+003,2.304488e-001
2.856106e+003,1.752662e-001
2.858035e+003,1.376750e-001
2.859963e+003,1.121133e-001
2.861892e+003,9.539442e-002
2.863820e+003,8.520944e-002
2.865749e+003,7.980707e-002
2.867677e+003,7.808731e-002
2.869606e+003,7.933490e-002
2.871534e+003,8.318304e-002
2.873463e+003,8.961644e-002
2.875391e+003,9.871591e-002
2.877320e+003,1.103014e-001
2.879248e+003,1.237601e-001
2.881177e+003,1.382123e-001
2.883105e+003,1.531255e-001
2.885034e+003,1.682631e-001
2.886962e+003,1.834099e-001
2.888891e+003,1.985599e-001
2.890819e+003,2.134310e-001
2.892748e+003,2.279588e-001
2.894676e+003,2.421785e-001
2.896605e+003,2.564405e-001
2.898533e+003,2.715093e-001
2.900462e+003,2.885697e-001
2.902390e+003,3.095138e-001
2.904319e+003,3.369202e-001
2.906247e+003,3.736747e-001
2.908176e+003,4.221583e-001
2.910104e+003,4.820408e-001
2.912033e+003,5.439784e-001
2.913961e+003,5.830587e-001
2.915890e+003,5.725889e-001
2.917818e+003,5.160762e-001
2.919747e+003,4.415126e-001
2.921675e+003,3.696118e-001
2.923604e+003,3.076943e-001
2.925532e+003,2.570411e-001
2.927461e+003,2.159526e-001
2.929389e+003,1.816855e-001
2.931318e+003,1.523851e-001
2.933246e+003,1.273283e-001
2.935175e+003,1.060796e-001
2.937103e+003,8.819000e-002
2.939032e+003,7.314599e-002
2.940960e+003,6.066874e-002
2.942889e+003,5.058195e-002
2.944817e+003,4.255518e-002
2.946746e+003,3.632443e-002
2.948674e+003,3.177025e-002
2.950603e+003,2.841896e-002
2.952531e+003,2.572779e-002
2.954460e+003,2.339944e-002
2.956388e+003,2.135516e-002
2.958317e+003,1.942659e-002
2.960245e+003,1.758184e-002
2.962174e+003,1.586664e-002
2.964102e+003,1.439828e-002
2.966031e+003,1.312630e-002
2.967959e+003,1.205192e-002
2.969888e+003,1.111520e-002
2.971816e+003,1.023929e-002
2.973745e+003,9.366415e-003
2.975673e+003,8.715451e-003
2.977602e+003,8.181907e-003
2.979530e+003,7.653296e-003
2.981459e+003,7.177509e-003
2.983387e+003,6.905150e-003
2.985316e+003,6.622620e-003
2.987244e+003,6.305799e-003
2.989173e+003,6.020471e-003
2.991101e+003,5.920462e-003
2.993030e+003,5.798627e-003
2.994958e+003,5.653992e-003
2.996887e+003,5.608182e-003
2.998815e+003,5.597930e-003
3.000744e+003,5.703896e-003
3.002672e+003,5.719755e-003
3.004601e+003,5.638406e-003
3.006529e+003,5.631588e-003
3.008458e+003,5.654290e-003
3.010386e+003,5.725395e-003
3.012315e+003,5.744528e-003
3.014243e+003,5.839773e-003
3.016172e+003,5.936887e-003
3.018100e+003,5.943399e-003
3.020029e+003,5.979262e-003
3.021957e+003,6.078470e-003
3.023886e+003,6.209902e-003
3.025814e+003,6.322686e-003
3.027743e+003,6.367031e-003
3.029671e+003,6.479409e-003
3.031600e+003,6.606709e-003
3.033528e+003,6.709769e-003
3.035457e+003,6.779350e-003
3.037385e+003,6.670695e-003
3.039314e+003,6.545283e-003
3.041242e+003,6.629363e-003
3.043171e+003,6.627869e-003
3.045099e+003,6.586384e-003
3.047028e+003,6.595932e-003
3.048956e+003,6.724723e-003
3.050885e+003,6.800085e-003
3.052813e+003,6.815609e-003
3.054742e+003,6.907254e-003
3.056670e+003,7.028956e-003
3.058599e+003,7.135238e-003
3.060527e+003,7.191874e-003
3.062456e+003,7.174231e-003
3.064384e+003,7.284243e-003
3.066313e+003,7.440988e-003
3.068241e+003,7.673483e-003
3.070170e+003,7.829838e-003
3.072098e+003,7.873513e-003
3.074027e+003,7.920612e-003
3.075955e+003,8.020241e-003
3.077884e+003,8.243777e-003
3.079812e+003,8.402634e-003
3.081741e+003,8.478869e-003
3.083669e+003,8.524828e-003
3.085598e+003,8.572951e-003
3.087526e+003,8.701775e-003
3.089455e+003,8.793317e-003
3.091383e+003,8.884743e-003
3.093312e+003,8.854352e-003
3.095240e+003,8.832313e-003
3.097169e+003,8.806612e-003
3.099097e+003,8.876875e-003
3.101026e+003,8.924879e-003
3.102954e+003,8.936297e-003
3.104883e+003,9.014085e-003
3.106811e+003,9.021480e-003
3.108740e+003,9.078827e-003
3.110668e+003,9.241410e-003
3.112597e+003,9.435389e-003
3.114525e+003,9.637225e-003
3.116454e+003,9.794451e-003
3.118382e+003,9.928882e-003
3.120311e+003,1.006423e-002
3.122239e+003,1.028020e-002
3.124168e+003,1.046480e-002
3.126096e+003,1.058423e-002
3.128025e+003,1.069420e-002
3.129953e+003,1.101654e-002
3.131882e+003,1.126221e-002
3.133810e+003,1.132719e-002
3.135739e+003,1.149053e-002
3.137667e+003,1.178871e-002
3.139596e+003,1.204754e-002
3.141524e+003,1.226703e-002
3.143453e+003,1.244527e-002
3.145381e+003,1.260406e-002
3.147310e+003,1.276382e-002
3.149238e+003,1.302128e-002
3.151167e+003,1.327811e-002
3.153095e+003,1.340514e-002
3.155024e+003,1.362048e-002
3.156952e+003,1.392978e-002
3.158881e+003,1.414454e-002
3.160809e+003,1.441757e-002
3.162738e+003,1.467937e-002
3.164666e+003,1.493561e-002
3.166594e+003,1.514555e-002
3.168523e+003,1.531005e-002
3.170452e+003,1.558155e-002
3.172380e+003,1.583036e-002
3.174309e+003,1.606302e-002
3.176237e+003,1.643963e-002
3.178166e+003,1.669301e-002
3.180094e+003,1.688805e-002
3.182022e+003,1.713300e-002
3.183951e+003,1.743660e-002
3.185880e+003,1.759650e-002
3.187808e+003,1.782714e-002
3.189737e+003,1.819522e-002
3.191665e+003,1.847555e-002
3.193594e+003,1.867896e-002
3.195522e+003,1.893426e-002
3.197450e+003,1.913590e-002
3.199379e+003,1.929283e-002
3.201308e+003,1.955820e-002
3.203236e+003,1.986914e-002
3.205165e+003,2.015692e-002
3.207093e+003,2.047100e-002
3.209021e+003,2.067802e-002
3.210950e+003,2.089386e-002
3.212878e+003,2.112492e-002
3.214807e+003,2.132690e-002
3.216736e+003,2.163202e-002
3.218664e+003,2.197143e-002
3.220593e+003,2.221952e-002
3.222521e+003,2.240410e-002
3.224449e+003,2.269199e-002
3.226378e+003,2.291261e-002
3.228307e+003,2.310714e-002
3.230235e+003,2.333378e-002
3.232164e+003,2.360309e-002
3.234092e+003,2.391154e-002
3.236021e+003,2.411445e-002
3.237949e+003,2.430870e-002
3.239877e+003,2.458844e-002
3.241806e+003,2.487888e-002
3.243735e+003,2.527158e-002
3.245663e+003,2.557124e-002
3.247592e+003,2.570555e-002
3.249520e+003,2.584589e-002
3.251448e+003,2.600268e-002
3.253377e+003,2.629682e-002
3.255305e+003,2.661265e-002
3.257234e+003,2.684782e-002
3.259163e+003,2.712646e-002
3.261091e+003,2.745820e-002
3.263020e+003,2.769149e-002
3.264948e+003,2.784830e-002
3.266876e+003,2.794966e-002
3.268805e+003,2.810893e-002
3.270733e+003,2.834985e-002
3.272662e+003,2.868118e-002
3.274591e+003,2.885783e-002
3.276519e+003,2.912081e-002
3.278448e+003,2.927857e-002
3.280376e+003,2.947097e-002
3.282304e+003,2.967482e-002
3.284233e+003,2.976410e-002
3.286161e+003,2.993426e-002
3.288090e+003,3.018039e-002
3.290019e+003,3.032097e-002
3.291947e+003,3.052172e-002
3.293875e+003,3.065906e-002
3.295804e+003,3.079216e-002
3.297732e+003,3.100342e-002
3.299661e+003,3.108598e-002
3.301589e+003,3.110363e-002
3.303518e+003,3.125314e-002
3.305447e+003,3.148577e-002
3.307375e+003,3.164652e-002
3.309303e+003,3.177909e-002
3.311232e+003,3.194791e-002
3.313160e+003,3.213141e-002
3.315089e+003,3.223381e-002
3.317018e+003,3.232865e-002
3.318946e+003,3.250426e-002
3.320875e+003,3.262559e-002
3.322803e+003,3.272817e-002
3.324731e+003,3.283457e-002
3.326660e+003,3.303084e-002
3.328588e+003,3.324607e-002
3.330517e+003,3.338600e-002
3.332446e+003,3.347708e-002
3.334374e+003,3.354688e-002
3.336302e+003,3.372160e-002
3.338231e+003,3.387945e-002
3.340159e+003,3.387339e-002
3.342088e+003,3.384714e-002
3.344016e+003,3.398981e-002
3.345945e+003,3.409733e-002
3.347874e+003,3.406813e-002
3.349802e+003,3.407946e-002
3.351730e+003,3.423713e-002
3.353659e+003,3.436700e-002
3.355587e+003,3.440510e-002
3.357516e+003,3.448919e-002
3.359444e+003,3.451733e-002
3.361373e+003,3.453087e-002
3.363302e+003,3.447503e-002
3.365230e+003,3.447554e-002
3.367158e+003,3.445961e-002
3.369087e+003,3.439965e-002
3.371015e+003,3.441501e-002
3.372944e+003,3.449094e-002
3.374872e+003,3.448480e-002
3.376801e+003,3.439914e-002
3.378729e+003,3.440245e-002
3.380658e+003,3.437130e-002
3.382586e+003,3.424674e-002
3.384515e+003,3.419548e-002
3.386443e+003,3.408913e-002
3.388372e+003,3.400719e-002
3.390300e+003,3.385250e-002
3.392229e+003,3.368195e-002
3.394157e+003,3.352130e-002
3.396086e+003,3.360346e-002
3.398014e+003,3.357248e-002
3.399943e+003,3.349006e-002
3.401871e+003,3.334551e-002
3.403800e+003,3.310551e-002
3.405728e+003,3.297698e-002
3.407657e+003,3.284091e-002
3.409585e+003,3.257672e-002
3.411514e+003,3.232611e-002
3.413442e+003,3.217365e-002
3.415371e+003,3.208549e-002
3.417299e+003,3.196664e-002
3.419228e+003,3.187534e-002
3.421156e+003,3.159872e-002
3.423085e+003,3.129828e-002
3.425013e+003,3.105004e-002
3.426942e+003,3.086785e-002
3.428870e+003,3.065695e-002
3.430799e+003,3.042905e-002
3.432727e+003,3.022978e-002
3.434656e+003,3.013363e-002
3.436584e+003,2.982506e-002
3.438513e+003,2.953682e-002
3.440441e+003,2.936121e-002
3.442370e+003,2.908865e-002
3.444298e+003,2.883956e-002
3.446227e+003,2.873144e-002
3.448155e+003,2.837323e-002
3.450084e+003,2.797715e-002
3.452012e+003,2.763677e-002
3.453941e+003,2.739834e-002
3.455869e+003,2.704820e-002
3.457798e+003,2.681261e-002
3.459726e+003,2.665290e-002
3.461655e+003,2.645553e-002
3.463583e+003,2.614375e-002
3.465512e+003,2.594625e-002
3.467440e+003,2.555681e-002
3.469369e+003,2.516713e-002
3.471297e+003,2.502967e-002
3.473226e+003,2.489157e-002
3.475154e+003,2.452382e-002
3.477083e+003,2.416094e-002
3.479011e+003,2.398090e-002
3.480940e+003,2.379194e-002
3.482868e+003,2.338048e-002
3.484797e+003,2.298283e-002
3.486725e+003,2.262452e-002
3.488654e+003,2.231311e-002
3.490582e+003,2.197101e-002
3.492511e+003,2.170020e-002
3.494439e+003,2.137142e-002
3.496368e+003,2.103287e-002
3.498296e+003,2.075938e-002
3.500225e+003,2.073482e-002
3.502153e+003,2.070013e-002
3.504082e+003,2.024013e-002
3.506010e+003,1.974877e-002
3.507939e+003,1.950301e-002
3.509867e+003,1.904884e-002
3.511796e+003,1.860996e-002
3.513724e+003,1.827863e-002
3.515653e+003,1.795222e-002
3.517581e+003,1.767103e-002
3.519510e+003,1.740418e-002
3.521438e+003,1.722235e-002
3.523367e+003,1.691807e-002
3.525295e+003,1.644319e-002
3.527224e+003,1.617316e-002
3.529152e+003,1.560179e-002
3.531081e+003,1.513479e-002
3.533009e+003,1.479470e-002
3.534938e+003,1.461558e-002
3.536866e+003,1.416328e-002
3.538795e+003,1.372222e-002
3.540723e+003,1.346322e-002
3.542652e+003,1.345045e-002
3.544580e+003,1.353832e-002
3.546509e+003,1.299695e-002
3.548437e+003,1.226388e-002
3.550366e+003,1.193023e-002
3.552294e+003,1.156358e-002
3.554223e+003,1.113755e-002
3.556151e+003,1.080306e-002
3.558080e+003,1.057355e-002
3.560008e+003,1.023774e-002
3.561937e+003,9.953998e-003
3.563865e+003,1.013657e-002
3.565794e+003,1.055380e-002
3.567722e+003,9.749122e-003
3.569651e+003,8.852705e-003
3.571579e+003,8.523397e-003
3.573508e+003,8.243572e-003
3.575436e+003,7.673562e-003
3.577365e+003,7.251546e-003
3.579293e+003,6.919593e-003
3.581222e+003,6.577868e-003
3.583150e+003,6.469097e-003
3.585079e+003,6.978255e-003
3.587007e+003,7.249139e-003
3.588936e+003,6.227508e-003
3.590864e+003,5.905170e-003
3.592793e+003,5.908016e-003
3.594721e+003,5.777895e-003
3.596650e+003,5.846113e-003
3.598578e+003,5.835548e-003
3.600507e+003,5.595114e-003
3.602435e+003,4.928276e-003
3.604364e+003,4.859027e-003
3.606292e+003,5.207479e-003
3.608221e+003,4.778974e-003
3.610149e+003,4.326463e-003
3.612078e+003,4.423168e-003
3.614006e+003,3.736634e-003
3.615935e+003,3.649142e-003
3.617863e+003,3.920786e-003
3.619792e+003,3.194962e-003
3.621720e+003,2.434310e-003
3.623649e+003,2.157103e-003
3.625577e+003,2.560690e-003
3.627506e+003,3.464535e-003
3.629434e+003,2.609044e-003
3.631363e+003,1.910727e-003
3.633291e+003,1.903612e-003
3.635220e+003,1.435760e-003
3.637148e+003,1.256235e-003
3.639077e+003,1.266442e-003
3.641005e+003,1.149595e-003
3.642934e+003,9.254739e-004
3.644862e+003,1.323394e-003
3.646791e+003,2.333570e-003
3.648719e+003,2.717499e-003
3.650648e+003,1.406830e-003
3.652576e+003,7.505752e-004
3.654505e+003,1.344357e-003
3.656433e+003,8.496158e-004
3.658362e+003,-2.574176e-006
3.660290e+003,-5.547330e-005
3.662219e+003,-2.312250e-004
3.664147e+003,-5.788803e-004
3.666076e+003,-3.838576e-004
3.668004e+003,3.981069e-004
3.669933e+003,1.725219e-004
3.671861e+003,-1.348220e-004
3.673790e+003,1.023307e-003
3.675718e+003,7.823482e-004
3.677647e+003,3.906339e-005
3.679575e+003,-1.575761e-004
3.681504e+003,-6.490052e-004
3.683432e+003,-6.370097e-004
3.685361e+003,-1.993626e-004
3.687289e+003,3.874078e-004
3.689218e+003,2.227835e-004
3.691146e+003,-3.274865e-004
3.693075e+003,-5.191267e-004
3.695003e+003,-5.375482e-004
3.696932e+003,-6.239004e-004
3.698860e+003,-3.695823e-004
3.700789e+003,-9.990484e-005
3.702717e+003,-5.979314e-004
3.704646e+003,-6.204098e-004
3.706574e+003,-5.071089e-004
3.708503e+003,-1.156740e-004
3.710431e+003,5.798191e-004
3.712360e+003,-1.656115e-004
3.714288e+003,-5.941205e-004
3.716217e+003,-4.187562e-004
3.718145e+003,-2.344288e-004
3.720074e+003,-1.335293e-004
3.722002e+003,7.625297e-005
3.723931e+003,1.760200e-004
3.725859e+003,-1.336932e-004
3.727788e+003,-5.355030e-004
3.729716e+003,-2.156198e-005
3.731645e+003,8.064583e-004
3.733573e+003,1.478061e-003
3.735502e+003,1.663744e-003
3.737430e+003,3.952123e-004
3.739359e+003,2.363063e-004
3.741287e+003,6.932653e-004
3.743216e+003,1.484685e-003
3.745144e+003,1.190376e-003
3.747073e+003,1.523115e-003
3.749001e+003,2.468962e-003
3.750930e+003,2.303179e-003
3.752858e+003,9.988062e-004
3.754787e+003,7.072538e-004
3.756715e+003,1.069795e-003
3.758644e+003,1.132298e-003
3.760572e+003,3.784746e-004
3.762501e+003,3.239438e-004
3.764429e+003,7.521398e-004
3.766358e+003,5.404018e-004
3.768286e+003,7.992350e-004
3.770215e+003,8.130595e-004
3.772143e+003,3.341883e-004
3.774072e+003,2.025515e-004
3.776000e+003,2.813302e-004
3.777929e+003,6.393157e-004
3.779857e+003,4.691482e-004
3.781786e+003,3.463291e-004
3.783714e+003,5.786978e-004
3.785643e+003,1.653619e-004
3.787571e+003,3.533065e-005
3.789500e+003,1.047552e-005
3.791428e+003,-1.796000e-004
3.793357e+003,1.885407e-004
3.795285e+003,6.937124e-004
3.797214e+003,6.057881e-004
3.799142e+003,1.346681e-003
3.801071e+003,1.425739e-003
3.802999e+003,2.573356e-004
3.804927e+003,9.428486e-004
3.806856e+003,9.411983e-004
3.808785e+003,1.242273e-004
3.810713e+003,1.914091e-004
3.812642e+003,6.344728e-004
3.814570e+003,1.238022e-003
3.816499e+003,7.953234e-004
3.818427e+003,1.516424e-003
3.820355e+003,2.573945e-003
3.822284e+003,1.052164e-003
3.824213e+003,1.083627e-003
3.826141e+003,9.493381e-004
3.828070e+003,2.551004e-004
3.829998e+003,7.023960e-004
3.831927e+003,8.602142e-004
3.833855e+003,1.001257e-003
3.835783e+003,1.667291e-003
3.837712e+003,1.823395e-003
3.839641e+003,1.560487e-003
3.841569e+003,1.298659e-003
3.843498e+003,1.040548e-003
3.845426e+003,7.018782e-004
3.847354e+003,9.051934e-004
3.849283e+003,1.516469e-003
3.851211e+003,2.553139e-003
3.853140e+003,2.997566e-003
3.855069e+003,1.478564e-003
3.856997e+003,1.270808e-003
3.858926e+003,1.102649e-003
3.860854e+003,1.475263e-003
3.862782e+003,1.805834e-003
3.864711e+003,1.392379e-003
3.866640e+003,1.215283e-003
3.868568e+003,2.033338e-003
3.870497e+003,1.665041e-003
3.872425e+003,1.943182e-003
3.874354e+003,1.662221e-003
3.876282e+003,9.693876e-004
3.878210e+003,1.769401e-003
3.880139e+003,1.975257e-003
3.882068e+003,1.594484e-003
3.883996e+003,2.447415e-003
3.885925e+003,1.694273e-003
3.887853e+003,1.179762e-003
3.889781e+003,1.966614e-003
3.891710e+003,1.750465e-003
3.893638e+003,1.101263e-003
3.895567e+003,1.354296e-003
3.897496e+003,1.954887e-003
3.899424e+003,2.266463e-003
3.901353e+003,2.462827e-003
3.903281e+003,2.645075e-003
3.905209e+003,1.770057e-003
3.907138e+003,1.319304e-003
3.909066e+003,1.325656e-003
3.910995e+003,1.254279e-003
3.912924e+003,1.224667e-003
3.914852e+003,1.666497e-003
3.916781e+003,1.835957e-003
3.918709e+003,1.517020e-003
3.920637e+003,1.362905e-003
3.922566e+003,1.677576e-003
3.924494e+003,1.768529e-003
3.926423e+003,1.282085e-003
3.928352e+003,1.526609e-003
3.930280e+003,1.680627e-003
3.932208e+003,1.481198e-003
3.934137e+003,1.090996e-003
3.936065e+003,9.333380e-004
3.937994e+003,9.848848e-004
3.939922e+003,1.365293e-003
3.941851e+003,1.685224e-003
3.943780e+003,1.302324e-003
3.945708e+003,1.300991e-003
3.947636e+003,1.571275e-003
3.949565e+003,1.292769e-003
3.951493e+003,1.065858e-003
3.953422e+003,1.103386e-003
3.955351e+003,1.275785e-003
3.957279e+003,1.267351e-003
3.959208e+003,1.151174e-003
3.961136e+003,1.223944e-003
3.963064e+003,1.138858e-003
3.964993e+003,1.049474e-003
3.966921e+003,1.084082e-003
3.968850e+003,1.122788e-003
3.970779e+003,1.131598e-003
3.972707e+003,1.221530e-003
3.974635e+003,1.181629e-003
3.976564e+003,1.063619e-003
3.978492e+003,1.045667e-003
3.980421e+003,1.101200e-003
3.982349e+003,1.040250e-003
3.984278e+003,8.770116e-004
3.986207e+003,9.037033e-004
3.988135e+003,1.039572e-003
3.990063e+003,9.995028e-004
3.991992e+003,9.038635e-004
3.993920e+003,1.018703e-003
3.995849e+003,1.056302e-003
3.997777e+003,9.403899e-004
3.999706e+003,8.161403e-004
4.001635e+003,0.000000e+000
