3.991992e+002,0.000000e+000
4.011277e+002,0.000000e+000
4.030562e+002,0.000000e+000
4.049846e+002,0.000000e+000
4.069131e+002,0.000000e+000
4.088416e+002,0.000000e+000
4.107701e+002,0.000000e+000
4.126986e+002,0.000000e+000
4.146271e+002,0.000000e+000
4.165556e+002,0.000000e+000
4.184841e+002,0.000000e+000
4.204126e+002,0.000000e+000
4.223411e+002,0.000000e+000
4.242697e+002,0.000000e+000
4.261982e+002,0.000000e+000
4.281266e+002,0.000000e+000
4.300551e+002,0.000000e+000
4.319836e+002,0.000000e+000
4.339121e+002,0.000000e+000
4.358406e+002,0.000000e+000
4.377691e+002,0.000000e+000
4.396976e+002,0.000000e+000
4.416261e+002,0.000000e+000
4.435546e+002,0.000000e+000
4.454831e+002,0.000000e+000
4.474116e+002,0.000000e+000
4.493401e+002,0.000000e+000
4.512686e+002,0.000000e+000
4.531971e+002,0.000000e+000
4.551256e+002,0.000000e+000
4.570541e+002,0.000000e+000
4.589826e+002,0.000000e+000
4.609111e+002,0.000000e+000
4.628396e+002,0.000000e+000
4.647681e+002,0.000000e+000
4.666966e+002,0.000000e+000
4.686251e+002,0.000000e+000
4.705536e+002,0.000000e+000
4.724821e+002,0.000000e+000
4.744106e+002,0.000000e+000
4.763391e+002,0.000000e+000
4.782676e+002,0.000000e+000
4.801961e+002,0.000000e+000
4.821246e+002,0.000000e+000
4.840531e+002,0.000000e+000
4.859816e+002,0.000000e+000
4.879101e+002,0.000000e+000
4.898386e+002,0.000000e+000
4.917671e+002,0.000000e+000
4.936956e+002,0.000000e+000
4.956241e+002,0.000000e+000
4.975526e+002,0.000000e+000
4.994811e+002,0.000000e+000
5.014096e+002,0.000000e+000
5.033381e+002,0.000000e+000
5.052666e+002,0.000000e+000
5.071951e+002,0.000000e+000
5.091236e+002,0.000000e+000
5.110521e+002,0.000000e+000
5.129806e+002,0.000000e+000
5.149091e+002,0.000000e+000
5.168376e+002,0.000000e+000
5.187661e+002,0.000000e+000
5.206946e+002,0.000000e+000
5.226230e+002,0.000000e+000
5.245516e+002,-5.046185e-004
5.264800e+002,-6.362302e-004
5.284086e+002,-7.132357e-004
5.303370e+002,-6.545624e-004
5.322656e+002,-5.399073e-004
5.341940e+002,-6.537754e-004
5.361226e+002,-7.051714e-004
5.380510e+002,-6.893389e-004
5.399796e+002,-6.865431e-004
5.419081e+002,-6.636493e-004
5.438365e+002,-6.992202e-004
5.457650e+002,-7.357700e-004
5.476935e+002,-6.608609e-004
5.496221e+002,-5.649664e-004
5.515505e+002,-5.049715e-004
5.534790e+002,-4.598806e-004
5.554075e+002,-4.498512e-004
5.573361e+002,-5.257307e-004
5.592645e+002,-6.259372e-004
5.611931e+002,-8.127745e-004
5.631215e+002,-8.083610e-004
5.650500e+002,-6.692065e-004
5.669785e+002,-7.437347e-004
5.689070e+002,-8.280538e-004
5.708355e+002,-8.188011e-004
5.727640e+002,-9.029610e-004
5.746925e+002,-8.628396e-004
5.766210e+002,-8.632038e-004
5.785495e+002,-8.514207e-004
5.804780e+002,-7.156432e-004
5.824065e+002,-7.038331e-004
5.843350e+002,-8.211276e-004
5.862635e+002,-8.166796e-004
5.881920e+002,-8.589113e-004
5.901205e+002,-7.944899e-004
5.920490e+002,-7.381123e-004
5.939775e+002,-6.940058e-004
5.959060e+002,-6.888947e-004
5.978345e+002,-6.238548e-004
5.997630e+002,-5.494002e-004
6.016915e+002,-5.005989e-004
6.036200e+002,-5.068108e-004
6.055485e+002,-4.202733e-004
6.074770e+002,-4.280852e-004
6.094055e+002,-4.104413e-004
6.113340e+002,-4.429659e-004
6.132625e+002,-5.236557e-004
6.151910e+002,-6.123409e-004
6.171195e+002,-6.261365e-004
6.190480e+002,-5.749017e-004
6.209765e+002,-4.874626e-004
6.229050e+002,-3.495347e-004
6.248335e+002,-2.134591e-004
6.267620e+002,-2.427204e-004
6.286905e+002,-2.228068e-004
6.306190e+002,-2.323473e-004
6.325475e+002,-1.892261e-004
6.344760e+002,-1.417380e-004
6.364045e+002,-1.131464e-005
6.383330e+002,-3.053620e-005
6.402615e+002,1.116181e-004
6.421899e+002,1.208028e-004
6.441185e+002,5.241204e-005
6.460470e+002,3.769994e-006
6.479755e+002,4.752725e-005
6.499039e+002,6.120093e-005
6.518325e+002,1.581442e-004
6.537610e+002,1.414912e-004
6.556895e+002,1.518223e-004
6.576179e+002,2.186708e-004
6.595464e+002,3.982177e-004
6.614750e+002,4.229993e-004
6.634034e+002,4.230160e-004
6.653319e+002,3.390843e-004
6.672604e+002,4.391056e-004
6.691890e+002,4.921146e-004
6.711174e+002,6.173914e-004
6.730460e+002,7.281173e-004
6.749745e+002,8.341959e-004
6.769030e+002,8.880822e-004
6.788314e+002,1.150477e-003
6.807599e+002,1.401718e-003
6.826885e+002,1.658564e-003
6.846169e+002,1.729374e-003
6.865454e+002,1.908430e-003
6.884739e+002,2.020621e-003
6.904025e+002,2.309673e-003
6.923309e+002,2.646448e-003
6.942594e+002,3.078178e-003
6.961879e+002,3.473774e-003
6.981165e+002,4.174447e-003
7.000449e+002,4.951905e-003
7.019734e+002,6.111663e-003
7.039019e+002,7.601473e-003
7.058304e+002,9.739161e-003
7.077589e+002,1.255801e-002
7.096874e+002,1.701920e-002
7.116159e+002,2.409397e-002
7.135444e+002,3.775958e-002
7.154729e+002,6.459434e-002
7.174014e+002,1.084731e-001
7.193299e+002,1.270382e-001
7.212584e+002,8.468809e-002
7.231869e+002,4.874533e-002
7.251154e+002,3.988243e-002
7.270439e+002,5.066817e-002
7.289724e+002,8.080668e-002
7.309009e+002,8.638421e-002
7.328294e+002,4.783639e-002
7.347579e+002,1.985204e-002
7.366864e+002,1.038712e-002
7.386149e+002,6.922787e-003
7.405434e+002,4.934330e-003
7.424719e+002,3.879767e-003
7.444004e+002,3.181717e-003
7.463289e+002,2.753841e-003
7.482574e+002,2.269153e-003
7.501859e+002,1.944949e-003
7.521144e+002,1.606211e-003
7.540428e+002,1.400256e-003
7.559714e+002,1.157890e-003
7.578999e+002,1.045301e-003
7.598284e+002,9.297859e-004
7.617568e+002,8.343030e-004
7.636854e+002,7.438576e-004
7.656139e+002,7.333644e-004
7.675424e+002,6.713523e-004
7.694709e+002,6.078547e-004
7.713994e+002,4.918603e-004
7.733279e+002,4.565706e-004
7.752563e+002,3.592828e-004
7.771849e+002,3.150105e-004
7.791134e+002,2.339100e-004
7.810419e+002,1.781704e-004
7.829703e+002,5.438365e-005
7.848989e+002,8.058734e-005
7.868274e+002,1.312084e-004
7.887559e+002,1.733722e-004
7.906843e+002,2.049934e-004
7.926129e+002,2.697511e-004
7.945414e+002,2.291063e-004
7.964698e+002,1.586201e-004
7.983983e+002,1.205299e-004
8.003268e+002,1.197513e-004
8.022554e+002,1.577856e-004
8.041838e+002,2.903072e-004
8.061123e+002,2.784515e-004
8.080408e+002,2.562441e-004
8.099694e+002,2.021510e-004
8.118978e+002,1.241751e-004
8.138263e+002,3.722589e-005
8.157548e+002,2.989359e-005
8.176833e+002,6.057974e-005
8.196118e+002,9.708758e-005
8.215403e+002,9.382423e-005
8.234689e+002,1.030713e-004
8.253973e+002,7.315073e-005
8.273258e+002,6.298814e-005
8.292543e+002,2.838019e-005
8.311829e+002,2.642814e-005
8.331113e+002,-1.793914e-005
8.350398e+002,-6.669015e-005
8.369683e+002,-7.122569e-005
8.388969e+002,-7.562339e-007
8.408253e+002,3.274158e-005
8.427538e+002,1.726672e-006
8.446823e+002,5.720183e-006
8.466108e+002,7.886626e-005
8.485393e+002,9.668432e-005
8.504678e+002,1.496635e-004
8.523963e+002,1.455043e-004
8.543248e+002,1.187548e-004
8.562533e+002,1.404658e-004
8.581818e+002,1.632497e-004
8.601103e+002,1.143850e-004
8.620388e+002,1.193639e-004
8.639673e+002,1.348592e-004
8.658958e+002,1.257006e-004
8.678243e+002,1.185331e-004
8.697528e+002,1.365654e-004
8.716813e+002,1.429673e-004
8.736098e+002,1.671705e-004
8.755383e+002,2.183355e-004
8.774668e+002,2.337638e-004
8.793953e+002,2.797004e-004
8.813238e+002,3.358815e-004
8.832523e+002,3.595874e-004
8.851808e+002,4.210342e-004
8.871093e+002,5.133431e-004
8.890378e+002,5.034879e-004
8.909663e+002,5.125068e-004
8.928948e+002,5.577821e-004
8.948232e+002,5.739238e-004
8.967518e+002,6.737281e-004
8.986803e+002,8.453187e-004
9.006088e+002,1.115888e-003
9.025372e+002,1.497231e-003
9.044658e+002,2.247071e-003
9.063943e+002,3.419787e-003
9.083228e+002,4.063746e-003
9.102512e+002,3.489465e-003
9.121797e+002,2.331275e-003
9.141083e+002,1.406355e-003
9.160367e+002,8.846149e-004
9.179653e+002,7.154085e-004
9.198937e+002,6.273743e-004
9.218223e+002,4.884638e-004
9.237507e+002,3.445055e-004
9.256793e+002,3.617145e-004
9.276077e+002,3.867317e-004
9.295363e+002,3.423467e-004
9.314647e+002,3.702249e-004
9.333932e+002,4.092753e-004
9.353217e+002,4.166346e-004
9.372502e+002,4.413258e-004
9.391787e+002,4.560277e-004
9.411072e+002,4.552118e-004
9.430358e+002,4.696976e-004
9.449642e+002,5.110577e-004
9.468928e+002,5.893223e-004
9.488212e+002,6.592982e-004
9.507498e+002,6.975699e-004
9.526782e+002,7.298570e-004
9.546068e+002,7.952601e-004
9.565352e+002,8.874238e-004
9.584637e+002,1.003776e-003
9.603922e+002,1.074972e-003
9.623207e+002,1.106104e-003
9.642492e+002,1.224497e-003
9.661777e+002,1.292953e-003
9.681062e+002,1.276912e-003
9.700347e+002,1.208697e-003
9.719632e+002,1.106700e-003
9.738917e+002,1.058953e-003
9.758202e+002,1.059992e-003
9.777487e+002,1.041118e-003
9.796772e+002,1.074454e-003
9.816057e+002,1.139680e-003
9.835342e+002,1.308201e-003
9.854627e+002,1.505628e-003
9.873912e+002,1.778912e-003
9.893197e+002,2.041325e-003
9.912482e+002,2.108628e-003
9.931767e+002,1.968227e-003
9.951052e+002,1.793297e-003
9.970337e+002,1.622764e-003
9.989622e+002,1.480108e-003
1.000891e+003,1.395112e-003
1.002819e+003,1.394371e-003
1.004748e+003,1.440240e-003
1.006676e+003,1.500711e-003
1.008605e+003,1.562387e-003
1.010533e+003,1.632409e-003
1.012462e+003,1.757339e-003
1.014390e+003,1.859365e-003
1.016319e+003,1.963202e-003
1.018247e+003,2.068214e-003
1.020176e+003,2.090232e-003
1.022104e+003,2.135547e-003
1.024033e+003,2.174577e-003
1.025961e+003,2.242634e-003
1.027890e+003,2.261154e-003
1.029818e+003,2.305264e-003
1.031747e+003,2.368389e-003
1.033675e+003,2.397558e-003
1.035604e+003,2.378369e-003
1.037532e+003,2.431734e-003
1.039461e+003,2.491038e-003
1.041389e+003,2.529135e-003
1.043318e+003,2.550116e-003
1.045246e+003,2.689768e-003
1.047175e+003,2.893031e-003
1.049103e+003,3.189836e-003
1.051032e+003,3.309293e-003
1.052960e+003,3.153754e-003
1.054889e+003,3.038490e-003
1.056817e+003,3.095167e-003
1.058746e+003,3.107153e-003
1.060674e+003,3.194578e-003
1.062603e+003,3.303595e-003
1.064531e+003,3.352914e-003
1.066460e+003,3.348719e-003
1.068388e+003,3.395429e-003
1.070317e+003,3.456870e-003
1.072245e+003,3.613537e-003
1.074174e+003,3.882870e-003
1.076102e+003,4.203018e-003
1.078031e+003,4.501127e-003
1.079959e+003,4.722925e-003
1.081888e+003,4.769377e-003
1.083816e+003,4.769720e-003
1.085745e+003,4.774854e-003
1.087673e+003,4.782293e-003
1.089602e+003,4.781388e-003
1.091530e+003,4.843784e-003
1.093459e+003,4.881216e-003
1.095387e+003,4.891723e-003
1.097316e+003,4.819890e-003
1.099244e+003,4.755855e-003
1.101173e+003,4.679186e-003
1.103101e+003,4.562354e-003
1.105030e+003,4.473023e-003
1.106958e+003,4.447171e-003
1.108887e+003,4.429350e-003
1.110815e+003,4.504601e-003
1.112744e+003,4.551722e-003
1.114672e+003,4.620513e-003
1.116601e+003,4.716359e-003
1.118529e+003,4.795803e-003
1.120458e+003,4.696200e-003
1.122386e+003,4.563289e-003
1.124315e+003,4.380591e-003
1.126243e+003,4.254978e-003
1.128172e+003,4.225107e-003
1.130100e+003,4.335281e-003
1.132029e+003,4.495740e-003
1.133957e+003,4.770128e-003
1.135885e+003,5.109103e-003
1.137814e+003,5.516445e-003
1.139743e+003,5.881965e-003
1.141671e+003,6.233348e-003
1.143600e+003,6.504532e-003
1.145528e+003,6.830817e-003
1.147457e+003,7.249465e-003
1.149385e+003,7.767834e-003
1.151314e+003,8.331412e-003
1.153242e+003,8.916626e-003
1.155171e+003,9.299658e-003
1.157099e+003,9.534303e-003
1.159028e+003,9.728160e-003
1.160956e+003,9.828625e-003
1.162885e+003,9.794459e-003
1.164813e+003,9.689298e-003
1.166742e+003,9.422671e-003
1.168670e+003,9.078650e-003
1.170599e+003,8.699996e-003
1.172527e+003,8.408142e-003
1.174456e+003,8.225881e-003
1.176384e+003,8.000003e-003
1.178313e+003,7.449139e-003
1.180241e+003,6.963240e-003
1.182170e+003,6.654240e-003
1.184098e+003,6.474145e-003
1.186027e+003,6.330507e-003
1.187955e+003,6.223803e-003
1.189884e+003,6.088553e-003
1.191812e+003,5.978519e-003
1.193740e+003,5.887723e-003
1.195669e+003,5.868688e-003
1.197598e+003,5.857365e-003
1.199526e+003,5.886219e-003
1.201455e+003,5.947467e-003
1.203383e+003,6.130697e-003
1.205312e+003,6.334798e-003
1.207240e+003,6.566154e-003
1.209168e+003,6.755838e-003
1.211097e+003,6.857060e-003
1.213026e+003,6.892206e-003
1.214954e+003,6.965412e-003
1.216883e+003,7.062677e-003
1.218811e+003,7.212201e-003
1.220740e+003,7.364728e-003
1.222668e+003,7.545838e-003
1.224596e+003,7.723590e-003
1.226525e+003,7.940499e-003
1.228453e+003,8.119553e-003
1.230382e+003,8.298440e-003
1.232311e+003,8.468164e-003
1.234239e+003,8.690752e-003
1.236167e+003,8.863682e-003
1.238096e+003,9.038555e-003
1.240025e+003,9.096546e-003
1.241953e+003,9.113343e-003
1.243882e+003,9.042352e-003
1.245810e+003,8.931581e-003
1.247739e+003,8.720739e-003
1.249667e+003,8.443944e-003
1.251595e+003,8.081717e-003
1.253524e+003,7.776260e-003
1.255453e+003,7.456096e-003
1.257381e+003,7.193422e-003
1.259310e+003,6.876132e-003
1.261238e+003,6.573932e-003
1.263167e+003,6.273074e-003
1.265095e+003,6.045513e-003
1.267023e+003,5.848782e-003
1.268952e+003,5.709132e-003
1.270880e+003,5.551791e-003
1.272809e+003,5.525803e-003
1.274738e+003,5.498379e-003
1.276666e+003,5.535843e-003
1.278594e+003,5.548462e-003
1.280523e+003,5.583117e-003
1.282451e+003,5.572543e-003
1.284380e+003,5.597401e-003
1.286308e+003,5.632343e-003
1.288237e+003,5.768806e-003
1.290166e+003,5.871631e-003
1.292094e+003,6.030686e-003
1.294022e+003,6.226577e-003
1.295951e+003,6.524317e-003
1.297879e+003,6.702634e-003
1.299808e+003,6.864216e-003
1.301736e+003,6.918672e-003
1.303665e+003,6.935189e-003
1.305594e+003,6.866857e-003
1.307522e+003,6.818220e-003
1.309450e+003,6.638365e-003
1.311379e+003,6.432680e-003
1.313307e+003,6.143544e-003
1.315236e+003,5.882688e-003
1.317164e+003,5.577177e-003
1.319093e+003,5.329555e-003
1.321021e+003,5.022185e-003
1.322950e+003,4.804710e-003
1.324878e+003,4.596785e-003
1.326807e+003,4.478469e-003
1.328735e+003,4.371490e-003
1.330664e+003,4.412590e-003
1.332592e+003,4.510697e-003
1.334521e+003,4.741410e-003
1.336449e+003,5.009327e-003
1.338378e+003,5.505720e-003
1.340306e+003,6.024735e-003
1.342235e+003,6.403197e-003
1.344163e+003,6.747024e-003
1.346092e+003,7.271340e-003
1.348021e+003,7.772585e-003
1.349949e+003,8.264707e-003
1.351877e+003,8.471353e-003
1.353806e+003,8.484436e-003
1.355734e+003,8.278903e-003
1.357663e+003,8.275298e-003
1.359591e+003,8.450743e-003
1.361520e+003,8.961406e-003
1.363448e+003,9.723293e-003
1.365377e+003,1.042912e-002
1.367305e+003,1.076558e-002
1.369234e+003,1.054517e-002
1.371162e+003,9.625742e-003
1.373091e+003,8.593896e-003
1.375019e+003,7.766087e-003
1.376948e+003,7.422267e-003
1.378876e+003,6.679982e-003
1.380805e+003,5.726371e-003
1.382733e+003,4.904952e-003
1.384662e+003,4.523410e-003
1.386590e+003,4.214792e-003
1.388519e+003,4.129037e-003
1.390447e+003,3.951948e-003
1.392376e+003,3.909662e-003
1.394304e+003,3.842488e-003
1.396233e+003,4.078310e-003
1.398161e+003,4.148755e-003
1.400090e+003,4.332602e-003
1.402018e+003,4.191145e-003
1.403947e+003,4.298735e-003
1.405875e+003,4.322411e-003
1.407804e+003,4.499193e-003
1.409732e+003,4.601700e-003
1.411661e+003,4.970299e-003
1.413589e+003,5.213827e-003
1.415518e+003,5.637830e-003
1.417446e+003,5.793286e-003
1.419375e+003,6.283017e-003
1.421303e+003,6.461404e-003
1.423232e+003,7.149212e-003
1.425160e+003,8.093731e-003
1.427089e+003,9.364055e-003
1.429017e+003,1.099764e-002
1.430946e+003,1.338804e-002
1.432874e+003,1.518452e-002
1.434803e+003,1.692167e-002
1.436731e+003,1.878015e-002
1.438660e+003,2.043829e-002
1.440588e+003,2.127851e-002
1.442517e+003,2.254433e-002
1.444445e+003,2.343696e-002
1.446374e+003,2.491328e-002
1.448302e+003,2.699244e-002
1.450231e+003,3.031610e-002
1.452159e+003,3.548627e-002
1.454088e+003,4.274788e-002
1.456016e+003,5.172966e-002
1.457945e+003,8.615068e-002
1.459873e+003,1.504179e-001
1.461802e+003,1.973647e-001
1.463730e+003,1.703586e-001
1.465659e+003,1.084706e-001
1.467587e+003,9.848939e-002
1.469516e+003,1.066115e-001
1.471444e+003,1.427261e-001
1.473373e+003,1.432598e-001
1.475301e+003,7.390922e-002
1.477230e+003,2.795416e-002
1.479158e+003,1.536304e-002
1.481087e+003,1.021489e-002
1.483015e+003,8.006271e-003
1.484944e+003,6.379480e-003
1.486872e+003,6.037522e-003
1.488801e+003,5.024504e-003
1.490729e+003,4.987171e-003
1.492658e+003,4.216222e-003
1.494586e+003,4.214717e-003
1.496515e+003,3.556510e-003
1.498443e+003,3.660372e-003
1.500372e+003,3.058871e-003
1.502300e+003,2.919553e-003
1.504229e+003,2.396092e-003
1.506157e+003,2.803732e-003
1.508086e+003,2.367873e-003
1.510014e+003,2.575802e-003
1.511943e+003,2.107967e-003
1.513871e+003,2.163170e-003
1.515800e+003,1.942426e-003
1.517728e+003,2.162665e-003
1.519657e+003,1.877543e-003
1.521585e+003,2.360266e-003
1.523514e+003,2.021333e-003
1.525442e+003,2.169555e-003
1.527371e+003,1.820754e-003
1.529299e+003,1.856659e-003
1.531228e+003,1.686445e-003
1.533156e+003,1.898345e-003
1.535085e+003,1.744987e-003
1.537013e+003,1.792787e-003
1.538942e+003,1.616659e-003
1.540870e+003,2.237801e-003
1.542799e+003,1.908129e-003
1.544727e+003,1.960479e-003
1.546656e+003,1.650091e-003
1.548584e+003,1.688041e-003
1.550513e+003,1.571435e-003
1.552441e+003,1.574645e-003
1.554370e+003,1.406411e-003
1.556298e+003,1.488462e-003
1.558227e+003,1.556559e-003
1.560155e+003,1.930006e-003
1.562084e+003,1.402726e-003
1.564012e+003,1.346188e-003
1.565941e+003,1.217647e-003
1.567869e+003,1.336711e-003
1.569798e+003,1.375208e-003
1.571726e+003,1.345742e-003
1.573655e+003,1.198063e-003
1.575583e+003,1.415974e-003
1.577512e+003,1.430683e-003
1.579440e+003,1.466235e-003
1.581369e+003,1.424721e-003
1.583297e+003,1.497231e-003
1.585226e+003,1.482464e-003
1.587154e+003,1.582893e-003
1.589083e+003,1.505597e-003
1.591011e+003,1.509525e-003
1.592940e+003,1.390640e-003
1.594868e+003,1.419593e-003
1.596797e+003,1.382068e-003
1.598725e+003,1.402982e-003
1.600654e+003,1.306806e-003
1.602582e+003,1.332553e-003
1.604511e+003,1.265701e-003
1.606439e+003,1.322575e-003
1.608368e+003,1.290340e-003
1.610296e+003,1.338219e-003
1.612225e+003,1.303554e-003
1.614153e+003,1.383232e-003
1.616082e+003,1.384720e-003
1.618010e+003,1.550402e-003
1.619939e+003,1.473235e-003
1.621867e+003,1.552362e-003
1.623796e+003,1.615873e-003
1.625724e+003,1.724463e-003
1.627653e+003,1.755813e-003
1.629581e+003,1.822555e-003
1.631510e+003,1.686592e-003
1.633438e+003,1.763703e-003
1.635367e+003,2.076907e-003
1.637295e+003,2.492895e-003
1.639224e+003,2.488721e-003
1.641152e+003,2.528690e-003
1.643081e+003,2.326949e-003
1.645009e+003,2.358915e-003
1.646938e+003,2.381295e-003
1.648866e+003,2.108088e-003
1.650795e+003,1.865435e-003
1.652723e+003,2.494430e-003
1.654652e+003,2.274027e-003
1.656580e+003,1.925481e-003
1.658509e+003,1.629820e-003
1.660437e+003,1.561189e-003
1.662366e+003,1.613433e-003
1.664294e+003,1.628634e-003
1.666223e+003,1.417998e-003
1.668151e+003,1.385927e-003
1.670080e+003,1.301859e-003
1.672008e+003,1.346473e-003
1.673937e+003,1.299810e-003
1.675865e+003,1.387335e-003
1.677794e+003,1.150172e-003
1.679722e+003,1.117211e-003
1.681651e+003,1.076769e-003
1.683579e+003,1.514349e-003
1.685508e+003,1.425456e-003
1.687436e+003,1.234423e-003
1.689365e+003,1.047980e-003
1.691293e+003,1.041211e-003
1.693222e+003,1.026437e-003
1.695150e+003,1.245692e-003
1.697079e+003,1.399565e-003
1.699007e+003,1.650717e-003
1.700936e+003,1.763061e-003
1.702864e+003,1.700804e-003
1.704793e+003,1.779523e-003
1.706721e+003,2.136454e-003
1.708650e+003,2.224352e-003
1.710578e+003,2.400026e-003
1.712507e+003,2.475727e-003
1.714435e+003,2.719685e-003
1.716364e+003,2.992049e-003
1.718292e+003,3.470115e-003
1.720221e+003,3.377929e-003
1.722149e+003,3.575232e-003
1.724078e+003,3.953900e-003
1.726006e+003,4.370958e-003
1.727935e+003,4.736226e-003
1.729863e+003,5.360890e-003
1.731792e+003,6.002359e-003
1.733720e+003,7.609896e-003
1.735649e+003,9.146903e-003
1.737577e+003,9.981643e-003
1.739506e+003,1.175380e-002
1.741434e+003,1.350260e-002
1.743363e+003,1.485433e-002
1.745291e+003,1.571804e-002
1.747220e+003,1.574083e-002
1.749148e+003,1.506134e-002
1.751077e+003,1.305678e-002
1.753005e+003,1.050591e-002
1.754934e+003,8.400068e-003
1.756862e+003,6.061062e-003
1.758791e+003,4.159961e-003
1.760719e+003,3.087725e-003
1.762648e+003,1.965314e-003
1.764576e+003,1.307443e-003
1.766505e+003,8.569434e-004
1.768433e+003,5.365461e-004
1.770362e+003,2.503879e-004
1.772290e+003,3.730915e-004
1.774219e+003,6.543100e-005
1.776147e+003,-9.120256e-005
1.778076e+003,-2.364106e-004
1.780004e+003,-2.889484e-004
1.781933e+003,-3.696904e-004
1.783861e+003,-2.343841e-004
1.785790e+003,-2.768971e-004
1.787718e+003,-4.111826e-004
1.789646e+003,-4.873872e-004
1.791575e+003,-2.485998e-004
1.793504e+003,-3.289618e-004
1.795432e+003,-3.813021e-004
1.797361e+003,-4.658140e-004
1.799289e+003,-4.206747e-004
1.801218e+003,-4.230030e-004
1.803146e+003,-4.969835e-004
1.805074e+003,-6.979108e-004
1.807003e+003,-7.693768e-004
1.808932e+003,-7.708445e-004
1.810860e+003,-7.201731e-004
1.812789e+003,-9.895936e-004
1.814717e+003,-1.229733e-003
1.816646e+003,-1.392502e-003
1.818574e+003,-1.067143e-003
1.820502e+003,-9.336881e-004
1.822431e+003,-8.588694e-004
1.824360e+003,-9.321794e-004
1.826288e+003,-8.717179e-004
1.828217e+003,-8.833967e-004
1.830145e+003,-8.999668e-004
1.832073e+003,-1.270477e-003
1.834002e+003,-1.209430e-003
1.835931e+003,-1.239713e-003
1.837859e+003,-1.242116e-003
1.839788e+003,-1.392327e-003
1.841716e+003,-1.153346e-003
1.843645e+003,-9.444878e-004
1.845573e+003,-9.926334e-004
1.847501e+003,-1.293611e-003
1.849430e+003,-1.319900e-003
1.851359e+003,-1.334094e-003
1.853287e+003,-1.109447e-003
1.855216e+003,-1.284119e-003
1.857144e+003,-1.345851e-003
1.859073e+003,-1.415968e-003
1.861001e+003,-1.203921e-003
1.862929e+003,-1.378875e-003
1.864858e+003,-1.444988e-003
1.866787e+003,-1.430720e-003
1.868715e+003,-1.030821e-003
1.870644e+003,-1.127373e-003
1.872572e+003,-1.195595e-003
1.874500e+003,-1.249883e-003
1.876429e+003,-1.237322e-003
1.878357e+003,-1.429498e-003
1.880286e+003,-1.313705e-003
1.882215e+003,-1.357533e-003
1.884143e+003,-1.083244e-003
1.886072e+003,-1.072522e-003
1.888000e+003,-7.066242e-004
1.889928e+003,-3.836565e-004
1.891857e+003,-1.599155e-004
1.893785e+003,-2.113990e-004
1.895714e+003,-2.117082e-004
1.897643e+003,-3.937446e-004
1.899571e+003,-2.773143e-004
1.901500e+003,-2.726428e-004
1.903428e+003,-2.679713e-004
1.905356e+003,-2.633035e-004
1.907285e+003,-2.586357e-004
1.909213e+003,-2.539717e-004
1.911142e+003,-2.492927e-004
1.913071e+003,-2.446286e-004
1.914999e+003,-2.399646e-004
1.916927e+003,-2.352968e-004
1.918856e+003,-2.306253e-004
1.920784e+003,-2.259687e-004
1.922713e+003,-2.212971e-004
1.924641e+003,-2.166331e-004
1.926570e+003,-2.119690e-004
1.928499e+003,-2.073012e-004
1.930427e+003,-2.026409e-004
1.932355e+003,-1.979768e-004
1.934284e+003,-1.933128e-004
1.936212e+003,-1.886524e-004
1.938141e+003,-1.839884e-004
1.940070e+003,-1.793243e-004
1.941998e+003,-1.746640e-004
1.943927e+003,-1.700036e-004
1.945855e+003,-1.653433e-004
1.947783e+003,-1.606829e-004
1.949712e+003,-1.560189e-004
1.951640e+003,-1.513660e-004
1.953569e+003,-1.467019e-004
1.955498e+003,-1.420379e-004
1.957426e+003,-1.373887e-004
1.959354e+003,-1.327246e-004
1.961283e+003,-1.280718e-004
1.963211e+003,-1.234114e-004
1.965140e+003,-1.187548e-004
1.967068e+003,-1.140982e-004
1.968997e+003,-1.094453e-004
1.970926e+003,-1.047850e-004
1.972854e+003,-1.001321e-004
1.974782e+003,-9.547919e-005
1.976711e+003,-9.081885e-005
1.978639e+003,-8.616969e-005
1.980568e+003,-8.151308e-005
1.982496e+003,-7.686019e-005
1.984425e+003,-7.220730e-005
1.986354e+003,-6.755441e-005
1.988282e+003,-6.289780e-005
1.990210e+003,-5.824864e-005
1.992139e+003,-5.359948e-005
1.994067e+003,-4.895031e-005
1.995996e+003,-4.430115e-005
1.997924e+003,-3.964826e-005
1.999853e+003,-3.499538e-005
2.001781e+003,-3.034621e-005
2.003710e+003,-2.569705e-005
2.005638e+003,-2.105162e-005
2.007567e+003,-1.640245e-005
2.009495e+003,-1.175329e-005
2.011424e+003,-7.107854e-006
2.013352e+003,-2.458692e-006
2.015281e+003,2.186745e-006
2.017209e+003,6.832182e-006
2.019138e+003,1.147762e-005
2.021066e+003,1.612306e-005
2.022995e+003,2.076849e-005
2.024923e+003,2.541393e-005
2.026852e+003,3.005937e-005
2.028781e+003,3.470108e-005
2.030709e+003,3.934652e-005
2.032637e+003,4.398450e-005
2.034566e+003,4.862994e-005
2.036494e+003,5.327538e-005
2.038423e+003,5.791709e-005
2.040351e+003,6.255880e-005
2.042280e+003,6.720051e-005
2.044208e+003,7.184222e-005
2.046137e+003,7.648021e-005
2.048065e+003,8.111820e-005
2.049994e+003,8.575618e-005
2.051922e+003,9.039789e-005
2.053851e+003,9.503961e-005
2.055779e+003,9.967759e-005
2.057708e+003,1.043119e-004
2.059636e+003,1.089498e-004
2.061565e+003,1.135916e-004
2.063493e+003,1.182221e-004
2.065422e+003,1.228601e-004
2.067350e+003,1.274943e-004
2.069279e+003,1.321323e-004
2.071207e+003,1.367666e-004
2.073136e+003,1.414083e-004
2.075064e+003,1.460388e-004
2.076993e+003,1.506731e-004
2.078921e+003,1.552999e-004
2.080850e+003,1.599342e-004
2.082778e+003,1.645684e-004
2.084707e+003,1.692027e-004
2.086635e+003,1.738369e-004
2.088564e+003,1.784675e-004
2.090492e+003,1.830943e-004
2.092421e+003,1.877286e-004
2.094349e+003,1.923591e-004
2.096278e+003,1.969859e-004
2.098206e+003,2.016202e-004
2.100135e+003,2.062470e-004
2.102063e+003,2.108775e-004
2.103992e+003,2.155043e-004
2.105920e+003,2.201311e-004
2.107849e+003,2.247579e-004
2.109777e+003,2.293848e-004
2.111706e+003,2.340116e-004
2.113634e+003,2.386421e-004
2.115563e+003,2.432689e-004
2.117491e+003,2.478920e-004
2.119420e+003,2.525151e-004
2.121348e+003,2.571382e-004
2.123277e+003,2.617650e-004
2.125205e+003,2.663918e-004
2.127134e+003,2.710149e-004
2.129062e+003,2.756417e-004
2.130991e+003,2.802610e-004
2.132919e+003,2.848804e-004
2.134848e+003,2.895072e-004
2.136776e+003,2.941266e-004
2.138705e+003,2.987497e-004
2.140633e+003,3.033690e-004
2.142562e+003,3.079921e-004
2.144490e+003,3.126115e-004
2.146419e+003,3.172345e-004
2.148347e+003,3.218502e-004
2.150276e+003,3.264695e-004
2.152204e+003,3.310889e-004
2.154133e+003,3.357045e-004
2.156061e+003,3.403276e-004
2.157990e+003,3.449470e-004
2.159918e+003,3.495589e-004
2.161847e+003,3.541782e-004
2.163775e+003,3.587902e-004
2.165704e+003,3.634058e-004
2.167632e+003,3.680214e-004
2.169561e+003,3.726333e-004
2.171489e+003,3.772452e-004
2.173418e+003,3.818683e-004
2.175346e+003,3.864802e-004
2.177275e+003,3.910922e-004
2.179203e+003,3.957115e-004
2.181132e+003,4.003160e-004
2.183060e+003,4.049279e-004
2.184989e+003,4.095398e-004
2.186917e+003,4.141554e-004
2.188846e+003,4.187673e-004
2.190774e+003,4.233718e-004
2.192703e+003,4.279837e-004
2.194631e+003,4.325956e-004
2.196560e+003,4.372038e-004
2.198488e+003,4.418120e-004
2.200417e+003,4.464276e-004
2.202345e+003,4.510321e-004
2.204274e+003,4.556403e-004
2.206202e+003,4.602447e-004
2.208131e+003,4.648529e-004
2.210059e+003,4.694611e-004
2.211988e+003,4.740655e-004
2.213916e+003,4.786700e-004
2.215845e+003,4.832745e-004
2.217773e+003,4.878789e-004
2.219702e+003,4.924871e-004
2.221630e+003,4.970916e-004
2.223559e+003,5.016960e-004
2.225487e+003,5.063005e-004
2.227416e+003,5.109012e-004
2.229344e+003,5.155019e-004
2.231273e+003,5.201139e-004
2.233201e+003,5.247109e-004
2.235130e+003,5.293153e-004
2.237058e+003,5.339161e-004
2.238987e+003,5.385131e-004
2.240915e+003,5.431138e-004
2.242844e+003,5.477145e-004
2.244772e+003,5.523115e-004
2.246701e+003,5.569160e-004
2.248629e+003,5.615093e-004
2.250558e+003,5.661100e-004
2.252486e+003,5.707070e-004
2.254415e+003,5.753040e-004
2.256343e+003,5.799010e-004
2.258272e+003,5.844980e-004
2.260200e+003,5.890876e-004
2.262129e+003,5.936921e-004
2.264057e+003,5.982891e-004
2.265986e+003,6.028786e-004
2.267914e+003,6.074756e-004
2.269843e+003,6.120652e-004
2.271771e+003,6.166659e-004
2.273700e+003,6.212592e-004
2.275628e+003,6.258525e-004
2.277557e+003,6.304495e-004
2.279485e+003,6.350428e-004
2.281414e+003,6.396286e-004
2.283342e+003,6.442219e-004
2.285271e+003,6.488115e-004
2.287199e+003,6.534047e-004
2.289128e+003,6.579980e-004
2.291056e+003,6.625839e-004
2.292985e+003,6.671734e-004
2.294913e+003,6.717630e-004
2.296842e+003,6.763488e-004
2.298770e+003,6.809384e-004
2.300699e+003,6.855316e-004
2.302627e+003,6.901175e-004
2.304556e+003,6.947070e-004
2.306484e+003,6.992966e-004
2.308413e+003,7.038787e-004
2.310341e+003,7.084645e-004
2.312270e+003,7.130466e-004
2.314198e+003,7.176325e-004
2.316127e+003,7.222183e-004
2.318055e+003,7.268004e-004
2.319984e+003,7.313900e-004
2.321912e+003,7.359758e-004
2.323841e+003,7.405542e-004
2.325769e+003,7.451437e-004
2.327698e+003,7.497221e-004
2.329626e+003,7.543042e-004
2.331555e+003,7.588826e-004
2.333483e+003,7.634684e-004
2.335412e+003,7.680506e-004
2.337340e+003,7.726289e-004
2.339269e+003,7.772110e-004
2.341197e+003,7.817857e-004
2.343126e+003,7.863678e-004
2.345054e+003,7.909425e-004
2.346983e+003,7.955283e-004
2.348911e+003,8.001067e-004
2.350840e+003,8.046813e-004
2.352768e+003,8.092634e-004
2.354697e+003,8.138381e-004
2.356625e+003,8.184128e-004
2.358554e+003,8.229874e-004
2.360482e+003,8.275621e-004
2.362411e+003,8.321404e-004
2.364339e+003,8.367188e-004
2.366268e+003,8.412898e-004
2.368196e+003,8.458644e-004
2.370125e+003,8.504391e-004
2.372053e+003,8.550137e-004
2.373982e+003,8.595809e-004
2.375910e+003,8.641556e-004
2.377839e+003,8.687340e-004
2.379767e+003,8.733049e-004
2.381696e+003,8.778721e-004
2.383624e+003,8.824430e-004
2.385553e+003,8.870177e-004
2.387481e+003,8.915849e-004
2.389410e+003,8.961558e-004
2.391338e+003,9.007305e-004
2.393267e+003,9.052977e-004
2.395195e+003,9.098649e-004
2.397124e+003,9.144284e-004
2.399052e+003,9.189993e-004
2.400981e+003,1.022920e-003
2.402909e+003,1.090150e-003
2.404838e+003,1.143496e-003
2.406766e+003,1.325902e-003
2.408695e+003,1.642674e-003
2.410623e+003,1.625612e-003
2.412552e+003,1.622066e-003
2.414480e+003,1.735467e-003
2.416409e+003,1.800667e-003
2.418337e+003,1.791116e-003
2.420266e+003,1.954116e-003
2.422194e+003,1.912188e-003
2.424123e+003,1.763221e-003
2.426051e+003,1.672644e-003
2.427979e+003,1.673475e-003
2.429908e+003,1.658879e-003
2.431837e+003,1.831274e-003
2.433765e+003,1.900632e-003
2.435694e+003,1.919601e-003
2.437622e+003,1.849987e-003
2.439551e+003,1.842480e-003
2.441479e+003,1.759659e-003
2.443407e+003,1.872484e-003
2.445336e+003,1.944471e-003
2.447265e+003,1.987569e-003
2.449193e+003,1.996092e-003
2.451122e+003,2.041243e-003
2.453050e+003,1.894314e-003
2.454979e+003,1.952633e-003
2.456907e+003,2.035830e-003
2.458836e+003,2.092488e-003
2.460764e+003,2.076205e-003
2.462693e+003,2.112743e-003
2.464621e+003,2.181038e-003
2.466550e+003,2.190098e-003
2.468478e+003,2.171945e-003
2.470406e+003,2.412878e-003
2.472335e+003,2.524491e-003
2.474264e+003,2.468020e-003
2.476192e+003,2.379868e-003
2.478121e+003,2.516717e-003
2.480049e+003,2.694484e-003
2.481978e+003,2.823211e-003
2.483906e+003,2.663426e-003
2.485835e+003,2.359711e-003
2.487763e+003,2.364725e-003
2.489692e+003,2.516344e-003
2.491620e+003,2.547491e-003
2.493549e+003,2.639648e-003
2.495477e+003,2.569675e-003
2.497406e+003,2.681661e-003
2.499334e+003,2.827544e-003
2.501263e+003,3.014378e-003
2.503191e+003,3.062114e-003
2.505120e+003,3.145471e-003
2.507048e+003,3.164504e-003
2.508977e+003,3.189124e-003
2.510905e+003,3.268771e-003
2.512833e+003,3.386833e-003
2.514762e+003,3.521826e-003
2.516691e+003,3.575530e-003
2.518619e+003,3.462516e-003
2.520548e+003,3.703840e-003
2.522476e+003,4.000496e-003
2.524405e+003,4.103128e-003
2.526333e+003,4.167072e-003
2.528261e+003,4.217129e-003
2.530190e+003,4.225779e-003
2.532119e+003,4.248518e-003
2.534047e+003,4.070628e-003
2.535976e+003,3.961429e-003
2.537904e+003,4.106853e-003
2.539833e+003,4.267868e-003
2.541761e+003,4.266497e-003
2.543689e+003,4.334848e-003
2.545618e+003,4.613236e-003
2.547547e+003,4.903179e-003
2.549475e+003,5.051315e-003
2.551404e+003,5.165264e-003
2.553332e+003,5.104188e-003
2.555260e+003,5.055461e-003
2.557189e+003,5.143166e-003
2.559117e+003,5.402897e-003
2.561046e+003,5.490746e-003
2.562975e+003,5.676854e-003
2.564903e+003,5.788513e-003
2.566832e+003,5.854804e-003
2.568760e+003,5.906902e-003
2.570688e+003,6.048772e-003
2.572617e+003,6.218955e-003
2.574546e+003,6.434850e-003
2.576474e+003,6.668575e-003
2.578403e+003,6.813105e-003
2.580331e+003,6.978631e-003
2.582260e+003,7.217243e-003
2.584188e+003,7.307567e-003
2.586116e+003,7.516928e-003
2.588045e+003,7.733218e-003
2.589974e+003,8.007511e-003
2.591902e+003,8.241720e-003
2.593831e+003,8.501541e-003
2.595759e+003,8.673999e-003
2.597688e+003,8.874275e-003
2.599616e+003,9.058181e-003
2.601544e+003,9.205993e-003
2.603473e+003,9.367019e-003
2.605402e+003,9.652205e-003
2.607330e+003,9.845328e-003
2.609259e+003,1.017757e-002
2.611187e+003,1.056400e-002
2.613115e+003,1.092875e-002
2.615044e+003,1.125667e-002
2.616972e+003,1.156705e-002
2.618901e+003,1.188648e-002
2.620830e+003,1.231046e-002
2.622758e+003,1.277634e-002
2.624687e+003,1.325978e-002
2.626615e+003,1.376802e-002
2.628543e+003,1.429666e-002
2.630472e+003,1.473364e-002
2.632400e+003,1.511132e-002
2.634329e+003,1.532715e-002
2.636258e+003,1.537377e-002
2.638186e+003,1.532024e-002
2.640115e+003,1.528097e-002
2.642043e+003,1.521783e-002
2.643971e+003,1.521659e-002
2.645900e+003,1.523009e-002
2.647828e+003,1.534515e-002
2.649757e+003,1.549959e-002
2.651686e+003,1.571453e-002
2.653614e+003,1.596404e-002
2.655542e+003,1.617753e-002
2.657471e+003,1.631729e-002
2.659399e+003,1.631288e-002
2.661328e+003,1.611561e-002
2.663256e+003,1.584063e-002
2.665185e+003,1.552531e-002
2.667114e+003,1.528302e-002
2.669042e+003,1.510345e-002
2.670970e+003,1.487787e-002
2.672899e+003,1.462081e-002
2.674827e+003,1.444720e-002
2.676756e+003,1.433560e-002
2.678685e+003,1.420819e-002
2.680613e+003,1.408105e-002
2.682542e+003,1.398022e-002
2.684470e+003,1.395096e-002
2.686398e+003,1.401100e-002
2.688327e+003,1.400872e-002
2.690255e+003,1.396627e-002
2.692184e+003,1.394753e-002
2.694113e+003,1.400654e-002
2.696041e+003,1.411210e-002
2.697969e+003,1.427855e-002
2.699898e+003,1.448837e-002
2.701826e+003,1.468705e-002
2.703755e+003,1.493455e-002
2.705683e+003,1.519524e-002
2.707612e+003,1.540925e-002
2.709541e+003,1.564791e-002
2.711469e+003,1.580915e-002
2.713397e+003,1.589954e-002
2.715326e+003,1.607481e-002
2.717254e+003,1.636615e-002
2.719183e+003,1.661120e-002
2.721111e+003,1.687975e-002
2.723040e+003,1.720455e-002
2.724969e+003,1.747934e-002
2.726897e+003,1.777563e-002
2.728825e+003,1.812877e-002
2.730754e+003,1.842298e-002
2.732682e+003,1.878874e-002
2.734611e+003,1.916547e-002
2.736539e+003,1.944122e-002
2.738468e+003,1.967085e-002
2.740396e+003,1.990806e-002
2.742325e+003,2.001428e-002
2.744253e+003,2.007343e-002
2.746182e+003,2.013903e-002
2.748110e+003,2.025701e-002
2.750039e+003,2.042896e-002
2.751967e+003,2.065881e-002
2.753896e+003,2.100641e-002
2.755824e+003,2.144543e-002
2.757753e+003,2.189220e-002
2.759681e+003,2.240529e-002
2.761610e+003,2.289912e-002
2.763538e+003,2.341635e-002
2.765467e+003,2.397088e-002
2.767395e+003,2.456491e-002
2.769324e+003,2.523125e-002
2.771252e+003,2.603504e-002
2.773181e+003,2.686212e-002
2.775109e+003,2.768359e-002
2.777038e+003,2.863098e-002
2.778966e+003,2.969636e-002
2.780895e+003,3.087939e-002
2.782823e+003,3.218658e-002
2.784752e+003,3.363499e-002
2.786680e+003,3.521463e-002
2.788609e+003,3.689611e-002
2.790537e+003,3.864465e-002
2.792466e+003,4.047203e-002
2.794394e+003,4.232712e-002
2.796323e+003,4.423345e-002
2.798251e+003,4.617856e-002
2.800180e+003,4.820362e-002
2.802108e+003,5.042537e-002
2.804037e+003,5.288539e-002
2.805965e+003,5.554327e-002
2.807894e+003,5.847091e-002
2.809822e+003,6.187261e-002
2.811751e+003,6.571800e-002
2.813679e+003,7.009888e-002
2.815608e+003,7.524562e-002
2.817536e+003,8.120188e-002
2.819465e+003,8.819579e-002
2.821393e+003,9.653708e-002
2.823322e+003,1.066015e-001
2.825250e+003,1.190472e-001
2.827179e+003,1.346242e-001
2.829107e+003,1.538855e-001
2.831036e+003,1.782454e-001
2.832964e+003,2.100227e-001
2.834893e+003,2.528227e-001
2.836821e+003,3.114801e-001
2.838750e+003,3.940902e-001
2.840678e+003,5.140396e-001
2.842607e+003,6.860707e-001
2.844535e+003,9.050758e-001
2.846464e+003,1.083092e+000
2.848392e+003,1.045020e+000
2.850321e+003,8.118892e-001
2.852249e+003,5.792532e-001
2.854178e+003,4.209187e-001
2.856106e+003,3.178006e-001
2.858035e+003,2.472838e-001
2.859963e+003,1.983441e-001
2.861892e+003,1.653061e-001
2.863820e+003,1.442567e-001
2.865749e+003,1.321470e-001
2.867677e+003,1.270233e-001
2.869606e+003,1.275203e-001
2.871534e+003,1.328121e-001
2.873463e+003,1.427083e-001
2.875391e+003,1.577098e-001
2.877320e+003,1.777837e-001
2.879248e+003,2.018765e-001
2.881177e+003,2.284973e-001
2.883105e+003,2.564002e-001
2.885034e+003,2.848979e-001
2.886962e+003,3.135160e-001
2.888891e+003,3.421068e-001
2.890819e+003,3.706097e-001
2.892748e+003,3.987330e-001
2.894676e+003,4.265270e-001
2.896605e+003,4.545914e-001
2.898533e+003,4.841277e-001
2.900462e+003,5.173336e-001
2.902390e+003,5.580109e-001
2.904319e+003,6.118398e-001
2.906247e+003,6.857932e-001
2.908176e+003,7.865205e-001
2.910104e+003,9.175690e-001
2.912033e+003,1.066375e+000
2.913961e+003,1.177525e+000
2.915890e+003,1.168247e+000
2.917818e+003,1.035879e+000
2.919747e+003,8.635778e-001
2.921675e+003,7.067414e-001
2.923604e+003,5.783990e-001
2.925532e+003,4.777252e-001
2.927461e+003,3.983081e-001
2.929389e+003,3.331923e-001
2.931318e+003,2.781875e-001
2.933246e+003,2.314375e-001
2.935175e+003,1.921071e-001
2.937103e+003,1.591992e-001
2.939032e+003,1.316592e-001
2.940960e+003,1.088524e-001
2.942889e+003,9.029004e-002
2.944817e+003,7.577716e-002
2.946746e+003,6.480867e-002
2.948674e+003,5.672837e-002
2.950603e+003,5.098353e-002
2.952531e+003,4.661488e-002
2.954460e+003,4.262947e-002
2.956388e+003,3.881804e-002
2.958317e+003,3.523146e-002
2.960245e+003,3.177438e-002
2.962174e+003,2.841362e-002
2.964102e+003,2.530531e-002
2.966031e+003,2.242501e-002
2.967959e+003,1.975911e-002
2.969888e+003,1.742627e-002
2.971816e+003,1.545943e-002
2.973745e+003,1.374064e-002
2.975673e+003,1.223185e-002
2.977602e+003,1.095031e-002
2.979530e+003,9.939387e-003
2.981459e+003,8.994635e-003
2.983387e+003,8.121129e-003
2.985316e+003,7.390846e-003
2.987244e+003,6.882481e-003
2.989173e+003,6.491534e-003
2.991101e+003,6.185044e-003
2.993030e+003,6.001081e-003
2.994958e+003,5.953796e-003
2.996887e+003,5.953532e-003
2.998815e+003,6.014857e-003
3.000744e+003,6.148562e-003
3.002672e+003,6.220959e-003
3.004601e+003,6.087359e-003
3.006529e+003,5.957976e-003
3.008458e+003,5.802199e-003
3.010386e+003,5.497169e-003
3.012315e+003,5.056735e-003
3.014243e+003,4.695628e-003
3.016172e+003,4.345685e-003
3.018100e+003,4.103072e-003
3.020029e+003,3.859874e-003
3.021957e+003,3.609173e-003
3.023886e+003,3.499381e-003
3.025814e+003,3.441226e-003
3.027743e+003,3.322907e-003
3.029671e+003,3.149908e-003
3.031600e+003,2.993114e-003
3.033528e+003,2.921980e-003
3.035457e+003,2.790324e-003
3.037385e+003,2.544280e-003
3.039314e+003,2.261501e-003
3.041242e+003,2.088986e-003
3.043171e+003,1.815259e-003
3.045099e+003,1.577094e-003
3.047028e+003,1.465648e-003
3.048956e+003,1.338538e-003
3.050885e+003,1.161091e-003
3.052813e+003,1.075417e-003
3.054742e+003,9.657294e-004
3.056670e+003,8.610971e-004
3.058599e+003,7.653423e-004
3.060527e+003,7.998943e-004
3.062456e+003,7.909313e-004
3.064384e+003,7.443875e-004
3.066313e+003,7.458739e-004
3.068241e+003,7.533133e-004
3.070170e+003,7.633194e-004
3.072098e+003,7.809736e-004
3.074027e+003,7.105544e-004
3.075955e+003,6.552711e-004
3.077884e+003,5.253293e-004
3.079812e+003,3.814958e-004
3.081741e+003,2.875179e-004
3.083669e+003,2.468899e-004
3.085598e+003,2.033226e-004
3.087526e+003,1.494549e-004
3.089455e+003,-2.986938e-005
3.091383e+003,-1.914389e-004
3.093312e+003,-3.650561e-004
3.095240e+003,-5.509742e-004
3.097169e+003,-7.988885e-004
3.099097e+003,-1.123678e-003
3.101026e+003,-1.392733e-003
3.102954e+003,-1.558702e-003
3.104883e+003,-1.673777e-003
3.106811e+003,-1.751184e-003
3.108740e+003,-1.904212e-003
3.110668e+003,-2.013240e-003
3.112597e+003,-2.038181e-003
3.114525e+003,-2.055421e-003
3.116454e+003,-2.160523e-003
3.118382e+003,-2.160612e-003
3.120311e+003,-2.192181e-003
3.122239e+003,-2.210397e-003
3.124168e+003,-2.169181e-003
3.126096e+003,-2.139673e-003
3.128025e+003,-2.100408e-003
3.129953e+003,-2.131160e-003
3.131882e+003,-2.203491e-003
3.133810e+003,-2.215285e-003
3.135739e+003,-2.155811e-003
3.137667e+003,-2.129983e-003
3.139596e+003,-2.148356e-003
3.141524e+003,-2.105776e-003
3.143453e+003,-2.086692e-003
3.145381e+003,-2.063032e-003
3.147310e+003,-2.017584e-003
3.149238e+003,-1.995791e-003
3.151167e+003,-1.986828e-003
3.153095e+003,-2.030689e-003
3.155024e+003,-1.995239e-003
3.156952e+003,-1.951125e-003
3.158881e+003,-1.957167e-003
3.160809e+003,-1.924001e-003
3.162738e+003,-1.981292e-003
3.164666e+003,-2.005287e-003
3.166594e+003,-1.927122e-003
3.168523e+003,-1.839764e-003
3.170452e+003,-1.822859e-003
3.172380e+003,-1.769755e-003
3.174309e+003,-1.735557e-003
3.176237e+003,-1.768708e-003
3.178166e+003,-1.808386e-003
3.180094e+003,-1.757648e-003
3.182022e+003,-1.759753e-003
3.183951e+003,-1.696285e-003
3.185880e+003,-1.592316e-003
3.187808e+003,-1.447670e-003
3.189737e+003,-1.412209e-003
3.191665e+003,-1.422156e-003
3.193594e+003,-1.554646e-003
3.195522e+003,-1.641553e-003
3.197450e+003,-1.569096e-003
3.199379e+003,-1.483735e-003
3.201308e+003,-1.473941e-003
3.203236e+003,-1.358505e-003
3.205165e+003,-1.210239e-003
3.207093e+003,-1.181524e-003
3.209021e+003,-1.226883e-003
3.210950e+003,-1.225229e-003
3.212878e+003,-1.179360e-003
3.214807e+003,-1.158446e-003
3.216736e+003,-1.187209e-003
3.218664e+003,-1.107514e-003
3.220593e+003,-1.074273e-003
3.222521e+003,-1.162976e-003
3.224449e+003,-1.151901e-003
3.226378e+003,-1.073893e-003
3.228307e+003,-1.082730e-003
3.230235e+003,-1.044005e-003
3.232164e+003,-9.891428e-004
3.234092e+003,-1.020644e-003
3.236021e+003,-9.539500e-004
3.237949e+003,-8.550286e-004
3.239877e+003,-7.760338e-004
3.241806e+003,-8.642152e-004
3.243735e+003,-8.102655e-004
3.245663e+003,-6.878823e-004
3.247592e+003,-7.261969e-004
3.249520e+003,-6.520562e-004
3.251448e+003,-5.451068e-004
3.253377e+003,-5.316325e-004
3.255305e+003,-5.370602e-004
3.257234e+003,-5.643629e-004
3.259163e+003,-5.278848e-004
3.261091e+003,-5.296022e-004
3.263020e+003,-5.052537e-004
3.264948e+003,-3.958233e-004
3.266876e+003,-2.456903e-004
3.268805e+003,-2.342425e-004
3.270733e+003,-2.534389e-004
3.272662e+003,-1.784638e-004
3.274591e+003,-5.241483e-005
3.276519e+003,-2.323836e-005
3.278448e+003,-7.458031e-005
3.280376e+003,-1.490153e-004
3.282304e+003,-1.192875e-004
3.284233e+003,3.274903e-005
3.286161e+003,-5.260110e-006
3.288090e+003,-6.675348e-005
3.290019e+003,2.524629e-005
3.291947e+003,8.386746e-005
3.293875e+003,4.101172e-005
3.295804e+003,-3.907457e-005
3.297732e+003,2.805889e-005
3.299661e+003,6.786361e-005
3.301589e+003,8.293986e-005
3.303518e+003,8.990988e-005
3.305447e+003,1.222715e-004
3.307375e+003,1.617745e-004
3.309303e+003,2.568774e-004
3.311232e+003,3.530048e-004
3.313160e+003,3.618747e-004
3.315089e+003,3.128052e-004
3.317018e+003,3.473759e-004
3.318946e+003,3.637224e-004
3.320875e+003,2.672225e-004
3.322803e+003,2.204031e-004
3.324731e+003,2.728254e-004
3.326660e+003,3.076941e-004
3.328588e+003,3.522933e-004
3.330517e+003,3.949851e-004
3.332446e+003,4.432425e-004
3.334374e+003,4.744902e-004
3.336302e+003,4.517287e-004
3.338231e+003,3.612339e-004
3.340159e+003,2.727285e-004
3.342088e+003,3.005862e-004
3.344016e+003,4.532561e-004
3.345945e+003,5.988106e-004
3.347874e+003,6.433576e-004
3.349802e+003,6.958693e-004
3.351730e+003,6.320551e-004
3.353659e+003,5.185828e-004
3.355587e+003,6.442815e-004
3.357516e+003,6.730705e-004
3.359444e+003,6.079227e-004
3.361373e+003,6.420761e-004
3.363302e+003,6.011724e-004
3.365230e+003,5.825907e-004
3.367158e+003,6.157383e-004
3.369087e+003,6.625727e-004
3.371015e+003,6.523952e-004
3.372944e+003,7.020980e-004
3.374872e+003,6.654114e-004
3.376801e+003,6.874725e-004
3.378729e+003,6.911978e-004
3.380658e+003,6.537437e-004
3.382586e+003,6.466806e-004
3.384515e+003,5.889833e-004
3.386443e+003,6.007552e-004
3.388372e+003,6.418675e-004
3.390300e+003,5.246922e-004
3.392229e+003,5.248263e-004
3.394157e+003,5.600750e-004
3.396086e+003,5.898327e-004
3.398014e+003,6.418675e-004
3.399943e+003,6.342903e-004
3.401871e+003,6.078556e-004
3.403800e+003,6.590560e-004
3.405728e+003,5.353466e-004
3.407657e+003,4.657581e-004
3.409585e+003,4.482642e-004
3.411514e+003,4.883632e-004
3.413442e+003,4.936680e-004
3.415371e+003,4.985034e-004
3.417299e+003,5.460307e-004
3.419228e+003,6.524548e-004
3.421156e+003,6.820112e-004
3.423085e+003,6.784350e-004
3.425013e+003,6.353557e-004
3.426942e+003,5.720705e-004
3.428870e+003,6.098449e-004
3.430799e+003,6.245002e-004
3.432727e+003,5.113110e-004
3.434656e+003,4.330724e-004
3.436584e+003,4.666895e-004
3.438513e+003,6.148294e-004
3.440441e+003,6.752536e-004
3.442370e+003,5.570054e-004
3.444298e+003,5.352050e-004
3.446227e+003,6.923229e-004
3.448155e+003,6.925240e-004
3.450084e+003,6.055459e-004
3.452012e+003,5.893335e-004
3.453941e+003,4.212633e-004
3.455869e+003,3.328100e-004
3.457798e+003,5.123392e-004
3.459726e+003,5.365163e-004
3.461655e+003,5.064383e-004
3.463583e+003,5.392656e-004
3.465512e+003,5.922914e-004
3.467440e+003,6.008521e-004
3.469369e+003,5.338639e-004
3.471297e+003,4.460290e-004
3.473226e+003,4.494563e-004
3.475154e+003,4.854873e-004
3.477083e+003,4.522428e-004
3.479011e+003,4.414767e-004
3.480940e+003,4.999638e-004
3.482868e+003,4.734173e-004
3.484797e+003,3.999248e-004
3.486725e+003,3.641173e-004
3.488654e+003,3.637746e-004
3.490582e+003,2.566427e-004
3.492511e+003,1.893938e-004
3.494439e+003,2.285019e-004
3.496368e+003,2.018213e-004
3.498296e+003,1.340732e-004
3.500225e+003,2.547279e-004
3.502153e+003,3.277734e-004
3.504082e+003,2.519786e-004
3.506010e+003,2.030358e-004
3.507939e+003,2.125502e-004
3.509867e+003,2.389625e-004
3.511796e+003,1.860410e-004
3.513724e+003,1.288056e-004
3.515653e+003,8.599460e-005
3.517581e+003,9.327382e-005
3.519510e+003,5.269796e-005
3.521438e+003,1.819432e-005
3.523367e+003,7.152557e-006
3.525295e+003,-4.059076e-005
3.527224e+003,4.281104e-005
3.529152e+003,1.148134e-004
3.531081e+003,-1.824647e-005
3.533009e+003,-2.509505e-004
3.534938e+003,-2.696067e-004
3.536866e+003,-1.107454e-004
3.538795e+003,-1.496822e-004
3.540723e+003,-2.174526e-004
3.542652e+003,-1.874790e-004
3.544580e+003,-5.201250e-005
3.546509e+003,-2.658367e-005
3.548437e+003,-1.687184e-004
3.550366e+003,-4.496425e-004
3.552294e+003,-6.077290e-004
3.554223e+003,-5.601794e-004
3.556151e+003,-5.937591e-004
3.558080e+003,-6.720498e-004
3.560008e+003,-4.795268e-004
3.561937e+003,-4.813373e-004
3.563865e+003,-5.950630e-004
3.565794e+003,-2.937391e-004
3.567722e+003,2.789646e-004
3.569651e+003,-2.680719e-005
3.571579e+003,-5.131066e-004
3.573508e+003,-7.370487e-004
3.575436e+003,-5.837977e-004
3.577365e+003,-3.269091e-004
3.579293e+003,-3.065914e-004
3.581222e+003,-5.939901e-004
3.583150e+003,-8.444563e-004
3.585079e+003,-7.683486e-004
3.587007e+003,-2.417564e-004
3.588936e+003,2.166703e-004
3.590864e+003,5.306304e-005
3.592793e+003,1.389310e-004
3.594721e+003,5.975366e-004
3.596650e+003,8.087084e-004
3.598578e+003,1.155205e-003
3.600507e+003,1.585461e-003
3.602435e+003,1.641385e-003
3.604364e+003,1.461424e-003
3.606292e+003,1.417801e-003
3.608221e+003,1.640566e-003
3.610149e+003,1.428060e-003
3.612078e+003,9.154305e-004
3.614006e+003,6.405860e-004
3.615935e+003,3.885403e-004
3.617863e+003,3.010184e-004
3.619792e+003,4.221424e-004
3.621720e+003,2.747625e-004
3.623649e+003,3.933907e-005
3.625577e+003,-1.797378e-004
3.627506e+003,1.244769e-004
3.629434e+003,1.059815e-003
3.631363e+003,7.890016e-004
3.633291e+003,4.546717e-004
3.635220e+003,1.371652e-004
3.637148e+003,1.619682e-004
3.639077e+003,3.369227e-004
3.641005e+003,4.787967e-004
3.642934e+003,4.468337e-004
3.644862e+003,1.539513e-004
3.646791e+003,5.233958e-004
3.648719e+003,1.470998e-003
3.650648e+003,1.689695e-003
3.652576e+003,8.244514e-004
3.654505e+003,3.194436e-004
3.656433e+003,4.891232e-004
3.658362e+003,4.194155e-004
3.660290e+003,3.677383e-004
3.662219e+003,2.510101e-004
3.664147e+003,-8.937716e-005
3.666076e+003,-2.697408e-004
3.668004e+003,-1.077577e-004
3.669933e+003,4.351735e-004
3.671861e+003,1.295805e-004
3.673790e+003,-7.878244e-005
3.675718e+003,8.710697e-004
3.677647e+003,8.421615e-004
3.679575e+003,7.267445e-004
3.681504e+003,3.447533e-004
3.683432e+003,-2.760440e-005
3.685361e+003,-3.161132e-004
3.687289e+003,7.225573e-005
3.689218e+003,7.793829e-004
3.691146e+003,9.009913e-004
3.693075e+003,7.143319e-004
3.695003e+003,2.493486e-004
3.696932e+003,-1.013726e-004
3.698860e+003,-1.795664e-004
3.700789e+003,3.259927e-004
3.702717e+003,7.490292e-004
3.704646e+003,4.642755e-004
3.706574e+003,-1.275241e-004
3.708503e+003,-3.890246e-004
3.710431e+003,3.651306e-004
3.712360e+003,1.328416e-003
3.714288e+003,9.416342e-004
3.716217e+003,4.382804e-004
3.718145e+003,1.688451e-004
3.720074e+003,-7.367879e-005
3.722002e+003,1.695082e-004
3.723931e+003,5.805418e-004
3.725859e+003,6.830543e-004
3.727788e+003,4.379153e-004
3.729716e+003,3.429204e-004
3.731645e+003,3.912002e-004
3.733573e+003,5.661771e-004
3.735502e+003,1.894623e-003
3.737430e+003,1.719333e-003
3.739359e+003,7.039085e-004
3.741287e+003,3.374517e-004
3.743216e+003,8.953735e-004
3.745144e+003,1.742691e-003
3.747073e+003,9.289756e-004
3.749001e+003,1.049578e-003
3.750930e+003,2.038054e-003
3.752858e+003,1.901343e-003
3.754787e+003,1.245350e-003
3.756715e+003,1.058839e-003
3.758644e+003,1.170069e-003
3.760572e+003,1.509987e-003
3.762501e+003,1.239911e-003
3.764429e+003,1.039341e-003
3.766358e+003,8.591861e-004
3.768286e+003,9.827167e-004
3.770215e+003,1.450673e-003
3.772143e+003,1.256041e-003
3.774072e+003,1.074567e-003
3.776000e+003,1.005739e-003
3.777929e+003,1.179762e-003
3.779857e+003,1.575239e-003
3.781786e+003,1.582898e-003
3.783714e+003,1.577079e-003
3.785643e+003,1.535453e-003
3.787571e+003,1.362741e-003
3.789500e+003,1.157857e-003
3.791428e+003,1.189746e-003
3.793357e+003,1.269609e-003
3.795285e+003,1.412794e-003
3.797214e+003,1.472615e-003
3.799142e+003,1.246586e-003
3.801071e+003,1.654975e-003
3.802999e+003,1.687236e-003
3.804927e+003,1.418509e-003
3.806856e+003,1.950547e-003
3.808785e+003,2.068378e-003
3.810713e+003,1.805834e-003
3.812642e+003,1.588508e-003
3.814570e+003,1.675241e-003
3.816499e+003,2.194971e-003
3.818427e+003,2.237022e-003
3.820355e+003,2.672181e-003
3.822284e+003,2.487071e-003
3.824213e+003,2.103962e-003
3.826141e+003,1.990139e-003
3.828070e+003,1.862422e-003
3.829998e+003,1.938246e-003
3.831927e+003,2.103910e-003
3.833855e+003,2.044849e-003
3.835783e+003,2.009377e-003
3.837712e+003,2.066553e-003
3.839641e+003,2.192177e-003
3.841569e+003,2.547152e-003
3.843498e+003,2.675563e-003
3.845426e+003,2.373517e-003
3.847354e+003,1.854897e-003
3.849283e+003,1.397893e-003
3.851211e+003,1.317695e-003
3.853140e+003,2.906524e-003
3.855069e+003,3.175981e-003
3.856997e+003,2.626926e-003
3.858926e+003,2.115212e-003
3.860854e+003,2.011053e-003
3.862782e+003,2.397977e-003
3.864711e+003,2.794214e-003
3.866640e+003,2.457157e-003
3.868568e+003,2.348363e-003
3.870497e+003,2.777092e-003
3.872425e+003,2.795704e-003
3.874354e+003,2.997391e-003
3.876282e+003,2.627306e-003
3.878210e+003,2.405025e-003
3.880139e+003,2.602324e-003
3.882068e+003,2.882607e-003
3.883996e+003,2.987616e-003
3.885925e+003,2.972454e-003
3.887853e+003,2.535224e-003
3.889781e+003,2.421550e-003
3.891710e+003,2.862521e-003
3.893638e+003,3.036343e-003
3.895567e+003,2.802260e-003
3.897496e+003,2.527878e-003
3.899424e+003,2.585262e-003
3.901353e+003,3.120743e-003
3.903281e+003,3.432915e-003
3.905209e+003,3.276385e-003
3.907138e+003,3.148019e-003
3.909066e+003,3.151931e-003
3.910995e+003,3.058359e-003
3.912924e+003,2.716094e-003
3.914852e+003,2.673380e-003
3.916781e+003,3.043354e-003
3.918709e+003,3.159158e-003
3.920637e+003,2.944119e-003
3.922566e+003,2.879262e-003
3.924494e+003,3.061950e-003
3.926423e+003,3.013827e-003
3.928352e+003,2.807431e-003
3.930280e+003,2.667464e-003
3.932208e+003,2.940044e-003
3.934137e+003,3.030181e-003
3.936065e+003,2.792962e-003
3.937994e+003,2.614498e-003
3.939922e+003,2.549469e-003
3.941851e+003,2.755828e-003
3.943780e+003,2.820380e-003
3.945708e+003,2.754666e-003
3.947636e+003,2.780132e-003
3.949565e+003,2.757609e-003
3.951493e+003,2.688743e-003
3.953422e+003,2.711616e-003
3.955351e+003,2.688050e-003
3.957279e+003,2.766222e-003
3.959208e+003,2.805218e-003
3.961136e+003,2.868973e-003
3.963064e+003,2.957515e-003
3.964993e+003,2.894275e-003
3.966921e+003,2.906606e-003
3.968850e+003,2.946720e-003
3.970779e+003,2.919577e-003
3.972707e+003,2.981365e-003
3.974635e+003,3.060564e-003
3.976564e+003,3.016621e-003
3.978492e+003,2.949320e-003
3.980421e+003,2.904996e-003
3.982349e+003,2.877325e-003
3.984278e+003,2.842031e-003
3.986207e+003,2.700895e-003
3.988135e+003,2.725333e-003
3.990063e+003,2.850890e-003
3.991992e+003,2.774417e-003
3.993920e+003,2.742045e-003
3.995849e+003,2.798960e-003
3.997777e+003,2.730526e-003
3.999706e+003,2.732858e-003
4.001635e+003,0.000000e+000
