3.991992e+002,0.000000e+000
4.011277e+002,0.000000e+000
4.030562e+002,0.000000e+000
4.049846e+002,0.000000e+000
4.069131e+002,0.000000e+000
4.088416e+002,0.000000e+000
4.107701e+002,0.000000e+000
4.126986e+002,0.000000e+000
4.146271e+002,0.000000e+000
4.165556e+002,0.000000e+000
4.184841e+002,0.000000e+000
4.204126e+002,0.000000e+000
4.223411e+002,0.000000e+000
4.242697e+002,0.000000e+000
4.261982e+002,0.000000e+000
4.281266e+002,0.000000e+000
4.300551e+002,0.000000e+000
4.319836e+002,0.000000e+000
4.339121e+002,0.000000e+000
4.358406e+002,0.000000e+000
4.377691e+002,0.000000e+000
4.396976e+002,0.000000e+000
4.416261e+002,0.000000e+000
4.435546e+002,0.000000e+000
4.454831e+002,0.000000e+000
4.474116e+002,0.000000e+000
4.493401e+002,0.000000e+000
4.512686e+002,0.000000e+000
4.531971e+002,0.000000e+000
4.551256e+002,0.000000e+000
4.570541e+002,0.000000e+000
4.589826e+002,0.000000e+000
4.609111e+002,0.000000e+000
4.628396e+002,0.000000e+000
4.647681e+002,0.000000e+000
4.666966e+002,0.000000e+000
4.686251e+002,0.000000e+000
4.705536e+002,0.000000e+000
4.724821e+002,0.000000e+000
4.744106e+002,0.000000e+000
4.763391e+002,0.000000e+000
4.782676e+002,0.000000e+000
4.801961e+002,0.000000e+000
4.821246e+002,0.000000e+000
4.840531e+002,0.000000e+000
4.859816e+002,0.000000e+000
4.879101e+002,0.000000e+000
4.898386e+002,0.000000e+000
4.917671e+002,0.000000e+000
4.936956e+002,0.000000e+000
4.956241e+002,0.000000e+000
4.975526e+002,0.000000e+000
4.994811e+002,0.000000e+000
5.014096e+002,0.000000e+000
5.033381e+002,0.000000e+000
5.052666e+002,0.000000e+000
5.071951e+002,0.000000e+000
5.091236e+002,0.000000e+000
5.110521e+002,0.000000e+000
5.129806e+002,0.000000e+000
5.149091e+002,0.000000e+000
5.168376e+002,0.000000e+000
5.187661e+002,0.000000e+000
5.206946e+002,0.000000e+000
5.226230e+002,0.000000e+000
5.245516e+002,-7.303935e-004
5.264800e+002,-9.069480e-004
5.284086e+002,-1.002067e-003
5.303370e+002,-1.010169e-003
5.322656e+002,-8.769948e-004
5.341940e+002,-8.739037e-004
5.361226e+002,-8.805385e-004
5.380510e+002,-8.844379e-004
5.399796e+002,-8.884687e-004
5.419081e+002,-8.855425e-004
5.438365e+002,-9.251880e-004
5.457650e+002,-9.951880e-004
5.476935e+002,-9.590527e-004
5.496221e+002,-8.084839e-004
5.515505e+002,-6.912677e-004
5.534790e+002,-5.831961e-004
5.554075e+002,-4.752018e-004
5.573361e+002,-6.064251e-004
5.592645e+002,-8.895695e-004
5.611931e+002,-1.017638e-003
5.631215e+002,-9.740656e-004
5.650500e+002,-8.971626e-004
5.669785e+002,-8.414937e-004
5.689070e+002,-8.717747e-004
5.708355e+002,-8.383282e-004
5.727640e+002,-9.429688e-004
5.746925e+002,-1.098382e-003
5.766210e+002,-1.146153e-003
5.785495e+002,-1.022479e-003
5.804780e+002,-9.016022e-004
5.824065e+002,-7.834146e-004
5.843350e+002,-8.602347e-004
5.862635e+002,-8.265013e-004
5.881920e+002,-7.894104e-004
5.901205e+002,-8.867225e-004
5.920490e+002,-9.702053e-004
5.939775e+002,-8.721938e-004
5.959060e+002,-8.202726e-004
5.978345e+002,-8.311290e-004
5.997630e+002,-8.063968e-004
6.016915e+002,-6.448766e-004
6.036200e+002,-5.644904e-004
6.055485e+002,-4.948378e-004
6.074770e+002,-4.119333e-004
6.094055e+002,-3.993437e-004
6.113340e+002,-4.825313e-004
6.132625e+002,-5.040150e-004
6.151910e+002,-5.886592e-004
6.171195e+002,-5.665459e-004
6.190480e+002,-5.210908e-004
6.209765e+002,-5.133683e-004
6.229050e+002,-4.414264e-004
6.248335e+002,-2.787150e-004
6.267620e+002,-2.108235e-004
6.286905e+002,-1.714705e-004
6.306190e+002,-1.598699e-004
6.325475e+002,-1.463601e-004
6.344760e+002,-1.788484e-004
6.364045e+002,-1.491942e-004
6.383330e+002,-3.717467e-005
6.402615e+002,1.154169e-004
6.421899e+002,6.009173e-005
6.441185e+002,6.612670e-005
6.460470e+002,2.045808e-004
6.479755e+002,1.664246e-004
6.499039e+002,-2.950802e-005
6.518325e+002,-6.750692e-005
6.537610e+002,1.244247e-006
6.556895e+002,2.302770e-004
6.576179e+002,3.733328e-004
6.595464e+002,4.381062e-004
6.614750e+002,4.155384e-004
6.634034e+002,4.234314e-004
6.653319e+002,3.769118e-004
6.672604e+002,5.564652e-004
6.691890e+002,6.529856e-004
6.711174e+002,5.964739e-004
6.730460e+002,5.947724e-004
6.749745e+002,8.003898e-004
6.769030e+002,1.008194e-003
6.788314e+002,1.222461e-003
6.807599e+002,1.306511e-003
6.826885e+002,1.421795e-003
6.846169e+002,1.509259e-003
6.865454e+002,1.680299e-003
6.884739e+002,1.876364e-003
6.904025e+002,2.153621e-003
6.923309e+002,2.381496e-003
6.942594e+002,2.865970e-003
6.961879e+002,3.372566e-003
6.981165e+002,3.972619e-003
7.000449e+002,4.655402e-003
7.019734e+002,5.773470e-003
7.039019e+002,7.144715e-003
7.058304e+002,9.139789e-003
7.077589e+002,1.180149e-002
7.096874e+002,1.610988e-002
7.116159e+002,2.334349e-002
7.135444e+002,3.768767e-002
7.154729e+002,6.364066e-002
7.174014e+002,9.913135e-002
7.193299e+002,1.082212e-001
7.212584e+002,6.962232e-002
7.231869e+002,3.924899e-002
7.251154e+002,3.165291e-002
7.270439e+002,3.970918e-002
7.289724e+002,6.278996e-002
7.309009e+002,6.702850e-002
7.328294e+002,3.706700e-002
7.347579e+002,1.487340e-002
7.366864e+002,7.458314e-003
7.386149e+002,4.825413e-003
7.405434e+002,3.404385e-003
7.424719e+002,2.681768e-003
7.444004e+002,2.109893e-003
7.463289e+002,1.765615e-003
7.482574e+002,1.407481e-003
7.501859e+002,1.141364e-003
7.521144e+002,9.568706e-004
7.540428e+002,9.917021e-004
7.559714e+002,8.123107e-004
7.578999e+002,6.586388e-004
7.598284e+002,5.351361e-004
7.617568e+002,5.072812e-004
7.636854e+002,5.004294e-004
7.656139e+002,5.312394e-004
7.675424e+002,4.596524e-004
7.694709e+002,4.606824e-004
7.713994e+002,4.117973e-004
7.733279e+002,3.559850e-004
7.752563e+002,2.688710e-004
7.771849e+002,2.459195e-004
7.791134e+002,1.914054e-004
7.810419e+002,1.996215e-004
7.829703e+002,1.986250e-004
7.848989e+002,1.769625e-004
7.868274e+002,1.740586e-004
7.887559e+002,1.872312e-004
7.906843e+002,1.910869e-004
7.926129e+002,2.630539e-004
7.945414e+002,2.833866e-004
7.964698e+002,3.099591e-004
7.983983e+002,3.630631e-004
8.003268e+002,3.892537e-004
8.022554e+002,3.824346e-004
8.041838e+002,4.170556e-004
8.061123e+002,4.205350e-004
8.080408e+002,4.289616e-004
8.099694e+002,3.508292e-004
8.118978e+002,2.873912e-004
8.138263e+002,2.526734e-004
8.157548e+002,2.454836e-004
8.176833e+002,2.351739e-004
8.196118e+002,2.051387e-004
8.215403e+002,2.060980e-004
8.234689e+002,1.912285e-004
8.253973e+002,2.029613e-004
8.273258e+002,1.836270e-004
8.292543e+002,1.569036e-004
8.311829e+002,1.921356e-004
8.331113e+002,1.686923e-004
8.350398e+002,1.323465e-004
8.369683e+002,1.419540e-004
8.388969e+002,1.677629e-004
8.408253e+002,1.670159e-004
8.427538e+002,2.521817e-004
8.446823e+002,2.777614e-004
8.466108e+002,2.178606e-004
8.485393e+002,2.047513e-004
8.504678e+002,2.752300e-004
8.523963e+002,3.269091e-004
8.543248e+002,3.166087e-004
8.562533e+002,3.272761e-004
8.581818e+002,3.358573e-004
8.601103e+002,2.959464e-004
8.620388e+002,2.644975e-004
8.639673e+002,2.794079e-004
8.658958e+002,3.019236e-004
8.678243e+002,3.520548e-004
8.697528e+002,4.060026e-004
8.716813e+002,4.078224e-004
8.736098e+002,4.171301e-004
8.755383e+002,4.673265e-004
8.774668e+002,4.699025e-004
8.793953e+002,4.963223e-004
8.813238e+002,6.017182e-004
8.832523e+002,7.326342e-004
8.851808e+002,7.656813e-004
8.871093e+002,7.378198e-004
8.890378e+002,7.236842e-004
8.909663e+002,7.428713e-004
8.928948e+002,8.138120e-004
8.948232e+002,8.667447e-004
8.967518e+002,1.031054e-003
8.986803e+002,1.172945e-003
9.006088e+002,1.295218e-003
9.025372e+002,1.644852e-003
9.044658e+002,2.390621e-003
9.063943e+002,3.373316e-003
9.083228e+002,3.815463e-003
9.102512e+002,3.347063e-003
9.121797e+002,2.382478e-003
9.141083e+002,1.670854e-003
9.160367e+002,1.302637e-003
9.179653e+002,1.097562e-003
9.198937e+002,1.075074e-003
9.218223e+002,1.000972e-003
9.237507e+002,8.805841e-004
9.256793e+002,8.410644e-004
9.276077e+002,9.278357e-004
9.295363e+002,9.913892e-004
9.314647e+002,9.213034e-004
9.333932e+002,8.418895e-004
9.353217e+002,8.347463e-004
9.372502e+002,8.367095e-004
9.391787e+002,8.344688e-004
9.411072e+002,8.931383e-004
9.430358e+002,9.334013e-004
9.449642e+002,8.847620e-004
9.468928e+002,7.933415e-004
9.488212e+002,8.599795e-004
9.507498e+002,9.858664e-004
9.526782e+002,1.070123e-003
9.546068e+002,1.101306e-003
9.565352e+002,1.136150e-003
9.584637e+002,1.169579e-003
9.603922e+002,1.219112e-003
9.623207e+002,1.257477e-003
9.642492e+002,1.313379e-003
9.661777e+002,1.373431e-003
9.681062e+002,1.390578e-003
9.700347e+002,1.338869e-003
9.719632e+002,1.323242e-003
9.738917e+002,1.303984e-003
9.758202e+002,1.237625e-003
9.777487e+002,1.168558e-003
9.796772e+002,1.211563e-003
9.816057e+002,1.312615e-003
9.835342e+002,1.447994e-003
9.854627e+002,1.633001e-003
9.873912e+002,1.873953e-003
9.893197e+002,2.057264e-003
9.912482e+002,2.102731e-003
9.931767e+002,2.046172e-003
9.951052e+002,1.924511e-003
9.970337e+002,1.757123e-003
9.989622e+002,1.670737e-003
1.000891e+003,1.616105e-003
1.002819e+003,1.559291e-003
1.004748e+003,1.592914e-003
1.006676e+003,1.656272e-003
1.008605e+003,1.685681e-003
1.010533e+003,1.763828e-003
1.012462e+003,1.827985e-003
1.014390e+003,1.876649e-003
1.016319e+003,1.925038e-003
1.018247e+003,1.973461e-003
1.020176e+003,2.001425e-003
1.022104e+003,2.022941e-003
1.024033e+003,2.042426e-003
1.025961e+003,2.057660e-003
1.027890e+003,2.075382e-003
1.029818e+003,2.165867e-003
1.031747e+003,2.178237e-003
1.033675e+003,2.206236e-003
1.035604e+003,2.256634e-003
1.037532e+003,2.248617e-003
1.039461e+003,2.239488e-003
1.041389e+003,2.296081e-003
1.043318e+003,2.336800e-003
1.045246e+003,2.420487e-003
1.047175e+003,2.545431e-003
1.049103e+003,2.750225e-003
1.051032e+003,2.880873e-003
1.052960e+003,2.770238e-003
1.054889e+003,2.702752e-003
1.056817e+003,2.788937e-003
1.058746e+003,2.867030e-003
1.060674e+003,2.919812e-003
1.062603e+003,2.943298e-003
1.064531e+003,2.982449e-003
1.066460e+003,2.977103e-003
1.068388e+003,2.960240e-003
1.070317e+003,3.038319e-003
1.072245e+003,3.124151e-003
1.074174e+003,3.170429e-003
1.076102e+003,3.337272e-003
1.078031e+003,3.484126e-003
1.079959e+003,3.611380e-003
1.081888e+003,3.635611e-003
1.083816e+003,3.575547e-003
1.085745e+003,3.476964e-003
1.087673e+003,3.409551e-003
1.089602e+003,3.335910e-003
1.091530e+003,3.291117e-003
1.093459e+003,3.247038e-003
1.095387e+003,3.184982e-003
1.097316e+003,3.132997e-003
1.099244e+003,3.118472e-003
1.101173e+003,3.128478e-003
1.103101e+003,3.163652e-003
1.105030e+003,3.134774e-003
1.106958e+003,3.094066e-003
1.108887e+003,3.051998e-003
1.110815e+003,3.067683e-003
1.112744e+003,3.062339e-003
1.114672e+003,3.044790e-003
1.116601e+003,2.999492e-003
1.118529e+003,2.951331e-003
1.120458e+003,2.908766e-003
1.122386e+003,2.942095e-003
1.124315e+003,2.917143e-003
1.126243e+003,2.911123e-003
1.128172e+003,2.932997e-003
1.130100e+003,3.008137e-003
1.132029e+003,2.994234e-003
1.133957e+003,2.996748e-003
1.135885e+003,3.051907e-003
1.137814e+003,3.092751e-003
1.139743e+003,3.151000e-003
1.141671e+003,3.287693e-003
1.143600e+003,3.473168e-003
1.145528e+003,3.752006e-003
1.147457e+003,4.127581e-003
1.149385e+003,4.659466e-003
1.151314e+003,5.257666e-003
1.153242e+003,5.767329e-003
1.155171e+003,6.039800e-003
1.157099e+003,6.128686e-003
1.159028e+003,6.088471e-003
1.160956e+003,6.070470e-003
1.162885e+003,6.029030e-003
1.164813e+003,5.903658e-003
1.166742e+003,5.652435e-003
1.168670e+003,5.426772e-003
1.170599e+003,5.119763e-003
1.172527e+003,4.844368e-003
1.174456e+003,4.690433e-003
1.176384e+003,4.512683e-003
1.178313e+003,4.077287e-003
1.180241e+003,3.746498e-003
1.182170e+003,3.610501e-003
1.184098e+003,3.645748e-003
1.186027e+003,3.705526e-003
1.187955e+003,3.793610e-003
1.189884e+003,3.800645e-003
1.191812e+003,3.848275e-003
1.193740e+003,3.973329e-003
1.195669e+003,4.167033e-003
1.197598e+003,4.365237e-003
1.199526e+003,4.617171e-003
1.201455e+003,4.947327e-003
1.203383e+003,5.339367e-003
1.205312e+003,5.695421e-003
1.207240e+003,6.035943e-003
1.209168e+003,6.282384e-003
1.211097e+003,6.489981e-003
1.213026e+003,6.607519e-003
1.214954e+003,6.765308e-003
1.216883e+003,6.882656e-003
1.218811e+003,7.034678e-003
1.220740e+003,7.180145e-003
1.222668e+003,7.319320e-003
1.224596e+003,7.449854e-003
1.226525e+003,7.602695e-003
1.228453e+003,7.713249e-003
1.230382e+003,7.891804e-003
1.232311e+003,8.075852e-003
1.234239e+003,8.252570e-003
1.236167e+003,8.385763e-003
1.238096e+003,8.503854e-003
1.240025e+003,8.534528e-003
1.241953e+003,8.542258e-003
1.243882e+003,8.460771e-003
1.245810e+003,8.328767e-003
1.247739e+003,8.066105e-003
1.249667e+003,7.801790e-003
1.251595e+003,7.483669e-003
1.253524e+003,7.138582e-003
1.255453e+003,6.740596e-003
1.257381e+003,6.356206e-003
1.259310e+003,5.896010e-003
1.261238e+003,5.450191e-003
1.263167e+003,5.050907e-003
1.265095e+003,4.779784e-003
1.267023e+003,4.559930e-003
1.268952e+003,4.392087e-003
1.270880e+003,4.242571e-003
1.272809e+003,4.225124e-003
1.274738e+003,4.197417e-003
1.276666e+003,4.192008e-003
1.278594e+003,4.157331e-003
1.280523e+003,4.203910e-003
1.282451e+003,4.275260e-003
1.284380e+003,4.344907e-003
1.286308e+003,4.419889e-003
1.288237e+003,4.582478e-003
1.290166e+003,4.727975e-003
1.292094e+003,4.949724e-003
1.294022e+003,5.140489e-003
1.295951e+003,5.326055e-003
1.297879e+003,5.467596e-003
1.299808e+003,5.634475e-003
1.301736e+003,5.675931e-003
1.303665e+003,5.697263e-003
1.305594e+003,5.660634e-003
1.307522e+003,5.597891e-003
1.309450e+003,5.422380e-003
1.311379e+003,5.248521e-003
1.313307e+003,5.000079e-003
1.315236e+003,4.809799e-003
1.317164e+003,4.540890e-003
1.319093e+003,4.315943e-003
1.321021e+003,4.081709e-003
1.322950e+003,3.956608e-003
1.324878e+003,3.858019e-003
1.326807e+003,3.809076e-003
1.328735e+003,3.690628e-003
1.330664e+003,3.729703e-003
1.332592e+003,3.880071e-003
1.334521e+003,4.125718e-003
1.336449e+003,4.326586e-003
1.338378e+003,4.612859e-003
1.340306e+003,4.896743e-003
1.342235e+003,5.234787e-003
1.344163e+003,5.542768e-003
1.346092e+003,5.940976e-003
1.348021e+003,6.334888e-003
1.349949e+003,6.758975e-003
1.351877e+003,6.913019e-003
1.353806e+003,6.899243e-003
1.355734e+003,6.759649e-003
1.357663e+003,6.765814e-003
1.359591e+003,6.883018e-003
1.361520e+003,7.220803e-003
1.363448e+003,7.803289e-003
1.365377e+003,8.410554e-003
1.367305e+003,8.723900e-003
1.369234e+003,8.605899e-003
1.371162e+003,7.888034e-003
1.373091e+003,7.111667e-003
1.375019e+003,6.439643e-003
1.376948e+003,6.074818e-003
1.378876e+003,5.386602e-003
1.380805e+003,4.754614e-003
1.382733e+003,4.236929e-003
1.384662e+003,3.983160e-003
1.386590e+003,3.758797e-003
1.388519e+003,3.772993e-003
1.390447e+003,3.734600e-003
1.392376e+003,3.837857e-003
1.394304e+003,3.757402e-003
1.396233e+003,3.791407e-003
1.398161e+003,3.758347e-003
1.400090e+003,3.975969e-003
1.402018e+003,4.037153e-003
1.403947e+003,4.169285e-003
1.405875e+003,4.140588e-003
1.407804e+003,4.278226e-003
1.409732e+003,4.323682e-003
1.411661e+003,4.629020e-003
1.413589e+003,4.800972e-003
1.415518e+003,5.015125e-003
1.417446e+003,5.058141e-003
1.419375e+003,5.459560e-003
1.421303e+003,5.669985e-003
1.423232e+003,6.292135e-003
1.425160e+003,7.119156e-003
1.427089e+003,8.213364e-003
1.429017e+003,9.393357e-003
1.430946e+003,1.125783e-002
1.432874e+003,1.271835e-002
1.434803e+003,1.408976e-002
1.436731e+003,1.532748e-002
1.438660e+003,1.660838e-002
1.440588e+003,1.733896e-002
1.442517e+003,1.848080e-002
1.444445e+003,1.930831e-002
1.446374e+003,2.049756e-002
1.448302e+003,2.211897e-002
1.450231e+003,2.490811e-002
1.452159e+003,2.906138e-002
1.454088e+003,3.485214e-002
1.456016e+003,4.177545e-002
1.457945e+003,6.946641e-002
1.459873e+003,1.221659e-001
1.461802e+003,1.590421e-001
1.463730e+003,1.360697e-001
1.465659e+003,8.822965e-002
1.467587e+003,8.343453e-002
1.469516e+003,9.473852e-002
1.471444e+003,1.257467e-001
1.473373e+003,1.180052e-001
1.475301e+003,5.998066e-002
1.477230e+003,2.275517e-002
1.479158e+003,1.260385e-002
1.481087e+003,8.456852e-003
1.483015e+003,6.832823e-003
1.484944e+003,5.609805e-003
1.486872e+003,5.264292e-003
1.488801e+003,4.143735e-003
1.490729e+003,4.196884e-003
1.492658e+003,3.769467e-003
1.494586e+003,3.893582e-003
1.496515e+003,3.353544e-003
1.498443e+003,3.375769e-003
1.500372e+003,3.002867e-003
1.502300e+003,3.136983e-003
1.504229e+003,2.829131e-003
1.506157e+003,2.865417e-003
1.508086e+003,2.093660e-003
1.510014e+003,2.499582e-003
1.511943e+003,2.364093e-003
1.513871e+003,2.672667e-003
1.515800e+003,2.577119e-003
1.517728e+003,2.734635e-003
1.519657e+003,2.504531e-003
1.521585e+003,2.628798e-003
1.523514e+003,2.237860e-003
1.525442e+003,2.437290e-003
1.527371e+003,2.429716e-003
1.529299e+003,2.614744e-003
1.531228e+003,2.432508e-003
1.533156e+003,2.569221e-003
1.535085e+003,2.512701e-003
1.537013e+003,2.746288e-003
1.538942e+003,2.756799e-003
1.540870e+003,2.705237e-003
1.542799e+003,2.147712e-003
1.544727e+003,2.374042e-003
1.546656e+003,2.384270e-003
1.548584e+003,2.498507e-003
1.550513e+003,2.453113e-003
1.552441e+003,2.566775e-003
1.554370e+003,2.463499e-003
1.556298e+003,2.615556e-003
1.558227e+003,2.239974e-003
1.560155e+003,1.918931e-003
1.562084e+003,1.949690e-003
1.564012e+003,2.176756e-003
1.565941e+003,2.149742e-003
1.567869e+003,2.175208e-003
1.569798e+003,2.045665e-003
1.571726e+003,2.172492e-003
1.573655e+003,2.165923e-003
1.575583e+003,2.233043e-003
1.577512e+003,2.055380e-003
1.579440e+003,2.167623e-003
1.581369e+003,2.184166e-003
1.583297e+003,2.280639e-003
1.585226e+003,2.274482e-003
1.587154e+003,2.301719e-003
1.589083e+003,2.226848e-003
1.591011e+003,2.260007e-003
1.592940e+003,2.179628e-003
1.594868e+003,2.219241e-003
1.596797e+003,2.210977e-003
1.598725e+003,2.250195e-003
1.600654e+003,2.151946e-003
1.602582e+003,2.225051e-003
1.604511e+003,2.194183e-003
1.606439e+003,2.191590e-003
1.608368e+003,2.149725e-003
1.610296e+003,2.311781e-003
1.612225e+003,2.361314e-003
1.614153e+003,2.466371e-003
1.616082e+003,2.450341e-003
1.618010e+003,2.518229e-003
1.619939e+003,2.533391e-003
1.621867e+003,2.722610e-003
1.623796e+003,2.919242e-003
1.625724e+003,3.088858e-003
1.627653e+003,2.980452e-003
1.629581e+003,3.083846e-003
1.631510e+003,3.187422e-003
1.633438e+003,3.315086e-003
1.635367e+003,3.131194e-003
1.637295e+003,3.122166e-003
1.639224e+003,3.327331e-003
1.641152e+003,3.541149e-003
1.643081e+003,3.436068e-003
1.645009e+003,3.295949e-003
1.646938e+003,2.897529e-003
1.648866e+003,2.833884e-003
1.650795e+003,2.733529e-003
1.652723e+003,2.716539e-003
1.654652e+003,2.453310e-003
1.656580e+003,2.583222e-003
1.658509e+003,2.564566e-003
1.660437e+003,2.635354e-003
1.662366e+003,2.619565e-003
1.664294e+003,2.525661e-003
1.666223e+003,2.313033e-003
1.668151e+003,2.299657e-003
1.670080e+003,2.205232e-003
1.672008e+003,2.089918e-003
1.673937e+003,1.873495e-003
1.675865e+003,1.940753e-003
1.677794e+003,1.979409e-003
1.679722e+003,1.958437e-003
1.681651e+003,1.703272e-003
1.683579e+003,1.726532e-003
1.685508e+003,1.315016e-003
1.687436e+003,1.247123e-003
1.689365e+003,1.195185e-003
1.691293e+003,1.288414e-003
1.693222e+003,1.272731e-003
1.695150e+003,1.302658e-003
1.697079e+003,9.873565e-004
1.699007e+003,9.313207e-004
1.700936e+003,5.792342e-004
1.702864e+003,6.355420e-004
1.704793e+003,5.945768e-004
1.706721e+003,6.055031e-004
1.708650e+003,6.140191e-004
1.710578e+003,7.599834e-004
1.712507e+003,8.307379e-004
1.714435e+003,9.060223e-004
1.716364e+003,6.354228e-004
1.718292e+003,6.165449e-004
1.720221e+003,6.045047e-004
1.722149e+003,6.786138e-004
1.724078e+003,7.116199e-004
1.726006e+003,8.631051e-004
1.727935e+003,9.169132e-004
1.729863e+003,1.015417e-003
1.731792e+003,9.353887e-004
1.733720e+003,8.053537e-004
1.735649e+003,6.912258e-004
1.737577e+003,8.164942e-004
1.739506e+003,8.445680e-004
1.741434e+003,9.252205e-004
1.743363e+003,7.935595e-004
1.745291e+003,7.316601e-004
1.747220e+003,6.227903e-004
1.749148e+003,5.505923e-004
1.751077e+003,2.411380e-004
1.753005e+003,1.786053e-004
1.754934e+003,1.668669e-004
1.756862e+003,1.523066e-004
1.758791e+003,5.453825e-006
1.760719e+003,-7.506832e-005
1.762648e+003,-3.367681e-004
1.764576e+003,-3.139339e-004
1.766505e+003,-2.836846e-004
1.768433e+003,-2.097636e-004
1.770362e+003,-2.434105e-004
1.772290e+003,-2.111066e-004
1.774219e+003,-4.659817e-004
1.776147e+003,-4.620552e-004
1.778076e+003,-3.868826e-004
1.780004e+003,-2.715141e-004
1.781933e+003,-4.111342e-004
1.783861e+003,-4.113466e-004
1.785790e+003,-4.315805e-004
1.787718e+003,-2.859607e-004
1.789646e+003,-3.358126e-004
1.791575e+003,-4.221592e-004
1.793504e+003,-5.736854e-004
1.795432e+003,-4.740860e-004
1.797361e+003,-4.180875e-004
1.799289e+003,-2.984926e-004
1.801218e+003,-4.741885e-004
1.803146e+003,-5.054493e-004
1.805074e+003,-5.290061e-004
1.807003e+003,-4.886333e-004
1.808932e+003,-5.588233e-004
1.810860e+003,-6.344058e-004
1.812789e+003,-8.401107e-004
1.814717e+003,-1.012444e-003
1.816646e+003,-1.067447e-003
1.818574e+003,-6.398708e-004
1.820502e+003,-5.968623e-004
1.822431e+003,-5.482398e-004
1.824360e+003,-5.349293e-004
1.826288e+003,-6.502904e-004
1.828217e+003,-1.011396e-003
1.830145e+003,-1.051966e-003
1.832073e+003,-1.143251e-003
1.834002e+003,-1.182787e-003
1.835931e+003,-1.305256e-003
1.837859e+003,-1.185654e-003
1.839788e+003,-1.190262e-003
1.841716e+003,-1.268802e-003
1.843645e+003,-1.556816e-003
1.845573e+003,-1.380024e-003
1.847501e+003,-1.432598e-003
1.849430e+003,-1.364850e-003
1.851359e+003,-1.283893e-003
1.853287e+003,-1.033064e-003
1.855216e+003,-1.091674e-003
1.857144e+003,-1.144908e-003
1.859073e+003,-1.413004e-003
1.861001e+003,-1.338370e-003
1.862929e+003,-1.365662e-003
1.864858e+003,-1.260769e-003
1.866787e+003,-1.189031e-003
1.868715e+003,-1.013618e-003
1.870644e+003,-1.283512e-003
1.872572e+003,-1.260486e-003
1.874500e+003,-1.342703e-003
1.876429e+003,-1.199547e-003
1.878357e+003,-1.187440e-003
1.880286e+003,-1.229905e-003
1.882215e+003,-1.519345e-003
1.884143e+003,-1.281437e-003
1.886072e+003,-1.177587e-003
1.888000e+003,-9.137653e-004
1.889928e+003,-7.781014e-004
1.891857e+003,-5.172007e-004
1.893785e+003,-5.612522e-004
1.895714e+003,-3.575869e-004
1.897643e+003,-4.772209e-004
1.899571e+003,-3.508627e-004
1.901500e+003,-3.464334e-004
1.903428e+003,-3.420077e-004
1.905356e+003,-3.375858e-004
1.907285e+003,-3.331602e-004
1.909213e+003,-3.287382e-004
1.911142e+003,-3.243126e-004
1.913071e+003,-3.198870e-004
1.914999e+003,-3.154650e-004
1.916927e+003,-3.110394e-004
1.918856e+003,-3.066137e-004
1.920784e+003,-3.021881e-004
1.922713e+003,-2.977662e-004
1.924641e+003,-2.933443e-004
1.926570e+003,-2.889223e-004
1.928499e+003,-2.845004e-004
1.930427e+003,-2.800785e-004
1.932355e+003,-2.756603e-004
1.934284e+003,-2.712309e-004
1.936212e+003,-2.668090e-004
1.938141e+003,-2.623908e-004
1.940070e+003,-2.579652e-004
1.941998e+003,-2.535433e-004
1.943927e+003,-2.491251e-004
1.945855e+003,-2.447069e-004
1.947783e+003,-2.402812e-004
1.949712e+003,-2.358630e-004
1.951640e+003,-2.314411e-004
1.953569e+003,-2.270192e-004
1.955498e+003,-2.225973e-004
1.957426e+003,-2.181791e-004
1.959354e+003,-2.137609e-004
1.961283e+003,-2.093427e-004
1.963211e+003,-2.049208e-004
1.965140e+003,-2.005026e-004
1.967068e+003,-1.960807e-004
1.968997e+003,-1.916625e-004
1.970926e+003,-1.872443e-004
1.972854e+003,-1.828298e-004
1.974782e+003,-1.784079e-004
1.976711e+003,-1.739897e-004
1.978639e+003,-1.695752e-004
1.980568e+003,-1.651570e-004
1.982496e+003,-1.607351e-004
1.984425e+003,-1.563169e-004
1.986354e+003,-1.519024e-004
1.988282e+003,-1.474842e-004
1.990210e+003,-1.430660e-004
1.992139e+003,-1.386516e-004
1.994067e+003,-1.342371e-004
1.995996e+003,-1.298226e-004
1.997924e+003,-1.254044e-004
1.999853e+003,-1.209863e-004
2.001781e+003,-1.165718e-004
2.003710e+003,-1.121536e-004
2.005638e+003,-1.077428e-004
2.007567e+003,-1.033247e-004
2.009495e+003,-9.891018e-005
2.011424e+003,-9.449944e-005
2.013352e+003,-9.008124e-005
2.015281e+003,-8.566305e-005
2.017209e+003,-8.125231e-005
2.019138e+003,-7.683784e-005
2.021066e+003,-7.242337e-005
2.022995e+003,-6.801262e-005
2.024923e+003,-6.359816e-005
2.026852e+003,-5.918741e-005
2.028781e+003,-5.477294e-005
2.030709e+003,-5.035847e-005
2.032637e+003,-4.594401e-005
2.034566e+003,-4.153326e-005
2.036494e+003,-3.711879e-005
2.038423e+003,-3.270805e-005
2.040351e+003,-2.829731e-005
2.042280e+003,-2.388656e-005
2.044208e+003,-1.947582e-005
2.046137e+003,-1.506507e-005
2.048065e+003,-1.065433e-005
2.049994e+003,-6.243587e-006
2.051922e+003,-1.836568e-006
2.053851e+003,2.581626e-006
2.055779e+003,6.992370e-006
2.057708e+003,1.139939e-005
2.059636e+003,1.581013e-005
2.061565e+003,2.021715e-005
2.063493e+003,2.462789e-005
2.065422e+003,2.903864e-005
2.067350e+003,3.344566e-005
2.069279e+003,3.786013e-005
2.071207e+003,4.226714e-005
2.073136e+003,4.667416e-005
2.075064e+003,5.108118e-005
2.076993e+003,5.548820e-005
2.078921e+003,5.989894e-005
2.080850e+003,6.430596e-005
2.082778e+003,6.871298e-005
2.084707e+003,7.312372e-005
2.086635e+003,7.753447e-005
2.088564e+003,8.193776e-005
2.090492e+003,8.634478e-005
2.092421e+003,9.075180e-005
2.094349e+003,9.515882e-005
2.096278e+003,9.956583e-005
2.098206e+003,1.039729e-004
2.100135e+003,1.083761e-004
2.102063e+003,1.127832e-004
2.103992e+003,1.171865e-004
2.105920e+003,1.215898e-004
2.107849e+003,1.259930e-004
2.109777e+003,1.304038e-004
2.111706e+003,1.348108e-004
2.113634e+003,1.392141e-004
2.115563e+003,1.436211e-004
2.117491e+003,1.480244e-004
2.119420e+003,1.524277e-004
2.121348e+003,1.568273e-004
2.123277e+003,1.612306e-004
2.125205e+003,1.656339e-004
2.127134e+003,1.700446e-004
2.129062e+003,1.744442e-004
2.130991e+003,1.788475e-004
2.132919e+003,1.832470e-004
2.134848e+003,1.876503e-004
2.136776e+003,1.920499e-004
2.138705e+003,1.964569e-004
2.140633e+003,2.008602e-004
2.142562e+003,2.052635e-004
2.144490e+003,2.096631e-004
2.146419e+003,2.140664e-004
2.148347e+003,2.184659e-004
2.150276e+003,2.228692e-004
2.152204e+003,2.272688e-004
2.154133e+003,2.316684e-004
2.156061e+003,2.360716e-004
2.157990e+003,2.404749e-004
2.159918e+003,2.448708e-004
2.161847e+003,2.492703e-004
2.163775e+003,2.536699e-004
2.165704e+003,2.580695e-004
2.167632e+003,2.624653e-004
2.169561e+003,2.668649e-004
2.171489e+003,2.712607e-004
2.173418e+003,2.756678e-004
2.175346e+003,2.800673e-004
2.177275e+003,2.844669e-004
2.179203e+003,2.888627e-004
2.181132e+003,2.932623e-004
2.183060e+003,2.976544e-004
2.184989e+003,3.020503e-004
2.186917e+003,3.064536e-004
2.188846e+003,3.108494e-004
2.190774e+003,3.152490e-004
2.192703e+003,3.196448e-004
2.194631e+003,3.240444e-004
2.196560e+003,3.284365e-004
2.198488e+003,3.328323e-004
2.200417e+003,3.372319e-004
2.202345e+003,3.416277e-004
2.204274e+003,3.460236e-004
2.206202e+003,3.504232e-004
2.208131e+003,3.548153e-004
2.210059e+003,3.592111e-004
2.211988e+003,3.636032e-004
2.213916e+003,3.679954e-004
2.215845e+003,3.723875e-004
2.217773e+003,3.767870e-004
2.219702e+003,3.811829e-004
2.221630e+003,3.855750e-004
2.223559e+003,3.899708e-004
2.225487e+003,3.943667e-004
2.227416e+003,3.987588e-004
2.229344e+003,4.031509e-004
2.231273e+003,4.075468e-004
2.233201e+003,4.119389e-004
2.235130e+003,4.163310e-004
2.237058e+003,4.207231e-004
2.238987e+003,4.251190e-004
2.240915e+003,4.295073e-004
2.242844e+003,4.338995e-004
2.244772e+003,4.382916e-004
2.246701e+003,4.426837e-004
2.248629e+003,4.470721e-004
2.250558e+003,4.514642e-004
2.252486e+003,4.558563e-004
2.254415e+003,4.602522e-004
2.256343e+003,4.646443e-004
2.258272e+003,4.690289e-004
2.260200e+003,4.734173e-004
2.262129e+003,4.778095e-004
2.264057e+003,4.822016e-004
2.265986e+003,4.865900e-004
2.267914e+003,4.909784e-004
2.269843e+003,4.953630e-004
2.271771e+003,4.997589e-004
2.273700e+003,5.041473e-004
2.275628e+003,5.085394e-004
2.277557e+003,5.129278e-004
2.279485e+003,5.173124e-004
2.281414e+003,5.217008e-004
2.283342e+003,5.260892e-004
2.285271e+003,5.304776e-004
2.287199e+003,5.348660e-004
2.289128e+003,5.392581e-004
2.291056e+003,5.436428e-004
2.292985e+003,5.480312e-004
2.294913e+003,5.524158e-004
2.296842e+003,5.568005e-004
2.298770e+003,5.611852e-004
2.300699e+003,5.655736e-004
2.302627e+003,5.699694e-004
2.304556e+003,5.743504e-004
2.306484e+003,5.787387e-004
2.308413e+003,5.831234e-004
2.310341e+003,5.875006e-004
2.312270e+003,5.918890e-004
2.314198e+003,5.962700e-004
2.316127e+003,6.006546e-004
2.318055e+003,6.050467e-004
2.319984e+003,6.094314e-004
2.321912e+003,6.138161e-004
2.323841e+003,6.181970e-004
2.325769e+003,6.225854e-004
2.327698e+003,6.269664e-004
2.329626e+003,6.313473e-004
2.331555e+003,6.357320e-004
2.333483e+003,6.401166e-004
2.335412e+003,6.445013e-004
2.337340e+003,6.488822e-004
2.339269e+003,6.532669e-004
2.341197e+003,6.576516e-004
2.343126e+003,6.620288e-004
2.345054e+003,6.664060e-004
2.346983e+003,6.707907e-004
2.348911e+003,6.751753e-004
2.350840e+003,6.795563e-004
2.352768e+003,6.839409e-004
2.354697e+003,6.883219e-004
2.356625e+003,6.926954e-004
2.358554e+003,6.970800e-004
2.360482e+003,7.014573e-004
2.362411e+003,7.058382e-004
2.364339e+003,7.102191e-004
2.366268e+003,7.146075e-004
2.368196e+003,7.189848e-004
2.370125e+003,7.233582e-004
2.372053e+003,7.277429e-004
2.373982e+003,7.321201e-004
2.375910e+003,7.364973e-004
2.377839e+003,7.408783e-004
2.379767e+003,7.452555e-004
2.381696e+003,7.496327e-004
2.383624e+003,7.540137e-004
2.385553e+003,7.583909e-004
2.387481e+003,7.627718e-004
2.389410e+003,7.671453e-004
2.391338e+003,7.715262e-004
2.393267e+003,7.759035e-004
2.395195e+003,7.802807e-004
2.397124e+003,7.846504e-004
2.399052e+003,7.890351e-004
2.400981e+003,7.138774e-004
2.402909e+003,6.876513e-004
2.404838e+003,8.358657e-004
2.406766e+003,9.924695e-004
2.408695e+003,1.248322e-003
2.410623e+003,1.318470e-003
2.412552e+003,1.285747e-003
2.414480e+003,1.224734e-003
2.416409e+003,1.262411e-003
2.418337e+003,1.322251e-003
2.420266e+003,1.453929e-003
2.422194e+003,1.380369e-003
2.424123e+003,1.316722e-003
2.426051e+003,1.330227e-003
2.427979e+003,1.341999e-003
2.429908e+003,1.333743e-003
2.431837e+003,1.353983e-003
2.433765e+003,1.333706e-003
2.435694e+003,1.259264e-003
2.437622e+003,1.222882e-003
2.439551e+003,1.381624e-003
2.441479e+003,1.446437e-003
2.443407e+003,1.371812e-003
2.445336e+003,1.341958e-003
2.447265e+003,1.452308e-003
2.449193e+003,1.435719e-003
2.451122e+003,1.439650e-003
2.453050e+003,1.454689e-003
2.454979e+003,1.508348e-003
2.456907e+003,1.544628e-003
2.458836e+003,1.593865e-003
2.460764e+003,1.526989e-003
2.462693e+003,1.411587e-003
2.464621e+003,1.348127e-003
2.466550e+003,1.504395e-003
2.468478e+003,1.671653e-003
2.470406e+003,1.719981e-003
2.472335e+003,1.678620e-003
2.474264e+003,1.730263e-003
2.476192e+003,1.776431e-003
2.478121e+003,1.892980e-003
2.480049e+003,1.864776e-003
2.481978e+003,1.880892e-003
2.483906e+003,1.906298e-003
2.485835e+003,1.904100e-003
2.487763e+003,1.822893e-003
2.489692e+003,1.880165e-003
2.491620e+003,2.081849e-003
2.493549e+003,2.155684e-003
2.495477e+003,2.021655e-003
2.497406e+003,1.973722e-003
2.499334e+003,2.028711e-003
2.501263e+003,2.105810e-003
2.503191e+003,2.216551e-003
2.505120e+003,2.399702e-003
2.507048e+003,2.388086e-003
2.508977e+003,2.401836e-003
2.510905e+003,2.462521e-003
2.512833e+003,2.424531e-003
2.514762e+003,2.566762e-003
2.516691e+003,2.739120e-003
2.518619e+003,2.692696e-003
2.520548e+003,2.688680e-003
2.522476e+003,2.822049e-003
2.524405e+003,3.120393e-003
2.526333e+003,3.285781e-003
2.528261e+003,3.134601e-003
2.530190e+003,2.987932e-003
2.532119e+003,2.984513e-003
2.534047e+003,2.961118e-003
2.535976e+003,2.963081e-003
2.537904e+003,2.958562e-003
2.539833e+003,3.084682e-003
2.541761e+003,3.285654e-003
2.543689e+003,3.602587e-003
2.545618e+003,3.824748e-003
2.547547e+003,4.037153e-003
2.549475e+003,3.961608e-003
2.551404e+003,3.822077e-003
2.553332e+003,4.105210e-003
2.555260e+003,4.276238e-003
2.557189e+003,4.198380e-003
2.559117e+003,4.283257e-003
2.561046e+003,4.398365e-003
2.562975e+003,4.573062e-003
2.564903e+003,4.717413e-003
2.566832e+003,4.753720e-003
2.568760e+003,4.745014e-003
2.570688e+003,4.906900e-003
2.572617e+003,5.086038e-003
2.574546e+003,5.261205e-003
2.576474e+003,5.478460e-003
2.578403e+003,5.714200e-003
2.580331e+003,5.865518e-003
2.582260e+003,5.929422e-003
2.584188e+003,6.007109e-003
2.586116e+003,6.304577e-003
2.588045e+003,6.493323e-003
2.589974e+003,6.627250e-003
2.591902e+003,6.842420e-003
2.593831e+003,7.107388e-003
2.595759e+003,7.355429e-003
2.597688e+003,7.532425e-003
2.599616e+003,7.549293e-003
2.601544e+003,7.604331e-003
2.603473e+003,7.846665e-003
2.605402e+003,8.099254e-003
2.607330e+003,8.303661e-003
2.609259e+003,8.561276e-003
2.611187e+003,8.882690e-003
2.613115e+003,9.222437e-003
2.615044e+003,9.568851e-003
2.616972e+003,9.862490e-003
2.618901e+003,1.015543e-002
2.620830e+003,1.055657e-002
2.622758e+003,1.088882e-002
2.624687e+003,1.126225e-002
2.626615e+003,1.165581e-002
2.628543e+003,1.201867e-002
2.630472e+003,1.240763e-002
2.632400e+003,1.271602e-002
2.634329e+003,1.290448e-002
2.636258e+003,1.295023e-002
2.638186e+003,1.289351e-002
2.640115e+003,1.288380e-002
2.642043e+003,1.285059e-002
2.643971e+003,1.282652e-002
2.645900e+003,1.279503e-002
2.647828e+003,1.279124e-002
2.649757e+003,1.287502e-002
2.651686e+003,1.308086e-002
2.653614e+003,1.327851e-002
2.655542e+003,1.347295e-002
2.657471e+003,1.357559e-002
2.659399e+003,1.352080e-002
2.661328e+003,1.329496e-002
2.663256e+003,1.305983e-002
2.665185e+003,1.283378e-002
2.667114e+003,1.259024e-002
2.669042e+003,1.235949e-002
2.670970e+003,1.224542e-002
2.672899e+003,1.215918e-002
2.674827e+003,1.200513e-002
2.676756e+003,1.180204e-002
2.678685e+003,1.167280e-002
2.680613e+003,1.163597e-002
2.682542e+003,1.161988e-002
2.684470e+003,1.155847e-002
2.686398e+003,1.158406e-002
2.688327e+003,1.163221e-002
2.690255e+003,1.164195e-002
2.692184e+003,1.162106e-002
2.694113e+003,1.162243e-002
2.696041e+003,1.169883e-002
2.697969e+003,1.189559e-002
2.699898e+003,1.203794e-002
2.701826e+003,1.220439e-002
2.703755e+003,1.242973e-002
2.705683e+003,1.263233e-002
2.707612e+003,1.283042e-002
2.709541e+003,1.299228e-002
2.711469e+003,1.309751e-002
2.713397e+003,1.325167e-002
2.715326e+003,1.338807e-002
2.717254e+003,1.355239e-002
2.719183e+003,1.373676e-002
2.721111e+003,1.397935e-002
2.723040e+003,1.430481e-002
2.724969e+003,1.456560e-002
2.726897e+003,1.480370e-002
2.728825e+003,1.506679e-002
2.730754e+003,1.526570e-002
2.732682e+003,1.551048e-002
2.734611e+003,1.579334e-002
2.736539e+003,1.609308e-002
2.738468e+003,1.633619e-002
2.740396e+003,1.652444e-002
2.742325e+003,1.660337e-002
2.744253e+003,1.668738e-002
2.746182e+003,1.676497e-002
2.748110e+003,1.685629e-002
2.750039e+003,1.695886e-002
2.751967e+003,1.715206e-002
2.753896e+003,1.745120e-002
2.755824e+003,1.782097e-002
2.757753e+003,1.819228e-002
2.759681e+003,1.861558e-002
2.761610e+003,1.900768e-002
2.763538e+003,1.942201e-002
2.765467e+003,1.994693e-002
2.767395e+003,2.052661e-002
2.769324e+003,2.102239e-002
2.771252e+003,2.156149e-002
2.773181e+003,2.220128e-002
2.775109e+003,2.293791e-002
2.777038e+003,2.378172e-002
2.778966e+003,2.467434e-002
2.780895e+003,2.564190e-002
2.782823e+003,2.670901e-002
2.784752e+003,2.790793e-002
2.786680e+003,2.920167e-002
2.788609e+003,3.053034e-002
2.790537e+003,3.192605e-002
2.792466e+003,3.339117e-002
2.794394e+003,3.490278e-002
2.796323e+003,3.642831e-002
2.798251e+003,3.802774e-002
2.800180e+003,3.967842e-002
2.802108e+003,4.144104e-002
2.804037e+003,4.335733e-002
2.805965e+003,4.542781e-002
2.807894e+003,4.781584e-002
2.809822e+003,5.063058e-002
2.811751e+003,5.375882e-002
2.813679e+003,5.725723e-002
2.815608e+003,6.136097e-002
2.817536e+003,6.617948e-002
2.819465e+003,7.173209e-002
2.821393e+003,7.829563e-002
2.823322e+003,8.627209e-002
2.825250e+003,9.600647e-002
2.827179e+003,1.080038e-001
2.829107e+003,1.230188e-001
2.831036e+003,1.421663e-001
2.832964e+003,1.669760e-001
2.834893e+003,2.003508e-001
2.836821e+003,2.459940e-001
2.838750e+003,3.096086e-001
2.840678e+003,4.006289e-001
2.842607e+003,5.287792e-001
2.844535e+003,6.889630e-001
2.846464e+003,8.211141e-001
2.848392e+003,8.018291e-001
2.850321e+003,6.278328e-001
2.852249e+003,4.442237e-001
2.854178e+003,3.192472e-001
2.856106e+003,2.391069e-001
2.858035e+003,1.851001e-001
2.859963e+003,1.483293e-001
2.861892e+003,1.239122e-001
2.863820e+003,1.085951e-001
2.865749e+003,1.000600e-001
2.867677e+003,9.662011e-002
2.869606e+003,9.736068e-002
2.871534e+003,1.019814e-001
2.873463e+003,1.105620e-001
2.875391e+003,1.234705e-001
2.877320e+003,1.404473e-001
2.879248e+003,1.604463e-001
2.881177e+003,1.821714e-001
2.883105e+003,2.047891e-001
2.885034e+003,2.277896e-001
2.886962e+003,2.508555e-001
2.888891e+003,2.738376e-001
2.890819e+003,2.965078e-001
2.892748e+003,3.188211e-001
2.894676e+003,3.408953e-001
2.896605e+003,3.632764e-001
2.898533e+003,3.868618e-001
2.900462e+003,4.134316e-001
2.902390e+003,4.460820e-001
2.904319e+003,4.888335e-001
2.906247e+003,5.462121e-001
2.908176e+003,6.212460e-001
2.910104e+003,7.115611e-001
2.912033e+003,8.005542e-001
2.913961e+003,8.507867e-001
2.915890e+003,8.271729e-001
2.917818e+003,7.375501e-001
2.919747e+003,6.223326e-001
2.921675e+003,5.128663e-001
2.923604e+003,4.210368e-001
2.925532e+003,3.479610e-001
2.927461e+003,2.898625e-001
2.929389e+003,2.420143e-001
2.931318e+003,2.014349e-001
2.933246e+003,1.669644e-001
2.935175e+003,1.378500e-001
2.937103e+003,1.134347e-001
2.939032e+003,9.306768e-002
2.940960e+003,7.610202e-002
2.942889e+003,6.238263e-002
2.944817e+003,5.176386e-002
2.946746e+003,4.374183e-002
2.948674e+003,3.775886e-002
2.950603e+003,3.329153e-002
2.952531e+003,2.969394e-002
2.954460e+003,2.652555e-002
2.956388e+003,2.374531e-002
2.958317e+003,2.123091e-002
2.960245e+003,1.887293e-002
2.962174e+003,1.665005e-002
2.964102e+003,1.472177e-002
2.966031e+003,1.295112e-002
2.967959e+003,1.130722e-002
2.969888e+003,9.841688e-003
2.971816e+003,8.547343e-003
2.973745e+003,7.470563e-003
2.975673e+003,6.679706e-003
2.977602e+003,5.879767e-003
2.979530e+003,5.147882e-003
2.981459e+003,4.571144e-003
2.983387e+003,4.087605e-003
2.985316e+003,3.641646e-003
2.987244e+003,3.284372e-003
2.989173e+003,2.969146e-003
2.991101e+003,2.736058e-003
2.993030e+003,2.512816e-003
2.994958e+003,2.331685e-003
2.996887e+003,2.183732e-003
2.998815e+003,2.158269e-003
3.000744e+003,2.071407e-003
3.002672e+003,1.908418e-003
3.004601e+003,1.849681e-003
3.006529e+003,1.730520e-003
3.008458e+003,1.539234e-003
3.010386e+003,1.496952e-003
3.012315e+003,1.537807e-003
3.014243e+003,1.542754e-003
3.016172e+003,1.507036e-003
3.018100e+003,1.519866e-003
3.020029e+003,1.521882e-003
3.021957e+003,1.524109e-003
3.023886e+003,1.497973e-003
3.025814e+003,1.467004e-003
3.027743e+003,1.533058e-003
3.029671e+003,1.589801e-003
3.031600e+003,1.462657e-003
3.033528e+003,1.258820e-003
3.035457e+003,1.147237e-003
3.037385e+003,1.089733e-003
3.039314e+003,1.016352e-003
3.041242e+003,8.895211e-004
3.043171e+003,7.414706e-004
3.045099e+003,5.284101e-004
3.047028e+003,4.140846e-004
3.048956e+003,4.066415e-004
3.050885e+003,2.552159e-004
3.052813e+003,1.119189e-004
3.054742e+003,5.177036e-005
3.056670e+003,2.248213e-005
3.058599e+003,4.413351e-005
3.060527e+003,3.471971e-005
3.062456e+003,-3.154203e-005
3.064384e+003,-7.330626e-005
3.066313e+003,-1.433194e-004
3.068241e+003,-1.909137e-004
3.070170e+003,-1.416355e-004
3.072098e+003,-5.939975e-005
3.074027e+003,-7.348880e-005
3.075955e+003,-1.268946e-004
3.077884e+003,-1.143403e-004
3.079812e+003,-9.987503e-005
3.081741e+003,-1.566894e-004
3.083669e+003,-2.228133e-004
3.085598e+003,-2.723448e-004
3.087526e+003,-3.661513e-004
3.089455e+003,-4.654936e-004
3.091383e+003,-5.923137e-004
3.093312e+003,-7.875040e-004
3.095240e+003,-9.317957e-004
3.097169e+003,-1.198787e-003
3.099097e+003,-1.378015e-003
3.101026e+003,-1.488116e-003
3.102954e+003,-1.625665e-003
3.104883e+003,-1.750559e-003
3.106811e+003,-1.787774e-003
3.108740e+003,-1.797035e-003
3.110668e+003,-1.852091e-003
3.112597e+003,-1.880784e-003
3.114525e+003,-1.888733e-003
3.116454e+003,-1.967628e-003
3.118382e+003,-2.122309e-003
3.120311e+003,-2.214305e-003
3.122239e+003,-2.152819e-003
3.124168e+003,-2.039481e-003
3.126096e+003,-1.989096e-003
3.128025e+003,-2.016626e-003
3.129953e+003,-1.971759e-003
3.131882e+003,-2.087716e-003
3.133810e+003,-2.104260e-003
3.135739e+003,-2.003618e-003
3.137667e+003,-1.903515e-003
3.139596e+003,-1.887053e-003
3.141524e+003,-1.927070e-003
3.143453e+003,-1.880556e-003
3.145381e+003,-1.861461e-003
3.147310e+003,-1.868855e-003
3.149238e+003,-1.896296e-003
3.151167e+003,-1.896564e-003
3.153095e+003,-1.868330e-003
3.155024e+003,-1.863819e-003
3.156952e+003,-1.814574e-003
3.158881e+003,-1.689672e-003
3.160809e+003,-1.719069e-003
3.162738e+003,-1.709461e-003
3.164666e+003,-1.583394e-003
3.166594e+003,-1.538280e-003
3.168523e+003,-1.556661e-003
3.170452e+003,-1.603749e-003
3.172380e+003,-1.540799e-003
3.174309e+003,-1.565009e-003
3.176237e+003,-1.470942e-003
3.178166e+003,-1.293123e-003
3.180094e+003,-1.271065e-003
3.182022e+003,-1.264974e-003
3.183951e+003,-1.313623e-003
3.185880e+003,-1.323003e-003
3.187808e+003,-1.233369e-003
3.189737e+003,-1.132764e-003
3.191665e+003,-1.055092e-003
3.193594e+003,-1.118958e-003
3.195522e+003,-1.243569e-003
3.197450e+003,-1.330052e-003
3.199379e+003,-1.282044e-003
3.201308e+003,-1.096312e-003
3.203236e+003,-1.017574e-003
3.205165e+003,-9.970777e-004
3.207093e+003,-9.557046e-004
3.209021e+003,-8.752979e-004
3.210950e+003,-8.025318e-004
3.212878e+003,-8.704178e-004
3.214807e+003,-9.862706e-004
3.216736e+003,-9.074733e-004
3.218664e+003,-7.584728e-004
3.220593e+003,-7.437207e-004
3.222521e+003,-7.499047e-004
3.224449e+003,-7.425658e-004
3.226378e+003,-7.081330e-004
3.228307e+003,-7.240921e-004
3.230235e+003,-7.043891e-004
3.232164e+003,-5.808920e-004
3.234092e+003,-5.660951e-004
3.236021e+003,-5.852543e-004
3.237949e+003,-5.281009e-004
3.239877e+003,-4.652962e-004
3.241806e+003,-4.144795e-004
3.243735e+003,-4.033521e-004
3.245663e+003,-3.813654e-004
3.247592e+003,-2.671294e-004
3.249520e+003,-1.695380e-004
3.251448e+003,-3.511086e-005
3.253377e+003,4.751608e-005
3.255305e+003,3.172085e-005
3.257234e+003,4.729256e-005
3.259163e+003,7.175282e-005
3.261091e+003,2.072975e-004
3.263020e+003,2.428927e-004
3.264948e+003,2.198406e-004
3.266876e+003,2.589636e-004
3.268805e+003,3.402308e-004
3.270733e+003,2.967976e-004
3.272662e+003,3.645457e-004
3.274591e+003,5.241707e-004
3.276519e+003,4.757866e-004
3.278448e+003,3.556572e-004
3.280376e+003,3.819019e-004
3.282304e+003,4.021786e-004
3.284233e+003,4.878677e-004
3.286161e+003,5.671941e-004
3.288090e+003,5.828515e-004
3.290019e+003,6.225593e-004
3.291947e+003,5.971044e-004
3.293875e+003,5.276054e-004
3.295804e+003,5.606450e-004
3.297732e+003,5.694032e-004
3.299661e+003,5.853325e-004
3.301589e+003,5.062185e-004
3.303518e+003,4.737712e-004
3.305447e+003,5.661547e-004
3.307375e+003,6.080866e-004
3.309303e+003,5.823560e-004
3.311232e+003,5.719922e-004
3.313160e+003,5.651452e-004
3.315089e+003,6.052144e-004
3.317018e+003,6.673746e-004
3.318946e+003,6.814785e-004
3.320875e+003,5.714968e-004
3.322803e+003,5.783439e-004
3.324731e+003,6.699376e-004
3.326660e+003,7.517934e-004
3.328588e+003,7.147267e-004
3.330517e+003,6.709620e-004
3.332446e+003,7.375628e-004
3.334374e+003,7.922910e-004
3.336302e+003,8.423701e-004
3.338231e+003,8.020066e-004
3.340159e+003,7.733405e-004
3.342088e+003,8.689649e-004
3.344016e+003,8.769259e-004
3.345945e+003,8.085892e-004
3.347874e+003,7.024594e-004
3.349802e+003,6.255247e-004
3.351730e+003,7.118434e-004
3.353659e+003,8.645765e-004
3.355587e+003,8.870997e-004
3.357516e+003,8.071810e-004
3.359444e+003,8.344389e-004
3.361373e+003,9.387285e-004
3.363302e+003,8.357465e-004
3.365230e+003,6.996132e-004
3.367158e+003,7.229149e-004
3.369087e+003,8.577704e-004
3.371015e+003,9.102114e-004
3.372944e+003,8.921884e-004
3.374872e+003,7.827729e-004
3.376801e+003,7.900037e-004
3.378729e+003,8.369274e-004
3.380658e+003,8.707456e-004
3.382586e+003,8.237399e-004
3.384515e+003,7.150024e-004
3.386443e+003,7.132180e-004
3.388372e+003,8.245297e-004
3.390300e+003,8.536391e-004
3.392229e+003,7.760860e-004
3.394157e+003,7.669628e-004
3.396086e+003,6.978102e-004
3.398014e+003,6.124303e-004
3.399943e+003,6.691180e-004
3.401871e+003,7.907785e-004
3.403800e+003,8.639283e-004
3.405728e+003,8.299313e-004
3.407657e+003,6.834529e-004
3.409585e+003,6.025769e-004
3.411514e+003,5.891733e-004
3.413442e+003,5.766787e-004
3.415371e+003,6.586239e-004
3.417299e+003,6.708764e-004
3.419228e+003,6.134249e-004
3.421156e+003,6.811507e-004
3.423085e+003,6.973147e-004
3.425013e+003,6.212480e-004
3.426942e+003,6.253533e-004
3.428870e+003,5.323887e-004
3.430799e+003,5.346723e-004
3.432727e+003,5.922765e-004
3.434656e+003,5.780235e-004
3.436584e+003,5.739406e-004
3.438513e+003,5.564652e-004
3.440441e+003,5.642027e-004
3.442370e+003,5.992092e-004
3.444298e+003,6.213188e-004
3.446227e+003,4.878715e-004
3.448155e+003,3.023967e-004
3.450084e+003,3.307909e-004
3.452012e+003,4.123300e-004
3.453941e+003,4.549660e-004
3.455869e+003,4.061386e-004
3.457798e+003,3.939159e-004
3.459726e+003,4.624575e-004
3.461655e+003,4.378557e-004
3.463583e+003,2.807304e-004
3.465512e+003,2.428666e-004
3.467440e+003,2.552308e-004
3.469369e+003,2.781041e-004
3.471297e+003,2.270341e-004
3.473226e+003,3.325492e-004
3.475154e+003,4.185736e-004
3.477083e+003,2.853423e-004
3.479011e+003,1.440756e-004
3.480940e+003,1.872070e-004
3.482868e+003,1.775026e-004
3.484797e+003,1.042038e-004
3.486725e+003,2.483279e-005
3.488654e+003,7.890537e-005
3.490582e+003,1.120158e-004
3.492511e+003,3.189221e-005
3.494439e+003,1.244619e-005
3.496368e+003,1.609921e-004
3.498296e+003,1.933649e-004
3.500225e+003,1.568422e-004
3.502153e+003,7.784739e-005
3.504082e+003,-7.095933e-005
3.506010e+003,-9.512901e-005
3.507939e+003,-1.422837e-004
3.509867e+003,-1.219437e-004
3.511796e+003,-5.820394e-005
3.513724e+003,-1.606867e-004
3.515653e+003,-1.964718e-004
3.517581e+003,-1.727529e-004
3.519510e+003,-1.141019e-004
3.521438e+003,-3.999844e-005
3.523367e+003,-8.491427e-005
3.525295e+003,-2.311952e-004
3.527224e+003,-4.415959e-004
3.529152e+003,-5.856566e-004
3.531081e+003,-5.120113e-004
3.533009e+003,-4.403442e-004
3.534938e+003,-4.979074e-004
3.536866e+003,-4.109479e-004
3.538795e+003,-2.839491e-004
3.540723e+003,-3.570169e-004
3.542652e+003,-4.013851e-004
3.544580e+003,-4.848428e-004
3.546509e+003,-5.890056e-004
3.548437e+003,-8.026734e-004
3.550366e+003,-8.099899e-004
3.552294e+003,-8.110963e-004
3.554223e+003,-7.543676e-004
3.556151e+003,-6.278343e-004
3.558080e+003,-5.269833e-004
3.560008e+003,-5.143508e-004
3.561937e+003,-5.704649e-004
3.563865e+003,-6.400049e-004
3.565794e+003,-8.211322e-004
3.567722e+003,-1.123808e-003
3.569651e+003,-1.143277e-003
3.571579e+003,-9.617768e-004
3.573508e+003,-6.714873e-004
3.575436e+003,-6.334297e-004
3.577365e+003,-9.243228e-004
3.579293e+003,-1.001004e-003
3.581222e+003,-5.368739e-004
3.583150e+003,-2.577119e-004
3.585079e+003,-4.414059e-004
3.587007e+003,-7.657297e-004
3.588936e+003,-8.093268e-004
3.590864e+003,-5.423799e-004
3.592793e+003,-2.255216e-004
3.594721e+003,7.380545e-005
3.596650e+003,2.662726e-004
3.598578e+003,1.523308e-004
3.600507e+003,2.525859e-004
3.602435e+003,6.099418e-004
3.604364e+003,9.668954e-004
3.606292e+003,1.106165e-003
3.608221e+003,7.484779e-004
3.610149e+003,1.083687e-004
3.612078e+003,-6.958842e-006
3.614006e+003,2.536699e-004
3.615935e+003,3.283732e-004
3.617863e+003,8.915365e-005
3.619792e+003,-4.518703e-004
3.621720e+003,-5.359948e-004
3.623649e+003,-1.951158e-004
3.625577e+003,8.492544e-005
3.627506e+003,5.286634e-004
3.629434e+003,-1.668818e-004
3.631363e+003,-8.788295e-004
3.633291e+003,-5.651936e-004
3.635220e+003,-1.774728e-004
3.637148e+003,-9.998307e-005
3.639077e+003,-2.347045e-004
3.641005e+003,-1.772195e-004
3.642934e+003,1.924261e-004
3.644862e+003,6.890632e-004
3.646791e+003,9.656884e-004
3.648719e+003,6.765239e-004
3.650648e+003,-1.488626e-004
3.652576e+003,-5.068555e-004
3.654505e+003,-1.640841e-004
3.656433e+003,-6.870925e-005
3.658362e+003,-3.122948e-004
3.660290e+003,-3.190711e-004
3.662219e+003,-3.054738e-006
3.664147e+003,1.608469e-004
3.666076e+003,8.527562e-005
3.668004e+003,-7.431954e-005
3.669933e+003,-7.960945e-005
3.671861e+003,-3.879219e-004
3.673790e+003,-1.163706e-004
3.675718e+003,-7.327646e-006
3.677647e+003,-6.606951e-004
3.679575e+003,-7.526316e-004
3.681504e+003,-3.709421e-004
3.683432e+003,3.166907e-004
3.685361e+003,6.035343e-004
3.687289e+003,8.254535e-004
3.689218e+003,4.419088e-004
3.691146e+003,-3.723465e-004
3.693075e+003,-5.256273e-004
3.695003e+003,4.152209e-005
3.696932e+003,5.055889e-004
3.698860e+003,4.164949e-004
3.700789e+003,2.709813e-004
3.702717e+003,-1.269951e-005
3.704646e+003,2.014153e-004
3.706574e+003,6.845519e-004
3.708503e+003,8.750893e-004
3.710431e+003,5.668812e-004
3.712360e+003,1.101196e-005
3.714288e+003,-2.570376e-004
3.716217e+003,-6.045401e-005
3.718145e+003,3.205314e-004
3.720074e+003,5.694218e-004
3.722002e+003,4.063398e-004
3.723931e+003,-9.424984e-006
3.725859e+003,-1.015067e-004
3.727788e+003,2.564415e-004
3.729716e+003,6.834045e-004
3.731645e+003,9.449907e-004
3.733573e+003,4.618280e-004
3.735502e+003,-7.890537e-005
3.737430e+003,-1.566522e-004
3.739359e+003,1.984797e-004
3.741287e+003,4.708394e-004
3.743216e+003,1.299810e-003
3.745144e+003,1.439400e-003
3.747073e+003,1.078475e-003
3.749001e+003,1.135163e-003
3.750930e+003,1.050200e-003
3.752858e+003,8.525774e-004
3.754787e+003,6.408207e-004
3.756715e+003,9.337328e-004
3.758644e+003,1.383014e-003
3.760572e+003,1.043413e-003
3.762501e+003,6.234683e-004
3.764429e+003,1.018725e-003
3.766358e+003,1.328468e-003
3.768286e+003,1.176197e-003
3.770215e+003,9.231605e-004
3.772143e+003,8.305833e-004
3.774072e+003,1.036957e-003
3.776000e+003,1.358680e-003
3.777929e+003,1.630407e-003
3.779857e+003,1.491066e-003
3.781786e+003,1.265097e-003
3.783714e+003,1.294482e-003
3.785643e+003,1.164299e-003
3.787571e+003,1.058906e-003
3.789500e+003,1.061596e-003
3.791428e+003,1.031779e-003
3.793357e+003,1.167059e-003
3.795285e+003,1.688689e-003
3.797214e+003,1.619346e-003
3.799142e+003,1.423642e-003
3.801071e+003,1.739867e-003
3.802999e+003,1.131520e-003
3.804927e+003,8.601174e-004
3.806856e+003,9.578615e-004
3.808785e+003,1.267053e-003
3.810713e+003,1.600891e-003
3.812642e+003,1.833186e-003
3.814570e+003,2.537593e-003
3.816499e+003,2.437748e-003
3.818427e+003,1.839362e-003
3.820355e+003,1.688555e-003
3.822284e+003,1.299180e-003
3.824213e+003,1.321465e-003
3.826141e+003,1.401357e-003
3.828070e+003,1.571931e-003
3.829998e+003,2.135433e-003
3.831927e+003,2.319708e-003
3.833855e+003,2.176873e-003
3.835783e+003,1.980498e-003
3.837712e+003,1.581401e-003
3.839641e+003,1.302347e-003
3.841569e+003,1.248755e-003
3.843498e+003,1.360066e-003
3.845426e+003,1.715511e-003
3.847354e+003,2.259113e-003
3.849283e+003,2.849080e-003
3.851211e+003,3.447548e-003
3.853140e+003,2.559453e-003
3.855069e+003,8.932501e-004
3.856997e+003,1.185507e-003
3.858926e+003,1.828410e-003
3.860854e+003,2.575733e-003
3.862782e+003,2.732001e-003
3.864711e+003,2.392329e-003
3.866640e+003,2.188146e-003
3.868568e+003,2.636284e-003
3.870497e+003,2.175361e-003
3.872425e+003,1.932636e-003
3.874354e+003,2.148911e-003
3.876282e+003,2.353549e-003
3.878210e+003,2.949171e-003
3.880139e+003,3.185660e-003
3.882068e+003,2.424262e-003
3.883996e+003,2.271898e-003
3.885925e+003,2.587192e-003
3.887853e+003,2.593130e-003
3.889781e+003,2.570920e-003
3.891710e+003,2.324820e-003
3.893638e+003,2.467774e-003
3.895567e+003,2.763554e-003
3.897496e+003,3.029160e-003
3.899424e+003,3.226243e-003
3.901353e+003,2.987802e-003
3.903281e+003,2.434231e-003
3.905209e+003,2.209283e-003
3.907138e+003,2.469391e-003
3.909066e+003,2.703778e-003
3.910995e+003,2.994776e-003
3.912924e+003,3.277764e-003
3.914852e+003,3.190078e-003
3.916781e+003,2.864793e-003
3.918709e+003,2.660967e-003
3.920637e+003,2.472341e-003
3.922566e+003,2.518095e-003
3.924494e+003,2.878420e-003
3.926423e+003,2.935253e-003
3.928352e+003,2.901278e-003
3.930280e+003,2.932705e-003
3.932208e+003,2.920099e-003
3.934137e+003,2.629742e-003
3.936065e+003,2.588354e-003
3.937994e+003,2.733417e-003
3.939922e+003,2.833135e-003
3.941851e+003,2.703585e-003
3.943780e+003,2.658725e-003
3.945708e+003,2.824090e-003
3.947636e+003,2.918184e-003
3.949565e+003,2.945930e-003
3.951493e+003,2.760790e-003
3.953422e+003,2.597429e-003
3.955351e+003,2.730429e-003
3.957279e+003,3.049776e-003
3.959208e+003,3.083639e-003
3.961136e+003,3.007464e-003
3.963064e+003,2.962917e-003
3.964993e+003,2.925560e-003
3.966921e+003,2.859332e-003
3.968850e+003,2.844326e-003
3.970779e+003,2.960280e-003
3.972707e+003,2.994195e-003
3.974635e+003,2.914958e-003
3.976564e+003,2.938874e-003
3.978492e+003,3.013551e-003
3.980421e+003,3.097087e-003
3.982349e+003,3.047660e-003
3.984278e+003,2.983488e-003
3.986207e+003,3.021628e-003
3.988135e+003,3.076576e-003
3.990063e+003,2.946563e-003
3.991992e+003,2.739377e-003
3.993920e+003,2.665944e-003
3.995849e+003,2.684586e-003
3.997777e+003,2.845719e-003
3.999706e+003,3.016539e-003
4.001635e+003,0.000000e+000
