3.991992e+002,0.000000e+000
4.011277e+002,0.000000e+000
4.030562e+002,0.000000e+000
4.049846e+002,0.000000e+000
4.069131e+002,0.000000e+000
4.088416e+002,0.000000e+000
4.107701e+002,0.000000e+000
4.126986e+002,0.000000e+000
4.146271e+002,0.000000e+000
4.165556e+002,0.000000e+000
4.184841e+002,0.000000e+000
4.204126e+002,0.000000e+000
4.223411e+002,0.000000e+000
4.242697e+002,0.000000e+000
4.261982e+002,0.000000e+000
4.281266e+002,0.000000e+000
4.300551e+002,0.000000e+000
4.319836e+002,0.000000e+000
4.339121e+002,0.000000e+000
4.358406e+002,0.000000e+000
4.377691e+002,0.000000e+000
4.396976e+002,0.000000e+000
4.416261e+002,0.000000e+000
4.435546e+002,0.000000e+000
4.454831e+002,0.000000e+000
4.474116e+002,0.000000e+000
4.493401e+002,0.000000e+000
4.512686e+002,0.000000e+000
4.531971e+002,0.000000e+000
4.551256e+002,0.000000e+000
4.570541e+002,0.000000e+000
4.589826e+002,0.000000e+000
4.609111e+002,0.000000e+000
4.628396e+002,0.000000e+000
4.647681e+002,0.000000e+000
4.666966e+002,0.000000e+000
4.686251e+002,0.000000e+000
4.705536e+002,0.000000e+000
4.724821e+002,0.000000e+000
4.744106e+002,0.000000e+000
4.763391e+002,0.000000e+000
4.782676e+002,0.000000e+000
4.801961e+002,0.000000e+000
4.821246e+002,0.000000e+000
4.840531e+002,0.000000e+000
4.859816e+002,0.000000e+000
4.879101e+002,0.000000e+000
4.898386e+002,0.000000e+000
4.917671e+002,0.000000e+000
4.936956e+002,0.000000e+000
4.956241e+002,0.000000e+000
4.975526e+002,0.000000e+000
4.994811e+002,0.000000e+000
5.014096e+002,0.000000e+000
5.033381e+002,0.000000e+000
5.052666e+002,0.000000e+000
5.071951e+002,0.000000e+000
5.091236e+002,0.000000e+000
5.110521e+002,0.000000e+000
5.129806e+002,0.000000e+000
5.149091e+002,0.000000e+000
5.168376e+002,0.000000e+000
5.187661e+002,0.000000e+000
5.206946e+002,0.000000e+000
5.226230e+002,0.000000e+000
5.245516e+002,-5.012183e-004
5.264800e+002,-4.566410e-004
5.284086e+002,-6.016879e-004
5.303370e+002,-7.005269e-004
5.322656e+002,-5.703340e-004
5.341940e+002,-5.686246e-004
5.361226e+002,-5.421359e-004
5.380510e+002,-5.844743e-004
5.399796e+002,-6.855847e-004
5.419081e+002,-6.774296e-004
5.438365e+002,-5.748230e-004
5.457650e+002,-5.847416e-004
5.476935e+002,-5.398942e-004
5.496221e+002,-5.199700e-004
5.515505e+002,-5.909218e-004
5.534790e+002,-5.574534e-004
5.554075e+002,-4.835962e-004
5.573361e+002,-5.499609e-004
5.592645e+002,-7.321737e-004
5.611931e+002,-8.009258e-004
5.631215e+002,-8.091428e-004
5.650500e+002,-7.812595e-004
5.669785e+002,-7.634922e-004
5.689070e+002,-7.463563e-004
5.708355e+002,-7.840577e-004
5.727640e+002,-8.113687e-004
5.746925e+002,-6.975834e-004
5.766210e+002,-6.445544e-004
5.785495e+002,-7.216036e-004
5.804780e+002,-8.094204e-004
5.824065e+002,-7.649614e-004
5.843350e+002,-6.756783e-004
5.862635e+002,-6.652181e-004
5.881920e+002,-7.641609e-004
5.901205e+002,-7.457258e-004
5.920490e+002,-6.946092e-004
5.939775e+002,-6.502718e-004
5.959060e+002,-7.099602e-004
5.978345e+002,-6.997534e-004
5.997630e+002,-6.204513e-004
6.016915e+002,-4.815371e-004
6.036200e+002,-3.888770e-004
6.055485e+002,-2.866914e-004
6.074770e+002,-3.027511e-004
6.094055e+002,-4.041502e-004
6.113340e+002,-4.841262e-004
6.132625e+002,-4.496216e-004
6.151910e+002,-4.626065e-004
6.171195e+002,-3.644880e-004
6.190480e+002,-2.554082e-004
6.209765e+002,-1.338380e-004
6.229050e+002,-1.817201e-004
6.248335e+002,-1.156377e-004
6.267620e+002,-6.666034e-005
6.286905e+002,-4.219078e-005
6.306190e+002,2.418505e-005
6.325475e+002,6.926293e-005
6.344760e+002,1.139054e-004
6.364045e+002,2.082172e-004
6.383330e+002,1.627784e-004
6.402615e+002,1.897784e-004
6.421899e+002,1.512221e-004
6.441185e+002,1.369771e-004
6.460470e+002,1.369338e-004
6.479755e+002,1.623454e-004
6.499039e+002,1.835478e-004
6.518325e+002,2.460033e-004
6.537610e+002,2.117404e-004
6.556895e+002,2.938430e-004
6.576179e+002,3.326596e-004
6.595464e+002,4.199944e-004
6.614750e+002,3.839009e-004
6.634034e+002,3.907285e-004
6.653319e+002,3.988086e-004
6.672604e+002,5.373037e-004
6.691890e+002,5.833004e-004
6.711174e+002,6.989022e-004
6.730460e+002,7.599657e-004
6.749745e+002,8.728923e-004
6.769030e+002,9.687189e-004
6.788314e+002,1.131282e-003
6.807599e+002,1.366532e-003
6.826885e+002,1.615908e-003
6.846169e+002,1.676168e-003
6.865454e+002,1.825766e-003
6.884739e+002,1.964326e-003
6.904025e+002,2.277280e-003
6.923309e+002,2.480843e-003
6.942594e+002,2.874818e-003
6.961879e+002,3.336606e-003
6.981165e+002,4.035376e-003
7.000449e+002,4.811872e-003
7.019734e+002,6.001269e-003
7.039019e+002,7.474854e-003
7.058304e+002,9.587778e-003
7.077589e+002,1.242272e-002
7.096874e+002,1.699109e-002
7.116159e+002,2.445971e-002
7.135444e+002,3.938290e-002
7.154729e+002,6.738053e-002
7.174014e+002,1.085867e-001
7.193299e+002,1.221972e-001
7.212584e+002,7.967877e-002
7.231869e+002,4.545484e-002
7.251154e+002,3.723116e-002
7.270439e+002,4.733023e-002
7.289724e+002,7.566354e-002
7.309009e+002,8.149943e-002
7.328294e+002,4.535965e-002
7.347579e+002,1.858882e-002
7.366864e+002,9.592439e-003
7.386149e+002,6.385135e-003
7.405434e+002,4.653581e-003
7.424719e+002,3.768000e-003
7.444004e+002,3.062511e-003
7.463289e+002,2.583959e-003
7.482574e+002,2.199433e-003
7.501859e+002,1.967883e-003
7.521144e+002,1.677370e-003
7.540428e+002,1.528798e-003
7.559714e+002,1.337477e-003
7.578999e+002,1.215639e-003
7.598284e+002,1.114586e-003
7.617568e+002,1.082976e-003
7.636854e+002,1.019133e-003
7.656139e+002,1.012015e-003
7.675424e+002,9.251293e-004
7.694709e+002,9.063804e-004
7.713994e+002,8.135638e-004
7.733279e+002,7.424490e-004
7.752563e+002,6.847843e-004
7.771849e+002,6.385054e-004
7.791134e+002,5.508978e-004
7.810419e+002,5.176747e-004
7.829703e+002,4.803259e-004
7.848989e+002,5.048057e-004
7.868274e+002,4.850244e-004
7.887559e+002,5.671652e-004
7.906843e+002,6.406005e-004
7.926129e+002,6.707236e-004
7.945414e+002,6.563482e-004
7.964698e+002,7.081782e-004
7.983983e+002,7.039052e-004
8.003268e+002,7.001748e-004
8.022554e+002,7.221410e-004
8.041838e+002,7.274449e-004
8.061123e+002,6.555934e-004
8.080408e+002,6.958526e-004
8.099694e+002,6.903466e-004
8.118978e+002,6.565116e-004
8.138263e+002,6.400049e-004
8.157548e+002,6.302046e-004
8.176833e+002,5.535102e-004
8.196118e+002,5.645761e-004
8.215403e+002,5.366402e-004
8.234689e+002,5.146926e-004
8.253973e+002,5.190875e-004
8.273258e+002,5.776575e-004
8.292543e+002,5.402975e-004
8.311829e+002,4.912084e-004
8.331113e+002,4.667155e-004
8.350398e+002,5.026227e-004
8.369683e+002,5.136291e-004
8.388969e+002,4.821466e-004
8.408253e+002,4.606759e-004
8.427538e+002,4.784781e-004
8.446823e+002,5.095480e-004
8.466108e+002,4.936066e-004
8.485393e+002,4.639877e-004
8.504678e+002,4.870296e-004
8.523963e+002,5.193502e-004
8.543248e+002,5.433867e-004
8.562533e+002,5.304199e-004
8.581818e+002,5.777497e-004
8.601103e+002,5.540708e-004
8.620388e+002,5.480731e-004
8.639673e+002,5.151788e-004
8.658958e+002,4.749559e-004
8.678243e+002,4.566917e-004
8.697528e+002,5.253237e-004
8.716813e+002,5.903998e-004
8.736098e+002,6.013624e-004
8.755383e+002,5.823513e-004
8.774668e+002,6.186906e-004
8.793953e+002,6.101765e-004
8.813238e+002,6.565582e-004
8.832523e+002,7.587001e-004
8.851808e+002,8.385377e-004
8.871093e+002,8.603865e-004
8.890378e+002,8.940101e-004
8.909663e+002,8.973274e-004
8.928948e+002,8.982709e-004
8.948232e+002,9.348877e-004
8.967518e+002,1.015736e-003
8.986803e+002,1.207849e-003
9.006088e+002,1.483239e-003
9.025372e+002,1.958431e-003
9.044658e+002,2.702741e-003
9.063943e+002,3.777120e-003
9.083228e+002,4.399236e-003
9.102512e+002,3.863683e-003
9.121797e+002,2.750616e-003
9.141083e+002,1.915079e-003
9.160367e+002,1.486722e-003
9.179653e+002,1.276099e-003
9.198937e+002,1.143372e-003
9.218223e+002,1.025600e-003
9.237507e+002,1.016288e-003
9.256793e+002,1.000346e-003
9.276077e+002,1.012594e-003
9.295363e+002,1.020823e-003
9.314647e+002,9.476449e-004
9.333932e+002,8.694688e-004
9.353217e+002,9.261109e-004
9.372502e+002,9.884089e-004
9.391787e+002,9.984048e-004
9.411072e+002,1.019733e-003
9.430358e+002,1.056230e-003
9.449642e+002,1.064405e-003
9.468928e+002,1.051433e-003
9.488212e+002,1.090504e-003
9.507498e+002,1.092979e-003
9.526782e+002,1.067752e-003
9.546068e+002,1.059258e-003
9.565352e+002,1.138609e-003
9.584637e+002,1.210333e-003
9.603922e+002,1.293746e-003
9.623207e+002,1.358265e-003
9.642492e+002,1.420110e-003
9.661777e+002,1.457199e-003
9.681062e+002,1.452506e-003
9.700347e+002,1.420482e-003
9.719632e+002,1.381146e-003
9.738917e+002,1.323402e-003
9.758202e+002,1.315759e-003
9.777487e+002,1.295341e-003
9.796772e+002,1.326722e-003
9.816057e+002,1.344304e-003
9.835342e+002,1.462062e-003
9.854627e+002,1.681902e-003
9.873912e+002,1.974111e-003
9.893197e+002,2.245777e-003
9.912482e+002,2.332103e-003
9.931767e+002,2.205363e-003
9.951052e+002,2.033083e-003
9.970337e+002,1.890456e-003
9.989622e+002,1.758000e-003
1.000891e+003,1.688073e-003
1.002819e+003,1.699834e-003
1.004748e+003,1.715607e-003
1.006676e+003,1.759403e-003
1.008605e+003,1.773380e-003
1.010533e+003,1.863890e-003
1.012462e+003,2.009723e-003
1.014390e+003,2.154815e-003
1.016319e+003,2.250849e-003
1.018247e+003,2.360957e-003
1.020176e+003,2.460060e-003
1.022104e+003,2.509585e-003
1.024033e+003,2.507842e-003
1.025961e+003,2.514448e-003
1.027890e+003,2.453761e-003
1.029818e+003,2.383401e-003
1.031747e+003,2.391227e-003
1.033675e+003,2.421854e-003
1.035604e+003,2.419681e-003
1.037532e+003,2.452112e-003
1.039461e+003,2.463198e-003
1.041389e+003,2.515623e-003
1.043318e+003,2.572411e-003
1.045246e+003,2.639453e-003
1.047175e+003,2.737999e-003
1.049103e+003,2.947153e-003
1.051032e+003,3.080325e-003
1.052960e+003,2.962982e-003
1.054889e+003,2.889802e-003
1.056817e+003,2.915293e-003
1.058746e+003,3.018723e-003
1.060674e+003,3.176710e-003
1.062603e+003,3.219871e-003
1.064531e+003,3.213307e-003
1.066460e+003,3.217260e-003
1.068388e+003,3.295637e-003
1.070317e+003,3.327199e-003
1.072245e+003,3.448672e-003
1.074174e+003,3.633084e-003
1.076102e+003,3.879921e-003
1.078031e+003,4.058646e-003
1.079959e+003,4.160654e-003
1.081888e+003,4.168008e-003
1.083816e+003,4.143264e-003
1.085745e+003,4.117619e-003
1.087673e+003,4.083381e-003
1.089602e+003,3.982900e-003
1.091530e+003,3.904102e-003
1.093459e+003,3.803665e-003
1.095387e+003,3.735706e-003
1.097316e+003,3.707536e-003
1.099244e+003,3.714367e-003
1.101173e+003,3.663120e-003
1.103101e+003,3.628598e-003
1.105030e+003,3.593775e-003
1.106958e+003,3.573668e-003
1.108887e+003,3.536494e-003
1.110815e+003,3.510745e-003
1.112744e+003,3.458473e-003
1.114672e+003,3.414814e-003
1.116601e+003,3.366563e-003
1.118529e+003,3.328454e-003
1.120458e+003,3.297359e-003
1.122386e+003,3.285560e-003
1.124315e+003,3.282077e-003
1.126243e+003,3.288955e-003
1.128172e+003,3.291057e-003
1.130100e+003,3.337113e-003
1.132029e+003,3.317103e-003
1.133957e+003,3.308862e-003
1.135885e+003,3.297354e-003
1.137814e+003,3.320042e-003
1.139743e+003,3.372680e-003
1.141671e+003,3.489589e-003
1.143600e+003,3.594685e-003
1.145528e+003,3.771450e-003
1.147457e+003,4.053192e-003
1.149385e+003,4.495719e-003
1.151314e+003,4.860238e-003
1.153242e+003,5.100375e-003
1.155171e+003,5.176811e-003
1.157099e+003,5.207493e-003
1.159028e+003,5.242441e-003
1.160956e+003,5.266031e-003
1.162885e+003,5.190738e-003
1.164813e+003,5.087053e-003
1.166742e+003,4.949531e-003
1.168670e+003,4.832312e-003
1.170599e+003,4.641743e-003
1.172527e+003,4.483252e-003
1.174456e+003,4.450694e-003
1.176384e+003,4.425666e-003
1.178313e+003,4.106216e-003
1.180241e+003,3.868913e-003
1.182170e+003,3.773072e-003
1.184098e+003,3.807721e-003
1.186027e+003,3.823085e-003
1.187955e+003,3.849727e-003
1.189884e+003,3.860891e-003
1.191812e+003,3.926997e-003
1.193740e+003,4.018658e-003
1.195669e+003,4.172052e-003
1.197598e+003,4.331431e-003
1.199526e+003,4.540464e-003
1.201455e+003,4.762359e-003
1.203383e+003,5.061863e-003
1.205312e+003,5.338307e-003
1.207240e+003,5.636628e-003
1.209168e+003,5.867335e-003
1.211097e+003,6.019080e-003
1.213026e+003,6.092119e-003
1.214954e+003,6.232197e-003
1.216883e+003,6.335833e-003
1.218811e+003,6.450293e-003
1.220740e+003,6.556855e-003
1.222668e+003,6.750957e-003
1.224596e+003,6.916940e-003
1.226525e+003,7.078356e-003
1.228453e+003,7.235094e-003
1.230382e+003,7.441199e-003
1.232311e+003,7.629966e-003
1.234239e+003,7.804243e-003
1.236167e+003,7.949567e-003
1.238096e+003,8.122973e-003
1.240025e+003,8.235012e-003
1.241953e+003,8.338838e-003
1.243882e+003,8.346943e-003
1.245810e+003,8.283925e-003
1.247739e+003,8.158321e-003
1.249667e+003,8.039004e-003
1.251595e+003,7.849193e-003
1.253524e+003,7.640326e-003
1.255453e+003,7.391596e-003
1.257381e+003,7.185891e-003
1.259310e+003,6.901928e-003
1.261238e+003,6.618076e-003
1.263167e+003,6.311431e-003
1.265095e+003,6.044323e-003
1.267023e+003,5.800070e-003
1.268952e+003,5.648106e-003
1.270880e+003,5.489613e-003
1.272809e+003,5.401354e-003
1.274738e+003,5.304670e-003
1.276666e+003,5.268507e-003
1.278594e+003,5.182165e-003
1.280523e+003,5.185843e-003
1.282451e+003,5.209208e-003
1.284380e+003,5.304239e-003
1.286308e+003,5.330250e-003
1.288237e+003,5.425439e-003
1.290166e+003,5.557618e-003
1.292094e+003,5.746752e-003
1.294022e+003,5.946875e-003
1.295951e+003,6.219657e-003
1.297879e+003,6.371245e-003
1.299808e+003,6.488596e-003
1.301736e+003,6.498409e-003
1.303665e+003,6.518343e-003
1.305594e+003,6.478257e-003
1.307522e+003,6.432422e-003
1.309450e+003,6.249447e-003
1.311379e+003,6.069859e-003
1.313307e+003,5.826215e-003
1.315236e+003,5.565667e-003
1.317164e+003,5.260109e-003
1.319093e+003,5.015424e-003
1.321021e+003,4.715400e-003
1.322950e+003,4.534574e-003
1.324878e+003,4.391733e-003
1.326807e+003,4.343770e-003
1.328735e+003,4.271420e-003
1.330664e+003,4.305006e-003
1.332592e+003,4.414562e-003
1.334521e+003,4.627085e-003
1.336449e+003,4.869856e-003
1.338378e+003,5.352473e-003
1.340306e+003,5.758209e-003
1.342235e+003,6.035956e-003
1.344163e+003,6.350311e-003
1.346092e+003,6.834893e-003
1.348021e+003,7.290556e-003
1.349949e+003,7.774664e-003
1.351877e+003,8.013114e-003
1.353806e+003,8.042263e-003
1.355734e+003,7.847626e-003
1.357663e+003,7.786675e-003
1.359591e+003,7.954726e-003
1.361520e+003,8.486744e-003
1.363448e+003,9.170560e-003
1.365377e+003,9.803402e-003
1.367305e+003,1.019024e-002
1.369234e+003,1.010512e-002
1.371162e+003,9.273268e-003
1.373091e+003,8.363117e-003
1.375019e+003,7.505879e-003
1.376948e+003,6.965555e-003
1.378876e+003,6.129128e-003
1.380805e+003,5.302317e-003
1.382733e+003,4.664460e-003
1.384662e+003,4.419445e-003
1.386590e+003,4.257949e-003
1.388519e+003,4.176382e-003
1.390447e+003,4.004229e-003
1.392376e+003,4.058236e-003
1.394304e+003,4.048604e-003
1.396233e+003,4.175347e-003
1.398161e+003,4.154468e-003
1.400090e+003,4.314828e-003
1.402018e+003,4.211941e-003
1.403947e+003,4.386513e-003
1.405875e+003,4.489968e-003
1.407804e+003,4.658422e-003
1.409732e+003,4.717067e-003
1.411661e+003,4.993982e-003
1.413589e+003,5.087979e-003
1.415518e+003,5.391050e-003
1.417446e+003,5.577525e-003
1.419375e+003,6.216847e-003
1.421303e+003,6.461970e-003
1.423232e+003,7.185268e-003
1.425160e+003,8.131179e-003
1.427089e+003,9.319085e-003
1.429017e+003,1.077109e-002
1.430946e+003,1.290771e-002
1.432874e+003,1.448041e-002
1.434803e+003,1.606666e-002
1.436731e+003,1.778270e-002
1.438660e+003,1.926440e-002
1.440588e+003,2.000320e-002
1.442517e+003,2.120731e-002
1.444445e+003,2.199261e-002
1.446374e+003,2.331905e-002
1.448302e+003,2.520048e-002
1.450231e+003,2.824327e-002
1.452159e+003,3.298381e-002
1.454088e+003,3.978411e-002
1.456016e+003,4.814238e-002
1.457945e+003,8.027148e-002
1.459873e+003,1.416240e-001
1.461802e+003,1.860650e-001
1.463730e+003,1.589967e-001
1.465659e+003,1.017209e-001
1.467587e+003,9.480489e-002
1.469516e+003,1.067444e-001
1.471444e+003,1.452682e-001
1.473373e+003,1.427334e-001
1.475301e+003,7.319826e-002
1.477230e+003,2.805966e-002
1.479158e+003,1.570256e-002
1.481087e+003,1.068967e-002
1.483015e+003,8.540375e-003
1.484944e+003,6.995138e-003
1.486872e+003,6.741666e-003
1.488801e+003,5.822119e-003
1.490729e+003,5.736629e-003
1.492658e+003,4.839996e-003
1.494586e+003,4.845484e-003
1.496515e+003,4.284718e-003
1.498443e+003,4.326758e-003
1.500372e+003,3.745876e-003
1.502300e+003,3.696709e-003
1.504229e+003,3.305841e-003
1.506157e+003,4.149220e-003
1.508086e+003,3.599493e-003
1.510014e+003,3.391897e-003
1.511943e+003,2.929161e-003
1.513871e+003,3.066473e-003
1.515800e+003,2.953460e-003
1.517728e+003,3.212022e-003
1.519657e+003,2.921651e-003
1.521585e+003,3.389104e-003
1.523514e+003,2.906601e-003
1.525442e+003,3.007668e-003
1.527371e+003,2.757774e-003
1.529299e+003,2.741886e-003
1.531228e+003,2.555356e-003
1.533156e+003,2.845954e-003
1.535085e+003,2.637397e-003
1.537013e+003,2.739597e-003
1.538942e+003,2.914501e-003
1.540870e+003,3.550433e-003
1.542799e+003,2.919849e-003
1.544727e+003,2.889089e-003
1.546656e+003,2.478964e-003
1.548584e+003,2.480690e-003
1.550513e+003,2.471934e-003
1.552441e+003,2.498973e-003
1.554370e+003,2.377127e-003
1.556298e+003,2.507095e-003
1.558227e+003,2.550955e-003
1.560155e+003,2.676332e-003
1.562084e+003,2.189968e-003
1.564012e+003,2.195494e-003
1.565941e+003,2.035112e-003
1.567869e+003,2.132878e-003
1.569798e+003,2.201695e-003
1.571726e+003,2.142689e-003
1.573655e+003,1.937656e-003
1.575583e+003,2.245729e-003
1.577512e+003,2.237102e-003
1.579440e+003,2.119400e-003
1.581369e+003,2.048831e-003
1.583297e+003,2.143722e-003
1.585226e+003,2.123748e-003
1.587154e+003,2.178021e-003
1.589083e+003,2.096997e-003
1.591011e+003,2.153770e-003
1.592940e+003,2.083035e-003
1.594868e+003,2.104795e-003
1.596797e+003,2.005594e-003
1.598725e+003,2.019754e-003
1.600654e+003,1.963845e-003
1.602582e+003,2.032370e-003
1.604511e+003,1.935946e-003
1.606439e+003,1.992699e-003
1.608368e+003,1.972562e-003
1.610296e+003,2.020629e-003
1.612225e+003,1.937738e-003
1.614153e+003,1.990288e-003
1.616082e+003,2.109171e-003
1.618010e+003,2.328096e-003
1.619939e+003,2.107878e-003
1.621867e+003,2.114361e-003
1.623796e+003,2.247930e-003
1.625724e+003,2.310890e-003
1.627653e+003,2.292756e-003
1.629581e+003,2.393113e-003
1.631510e+003,2.392720e-003
1.633438e+003,2.539155e-003
1.635367e+003,2.796987e-003
1.637295e+003,3.160617e-003
1.639224e+003,3.097608e-003
1.641152e+003,3.171840e-003
1.643081e+003,2.974126e-003
1.645009e+003,2.938020e-003
1.646938e+003,2.939289e-003
1.648866e+003,2.696923e-003
1.650795e+003,2.386396e-003
1.652723e+003,2.851453e-003
1.654652e+003,2.678051e-003
1.656580e+003,2.382805e-003
1.658509e+003,2.158418e-003
1.660437e+003,2.135613e-003
1.662366e+003,2.086416e-003
1.664294e+003,2.061535e-003
1.666223e+003,1.899692e-003
1.668151e+003,2.001055e-003
1.670080e+003,2.044318e-003
1.672008e+003,1.858513e-003
1.673937e+003,1.560550e-003
1.675865e+003,1.641632e-003
1.677794e+003,1.495046e-003
1.679722e+003,1.521446e-003
1.681651e+003,1.504934e-003
1.683579e+003,1.823331e-003
1.685508e+003,1.573097e-003
1.687436e+003,1.387718e-003
1.689365e+003,1.169848e-003
1.691293e+003,1.089399e-003
1.693222e+003,9.288415e-004
1.695150e+003,1.106358e-003
1.697079e+003,1.155033e-003
1.699007e+003,1.122502e-003
1.700936e+003,1.306338e-003
1.702864e+003,1.216318e-003
1.704793e+003,1.128871e-003
1.706721e+003,1.252268e-003
1.708650e+003,1.086407e-003
1.710578e+003,1.150220e-003
1.712507e+003,1.157396e-003
1.714435e+003,1.387874e-003
1.716364e+003,1.576992e-003
1.718292e+003,1.739202e-003
1.720221e+003,1.482555e-003
1.722149e+003,1.445117e-003
1.724078e+003,1.464191e-003
1.726006e+003,1.590212e-003
1.727935e+003,1.679400e-003
1.729863e+003,1.950689e-003
1.731792e+003,2.022412e-003
1.733720e+003,2.421177e-003
1.735649e+003,2.321683e-003
1.737577e+003,2.194922e-003
1.739506e+003,2.154895e-003
1.741434e+003,2.099426e-003
1.743363e+003,1.936665e-003
1.745291e+003,1.792498e-003
1.747220e+003,1.587995e-003
1.749148e+003,1.411946e-003
1.751077e+003,9.953817e-004
1.753005e+003,6.808778e-004
1.754934e+003,4.415670e-004
1.756862e+003,4.378716e-004
1.758791e+003,2.327515e-004
1.760719e+003,1.712181e-004
1.762648e+003,6.740447e-005
1.764576e+003,7.468276e-006
1.766505e+003,-4.399940e-005
1.768433e+003,1.128810e-004
1.770362e+003,1.045093e-004
1.772290e+003,2.393164e-004
1.774219e+003,-9.834394e-005
1.776147e+003,-2.560755e-004
1.778076e+003,-3.112387e-004
1.780004e+003,-1.131427e-004
1.781933e+003,-1.811748e-004
1.783861e+003,-2.561705e-004
1.785790e+003,-3.030151e-004
1.787718e+003,-2.790205e-004
1.789646e+003,-3.981590e-004
1.791575e+003,-1.590550e-004
1.793504e+003,-1.803096e-004
1.795432e+003,-1.829211e-004
1.797361e+003,-2.537100e-004
1.799289e+003,-1.991782e-004
1.801218e+003,-2.489518e-004
1.803146e+003,-3.251024e-004
1.805074e+003,-5.251234e-004
1.807003e+003,-5.562259e-004
1.808932e+003,-6.127628e-004
1.810860e+003,-5.880427e-004
1.812789e+003,-8.377014e-004
1.814717e+003,-1.041549e-003
1.816646e+003,-1.236700e-003
1.818574e+003,-9.535467e-004
1.820502e+003,-7.880256e-004
1.822431e+003,-6.250720e-004
1.824360e+003,-6.541964e-004
1.826288e+003,-7.658741e-004
1.828217e+003,-9.656362e-004
1.830145e+003,-9.123832e-004
1.832073e+003,-1.133167e-003
1.834002e+003,-1.119503e-003
1.835931e+003,-1.302555e-003
1.837859e+003,-1.229483e-003
1.839788e+003,-1.191222e-003
1.841716e+003,-1.087588e-003
1.843645e+003,-1.175033e-003
1.845573e+003,-1.030400e-003
1.847501e+003,-1.180544e-003
1.849430e+003,-1.281030e-003
1.851359e+003,-1.468826e-003
1.853287e+003,-1.376881e-003
1.855216e+003,-1.403600e-003
1.857144e+003,-1.416211e-003
1.859073e+003,-1.479229e-003
1.861001e+003,-1.259445e-003
1.862929e+003,-1.600494e-003
1.864858e+003,-1.772935e-003
1.866787e+003,-1.760479e-003
1.868715e+003,-1.271639e-003
1.870644e+003,-1.253392e-003
1.872572e+003,-1.097337e-003
1.874500e+003,-1.129949e-003
1.876429e+003,-1.137665e-003
1.878357e+003,-1.342749e-003
1.880286e+003,-1.380150e-003
1.882215e+003,-1.550020e-003
1.884143e+003,-1.248415e-003
1.886072e+003,-1.287117e-003
1.888000e+003,-1.191469e-003
1.889928e+003,-1.109784e-003
1.891857e+003,-8.656345e-004
1.893785e+003,-7.004421e-004
1.895714e+003,-4.065018e-004
1.897643e+003,-4.629064e-004
1.899571e+003,-2.368856e-004
1.901500e+003,-2.329480e-004
1.903428e+003,-2.290141e-004
1.905356e+003,-2.250820e-004
1.907285e+003,-2.211556e-004
1.909213e+003,-2.172273e-004
1.911142e+003,-2.133027e-004
1.913071e+003,-2.093799e-004
1.914999e+003,-2.054572e-004
1.916927e+003,-2.015419e-004
1.918856e+003,-1.976267e-004
1.920784e+003,-1.937132e-004
1.922713e+003,-1.898054e-004
1.924641e+003,-1.858976e-004
1.926570e+003,-1.819897e-004
1.928499e+003,-1.780875e-004
1.930427e+003,-1.741853e-004
1.932355e+003,-1.702886e-004
1.934284e+003,-1.663920e-004
1.936212e+003,-1.624990e-004
1.938141e+003,-1.586080e-004
1.940070e+003,-1.547169e-004
1.941998e+003,-1.508333e-004
1.943927e+003,-1.469478e-004
1.945855e+003,-1.430679e-004
1.947783e+003,-1.391880e-004
1.949712e+003,-1.353100e-004
1.951640e+003,-1.314376e-004
1.953569e+003,-1.275651e-004
1.955498e+003,-1.236964e-004
1.957426e+003,-1.198296e-004
1.959354e+003,-1.159627e-004
1.961283e+003,-1.121033e-004
1.963211e+003,-1.082420e-004
1.965140e+003,-1.043826e-004
1.967068e+003,-1.005288e-004
1.968997e+003,-9.667501e-005
1.970926e+003,-9.282678e-005
1.972854e+003,-8.897856e-005
1.974782e+003,-8.513220e-005
1.976711e+003,-8.129142e-005
1.978639e+003,-7.744879e-005
1.980568e+003,-7.360987e-005
1.982496e+003,-6.977655e-005
1.984425e+003,-6.593764e-005
1.986354e+003,-6.210990e-005
1.988282e+003,-5.828030e-005
1.990210e+003,-5.445443e-005
1.992139e+003,-5.062856e-005
1.994067e+003,-4.681200e-005
1.995996e+003,-4.298985e-005
1.997924e+003,-3.917515e-005
1.999853e+003,-3.535673e-005
2.001781e+003,-3.154576e-005
2.003710e+003,-2.773851e-005
2.005638e+003,-2.393126e-005
2.007567e+003,-2.012402e-005
2.009495e+003,-1.632422e-005
2.011424e+003,-1.252629e-005
2.013352e+003,-8.724630e-006
2.015281e+003,-4.928559e-006
2.017209e+003,-1.138076e-006
2.019138e+003,2.652407e-006
2.021066e+003,6.442890e-006
2.022995e+003,1.022778e-005
2.024923e+003,1.400709e-005
2.026852e+003,1.778826e-005
2.028781e+003,2.156571e-005
2.030709e+003,2.534315e-005
2.032637e+003,2.911687e-005
2.034566e+003,3.289059e-005
2.036494e+003,3.665686e-005
2.038423e+003,4.042685e-005
2.040351e+003,4.418939e-005
2.042280e+003,4.795194e-005
2.044208e+003,5.170889e-005
2.046137e+003,5.546398e-005
2.048065e+003,5.921908e-005
2.049994e+003,6.296858e-005
2.051922e+003,6.671995e-005
2.053851e+003,7.046945e-005
2.055779e+003,7.421337e-005
2.057708e+003,7.795729e-005
2.059636e+003,8.169562e-005
2.061565e+003,8.543208e-005
2.063493e+003,8.916855e-005
2.065422e+003,9.290129e-005
2.067350e+003,9.662844e-005
2.069279e+003,1.003593e-004
2.071207e+003,1.040883e-004
2.073136e+003,1.078080e-004
2.075064e+003,1.115296e-004
2.076993e+003,1.152474e-004
2.078921e+003,1.189597e-004
2.080850e+003,1.226738e-004
2.082778e+003,1.263879e-004
2.084707e+003,1.300965e-004
2.086635e+003,1.338013e-004
2.088564e+003,1.375079e-004
2.090492e+003,1.412071e-004
2.092421e+003,1.449063e-004
2.094349e+003,1.486056e-004
2.096278e+003,1.522992e-004
2.098206e+003,1.559928e-004
2.100135e+003,1.596808e-004
2.102063e+003,1.633689e-004
2.103992e+003,1.670513e-004
2.105920e+003,1.707338e-004
2.107849e+003,1.744144e-004
2.109777e+003,1.780912e-004
2.111706e+003,1.817681e-004
2.113634e+003,1.854394e-004
2.115563e+003,1.891106e-004
2.117491e+003,1.927763e-004
2.119420e+003,1.964420e-004
2.121348e+003,2.001077e-004
2.123277e+003,2.037697e-004
2.125205e+003,2.074279e-004
2.127134e+003,2.110805e-004
2.129062e+003,2.147369e-004
2.130991e+003,2.183877e-004
2.132919e+003,2.220385e-004
2.134848e+003,2.256837e-004
2.136776e+003,2.293251e-004
2.138705e+003,2.329685e-004
2.140633e+003,2.366081e-004
2.142562e+003,2.402458e-004
2.144490e+003,2.438817e-004
2.146419e+003,2.475120e-004
2.148347e+003,2.511404e-004
2.150276e+003,2.547689e-004
2.152204e+003,2.583936e-004
2.154133e+003,2.620146e-004
2.156061e+003,2.656374e-004
2.157990e+003,2.692528e-004
2.159918e+003,2.728701e-004
2.161847e+003,2.764836e-004
2.163775e+003,2.800915e-004
2.165704e+003,2.836958e-004
2.167632e+003,2.873018e-004
2.169561e+003,2.909042e-004
2.171489e+003,2.945065e-004
2.173418e+003,2.981089e-004
2.175346e+003,3.017057e-004
2.177275e+003,3.052950e-004
2.179203e+003,3.088899e-004
2.181132e+003,3.124774e-004
2.183060e+003,3.160629e-004
2.184989e+003,3.196467e-004
2.186917e+003,3.232285e-004
2.188846e+003,3.268085e-004
2.190774e+003,3.303830e-004
2.192703e+003,3.339574e-004
2.194631e+003,3.375318e-004
2.196560e+003,3.410988e-004
2.198488e+003,3.446676e-004
2.200417e+003,3.482345e-004
2.202345e+003,3.517959e-004
2.204274e+003,3.553573e-004
2.206202e+003,3.589150e-004
2.208131e+003,3.624707e-004
2.210059e+003,3.660209e-004
2.211988e+003,3.695711e-004
2.213916e+003,3.731195e-004
2.215845e+003,3.766641e-004
2.217773e+003,3.802106e-004
2.219702e+003,3.837477e-004
2.221630e+003,3.872868e-004
2.223559e+003,3.908221e-004
2.225487e+003,3.943574e-004
2.227416e+003,3.978889e-004
2.229344e+003,4.014187e-004
2.231273e+003,4.049446e-004
2.233201e+003,4.084688e-004
2.235130e+003,4.119910e-004
2.237058e+003,4.155077e-004
2.238987e+003,4.190244e-004
2.240915e+003,4.225392e-004
2.242844e+003,4.260503e-004
2.244772e+003,4.295632e-004
2.246701e+003,4.330724e-004
2.248629e+003,4.365742e-004
2.250558e+003,4.400779e-004
2.252486e+003,4.435759e-004
2.254415e+003,4.470740e-004
2.256343e+003,4.505683e-004
2.258272e+003,4.540607e-004
2.260200e+003,4.575513e-004
2.262129e+003,4.610438e-004
2.264057e+003,4.645251e-004
2.265986e+003,4.680119e-004
2.267914e+003,4.714895e-004
2.269843e+003,4.749708e-004
2.271771e+003,4.784465e-004
2.273700e+003,4.819166e-004
2.275628e+003,4.853904e-004
2.277557e+003,4.888624e-004
2.279485e+003,4.923269e-004
2.281414e+003,4.957914e-004
2.283342e+003,4.992504e-004
2.285271e+003,5.027093e-004
2.287199e+003,5.061664e-004
2.289128e+003,5.096216e-004
2.291056e+003,5.130749e-004
2.292985e+003,5.165227e-004
2.294913e+003,5.199686e-004
2.296842e+003,5.234163e-004
2.298770e+003,5.268585e-004
2.300699e+003,5.302988e-004
2.302627e+003,5.337372e-004
2.304556e+003,5.371720e-004
2.306484e+003,5.406067e-004
2.308413e+003,5.440377e-004
2.310341e+003,5.474631e-004
2.312270e+003,5.508903e-004
2.314198e+003,5.543139e-004
2.316127e+003,5.577300e-004
2.318055e+003,5.611498e-004
2.319984e+003,5.645677e-004
2.321912e+003,5.679801e-004
2.323841e+003,5.713925e-004
2.325769e+003,5.748011e-004
2.327698e+003,5.782060e-004
2.329626e+003,5.816091e-004
2.331555e+003,5.850140e-004
2.333483e+003,5.884133e-004
2.335412e+003,5.918108e-004
2.337340e+003,5.952045e-004
2.339269e+003,5.985983e-004
2.341197e+003,6.019864e-004
2.343126e+003,6.053708e-004
2.345054e+003,6.087571e-004
2.346983e+003,6.121416e-004
2.348911e+003,6.155241e-004
2.350840e+003,6.188992e-004
2.352768e+003,6.222725e-004
2.354697e+003,6.256476e-004
2.356625e+003,6.290190e-004
2.358554e+003,6.323867e-004
2.360482e+003,6.357487e-004
2.362411e+003,6.391127e-004
2.364339e+003,6.424747e-004
2.366268e+003,6.458350e-004
2.368196e+003,6.491896e-004
2.370125e+003,6.525461e-004
2.372053e+003,6.558932e-004
2.373982e+003,6.592423e-004
2.375910e+003,6.625876e-004
2.377839e+003,6.659348e-004
2.379767e+003,6.692763e-004
2.381696e+003,6.726161e-004
2.383624e+003,6.759521e-004
2.385553e+003,6.792881e-004
2.387481e+003,6.826185e-004
2.389410e+003,6.859489e-004
2.391338e+003,6.892756e-004
2.393267e+003,6.926022e-004
2.395195e+003,6.959252e-004
2.397124e+003,6.992426e-004
2.399052e+003,7.025618e-004
2.400981e+003,7.448196e-004
2.402909e+003,7.170681e-004
2.404838e+003,7.603709e-004
2.406766e+003,8.833930e-004
2.408695e+003,1.098990e-003
2.410623e+003,1.114484e-003
2.412552e+003,1.229627e-003
2.414480e+003,1.147415e-003
2.416409e+003,1.042018e-003
2.418337e+003,1.108248e-003
2.420266e+003,1.253802e-003
2.422194e+003,1.141822e-003
2.424123e+003,1.091199e-003
2.426051e+003,1.120225e-003
2.427979e+003,1.203533e-003
2.429908e+003,1.132756e-003
2.431837e+003,1.051996e-003
2.433765e+003,9.902995e-004
2.435694e+003,1.122134e-003
2.437622e+003,1.126628e-003
2.439551e+003,1.165560e-003
2.441479e+003,1.095144e-003
2.443407e+003,1.069356e-003
2.445336e+003,1.122059e-003
2.447265e+003,1.365459e-003
2.449193e+003,1.453478e-003
2.451122e+003,1.386046e-003
2.453050e+003,1.391418e-003
2.454979e+003,1.589876e-003
2.456907e+003,1.553981e-003
2.458836e+003,1.438601e-003
2.460764e+003,1.475921e-003
2.462693e+003,1.535978e-003
2.464621e+003,1.547307e-003
2.466550e+003,1.661215e-003
2.468478e+003,1.830233e-003
2.470406e+003,1.845241e-003
2.472335e+003,1.785830e-003
2.474264e+003,1.870621e-003
2.476192e+003,1.883000e-003
2.478121e+003,1.872312e-003
2.480049e+003,1.946189e-003
2.481978e+003,2.056247e-003
2.483906e+003,2.003171e-003
2.485835e+003,2.034964e-003
2.487763e+003,2.005031e-003
2.489692e+003,1.893332e-003
2.491620e+003,2.020296e-003
2.493549e+003,2.226025e-003
2.495477e+003,2.151569e-003
2.497406e+003,2.209408e-003
2.499334e+003,2.393592e-003
2.501263e+003,2.471460e-003
2.503191e+003,2.420250e-003
2.505120e+003,2.384668e-003
2.507048e+003,2.395751e-003
2.508977e+003,2.509372e-003
2.510905e+003,2.629649e-003
2.512833e+003,2.709830e-003
2.514762e+003,2.700463e-003
2.516691e+003,2.821080e-003
2.518619e+003,2.954181e-003
2.520548e+003,3.136987e-003
2.522476e+003,3.370473e-003
2.524405e+003,3.683150e-003
2.526333e+003,3.772151e-003
2.528261e+003,3.722413e-003
2.530190e+003,3.654823e-003
2.532119e+003,3.508290e-003
2.534047e+003,3.416032e-003
2.535976e+003,3.427528e-003
2.537904e+003,3.515471e-003
2.539833e+003,3.686607e-003
2.541761e+003,3.738413e-003
2.543689e+003,4.061829e-003
2.545618e+003,4.293185e-003
2.547547e+003,4.334854e-003
2.549475e+003,4.306147e-003
2.551404e+003,4.428158e-003
2.553332e+003,4.547501e-003
2.555260e+003,4.593115e-003
2.557189e+003,4.645910e-003
2.559117e+003,4.615722e-003
2.561046e+003,4.543390e-003
2.562975e+003,4.701274e-003
2.564903e+003,4.879178e-003
2.566832e+003,5.050398e-003
2.568760e+003,5.117189e-003
2.570688e+003,5.364059e-003
2.572617e+003,5.614920e-003
2.574546e+003,5.780555e-003
2.576474e+003,5.966673e-003
2.578403e+003,6.207792e-003
2.580331e+003,6.317528e-003
2.582260e+003,6.503124e-003
2.584188e+003,6.706769e-003
2.586116e+003,6.950516e-003
2.588045e+003,7.141652e-003
2.589974e+003,7.486908e-003
2.591902e+003,7.737737e-003
2.593831e+003,7.926097e-003
2.595759e+003,8.115551e-003
2.597688e+003,8.325037e-003
2.599616e+003,8.400701e-003
2.601544e+003,8.551978e-003
2.603473e+003,8.752715e-003
2.605402e+003,9.031117e-003
2.607330e+003,9.332824e-003
2.609259e+003,9.643942e-003
2.611187e+003,9.945881e-003
2.613115e+003,1.025430e-002
2.615044e+003,1.061437e-002
2.616972e+003,1.109177e-002
2.618901e+003,1.138257e-002
2.620830e+003,1.171844e-002
2.622758e+003,1.214496e-002
2.624687e+003,1.256228e-002
2.626615e+003,1.305930e-002
2.628543e+003,1.351327e-002
2.630472e+003,1.390532e-002
2.632400e+003,1.428021e-002
2.634329e+003,1.451682e-002
2.636258e+003,1.458128e-002
2.638186e+003,1.451545e-002
2.640115e+003,1.447546e-002
2.642043e+003,1.438782e-002
2.643971e+003,1.434675e-002
2.645900e+003,1.442906e-002
2.647828e+003,1.450342e-002
2.649757e+003,1.457234e-002
2.651686e+003,1.466649e-002
2.653614e+003,1.488437e-002
2.655542e+003,1.509758e-002
2.657471e+003,1.514269e-002
2.659399e+003,1.511952e-002
2.661328e+003,1.502191e-002
2.663256e+003,1.477713e-002
2.665185e+003,1.441779e-002
2.667114e+003,1.411590e-002
2.669042e+003,1.388597e-002
2.670970e+003,1.364624e-002
2.672899e+003,1.338920e-002
2.674827e+003,1.317171e-002
2.676756e+003,1.305322e-002
2.678685e+003,1.299366e-002
2.680613e+003,1.294975e-002
2.682542e+003,1.294886e-002
2.684470e+003,1.292007e-002
2.686398e+003,1.285705e-002
2.688327e+003,1.280771e-002
2.690255e+003,1.279894e-002
2.692184e+003,1.284886e-002
2.694113e+003,1.295474e-002
2.696041e+003,1.301219e-002
2.697969e+003,1.315080e-002
2.699898e+003,1.339217e-002
2.701826e+003,1.361192e-002
2.703755e+003,1.382425e-002
2.705683e+003,1.405097e-002
2.707612e+003,1.425682e-002
2.709541e+003,1.443951e-002
2.711469e+003,1.457030e-002
2.713397e+003,1.471921e-002
2.715326e+003,1.489743e-002
2.717254e+003,1.510216e-002
2.719183e+003,1.529805e-002
2.721111e+003,1.554160e-002
2.723040e+003,1.584020e-002
2.724969e+003,1.612003e-002
2.726897e+003,1.640246e-002
2.728825e+003,1.670357e-002
2.730754e+003,1.702052e-002
2.732682e+003,1.733142e-002
2.734611e+003,1.767237e-002
2.736539e+003,1.799228e-002
2.738468e+003,1.820334e-002
2.740396e+003,1.834509e-002
2.742325e+003,1.848731e-002
2.744253e+003,1.861002e-002
2.746182e+003,1.864189e-002
2.748110e+003,1.869464e-002
2.750039e+003,1.882687e-002
2.751967e+003,1.903747e-002
2.753896e+003,1.934093e-002
2.755824e+003,1.967639e-002
2.757753e+003,2.009660e-002
2.759681e+003,2.064205e-002
2.761610e+003,2.117432e-002
2.763538e+003,2.162637e-002
2.765467e+003,2.208862e-002
2.767395e+003,2.264396e-002
2.769324e+003,2.325422e-002
2.771252e+003,2.395546e-002
2.773181e+003,2.469736e-002
2.775109e+003,2.550310e-002
2.777038e+003,2.640997e-002
2.778966e+003,2.749059e-002
2.780895e+003,2.860781e-002
2.782823e+003,2.977153e-002
2.784752e+003,3.107130e-002
2.786680e+003,3.250322e-002
2.788609e+003,3.409293e-002
2.790537e+003,3.578245e-002
2.792466e+003,3.748786e-002
2.794394e+003,3.921482e-002
2.796323e+003,4.094740e-002
2.798251e+003,4.274234e-002
2.800180e+003,4.468952e-002
2.802108e+003,4.677577e-002
2.804037e+003,4.902961e-002
2.805965e+003,5.149749e-002
2.807894e+003,5.426179e-002
2.809822e+003,5.737341e-002
2.811751e+003,6.099980e-002
2.813679e+003,6.513207e-002
2.815608e+003,6.985115e-002
2.817536e+003,7.525940e-002
2.819465e+003,8.161150e-002
2.821393e+003,8.928599e-002
2.823322e+003,9.854199e-002
2.825250e+003,1.098784e-001
2.827179e+003,1.240255e-001
2.829107e+003,1.418487e-001
2.831036e+003,1.646293e-001
2.832964e+003,1.943183e-001
2.834893e+003,2.342735e-001
2.836821e+003,2.891847e-001
2.838750e+003,3.665058e-001
2.840678e+003,4.786673e-001
2.842607e+003,6.400217e-001
2.844535e+003,8.474493e-001
2.846464e+003,1.021941e+000
2.848392e+003,9.921655e-001
2.850321e+003,7.640511e-001
2.852249e+003,5.350220e-001
2.854178e+003,3.835040e-001
2.856106e+003,2.872419e-001
2.858035e+003,2.221067e-001
2.859963e+003,1.774128e-001
2.861892e+003,1.476406e-001
2.863820e+003,1.288605e-001
2.865749e+003,1.182248e-001
2.867677e+003,1.137586e-001
2.869606e+003,1.142901e-001
2.871534e+003,1.193907e-001
2.873463e+003,1.291172e-001
2.875391e+003,1.437189e-001
2.877320e+003,1.630010e-001
2.879248e+003,1.861061e-001
2.881177e+003,2.116141e-001
2.883105e+003,2.381714e-001
2.885034e+003,2.652565e-001
2.886962e+003,2.925809e-001
2.888891e+003,3.198310e-001
2.890819e+003,3.468950e-001
2.892748e+003,3.736380e-001
2.894676e+003,4.000945e-001
2.896605e+003,4.269463e-001
2.898533e+003,4.552914e-001
2.900462e+003,4.873249e-001
2.902390e+003,5.268151e-001
2.904319e+003,5.790761e-001
2.906247e+003,6.506128e-001
2.908176e+003,7.472155e-001
2.910104e+003,8.693106e-001
2.912033e+003,9.996238e-001
2.913961e+003,1.085036e+000
2.915890e+003,1.063535e+000
2.917818e+003,9.416041e-001
2.919747e+003,7.857780e-001
2.921675e+003,6.426847e-001
2.923604e+003,5.255553e-001
2.925532e+003,4.337097e-001
2.927461e+003,3.609983e-001
2.929389e+003,3.010483e-001
2.931318e+003,2.502841e-001
2.933246e+003,2.073063e-001
2.935175e+003,1.712689e-001
2.937103e+003,1.410968e-001
2.939032e+003,1.159375e-001
2.940960e+003,9.521607e-002
2.942889e+003,7.843550e-002
2.944817e+003,6.521993e-002
2.946746e+003,5.521702e-002
2.948674e+003,4.778752e-002
2.950603e+003,4.216983e-002
2.952531e+003,3.769916e-002
2.954460e+003,3.380252e-002
2.956388e+003,3.034940e-002
2.958317e+003,2.729536e-002
2.960245e+003,2.446846e-002
2.962174e+003,2.181067e-002
2.964102e+003,1.931121e-002
2.966031e+003,1.702800e-002
2.967959e+003,1.515716e-002
2.969888e+003,1.344085e-002
2.971816e+003,1.195146e-002
2.973745e+003,1.075323e-002
2.975673e+003,9.641219e-003
2.977602e+003,8.646604e-003
2.979530e+003,7.895622e-003
2.981459e+003,7.126257e-003
2.983387e+003,6.406642e-003
2.985316e+003,5.884100e-003
2.987244e+003,5.447812e-003
2.989173e+003,5.020242e-003
2.991101e+003,4.725428e-003
2.993030e+003,4.487362e-003
2.994958e+003,4.272193e-003
2.996887e+003,4.045494e-003
2.998815e+003,3.851088e-003
3.000744e+003,3.669882e-003
3.002672e+003,3.588542e-003
3.004601e+003,3.511282e-003
3.006529e+003,3.373470e-003
3.008458e+003,3.211940e-003
3.010386e+003,3.131639e-003
3.012315e+003,3.067264e-003
3.014243e+003,2.951525e-003
3.016172e+003,2.921091e-003
3.018100e+003,3.027376e-003
3.020029e+003,3.000934e-003
3.021957e+003,2.957148e-003
3.023886e+003,2.888713e-003
3.025814e+003,2.885202e-003
3.027743e+003,2.922410e-003
3.029671e+003,2.889436e-003
3.031600e+003,2.748244e-003
3.033528e+003,2.680173e-003
3.035457e+003,2.619928e-003
3.037385e+003,2.461849e-003
3.039314e+003,2.201673e-003
3.041242e+003,1.989005e-003
3.043171e+003,1.877587e-003
3.045099e+003,1.722427e-003
3.047028e+003,1.453931e-003
3.048956e+003,1.362439e-003
3.050885e+003,1.283534e-003
3.052813e+003,1.184795e-003
3.054742e+003,1.102790e-003
3.056670e+003,9.978227e-004
3.058599e+003,8.769967e-004
3.060527e+003,8.979011e-004
3.062456e+003,9.450465e-004
3.064384e+003,8.932166e-004
3.066313e+003,7.884167e-004
3.068241e+003,7.191971e-004
3.070170e+003,7.326733e-004
3.072098e+003,7.577017e-004
3.074027e+003,6.997697e-004
3.075955e+003,6.461404e-004
3.077884e+003,7.005222e-004
3.079812e+003,7.370450e-004
3.081741e+003,6.083623e-004
3.083669e+003,5.075913e-004
3.085598e+003,4.705768e-004
3.087526e+003,3.959127e-004
3.089455e+003,2.736188e-004
3.091383e+003,1.648758e-004
3.093312e+003,1.835264e-005
3.095240e+003,-2.228413e-004
3.097169e+003,-5.282573e-004
3.099097e+003,-7.144827e-004
3.101026e+003,-9.103548e-004
3.102954e+003,-1.094807e-003
3.104883e+003,-1.233099e-003
3.106811e+003,-1.364613e-003
3.108740e+003,-1.508577e-003
3.110668e+003,-1.535553e-003
3.112597e+003,-1.461957e-003
3.114525e+003,-1.449177e-003
3.116454e+003,-1.490910e-003
3.118382e+003,-1.502361e-003
3.120311e+003,-1.552610e-003
3.122239e+003,-1.547024e-003
3.124168e+003,-1.459859e-003
3.126096e+003,-1.428662e-003
3.128025e+003,-1.531607e-003
3.129953e+003,-1.550311e-003
3.131882e+003,-1.619071e-003
3.133810e+003,-1.647489e-003
3.135739e+003,-1.599897e-003
3.137667e+003,-1.543874e-003
3.139596e+003,-1.445780e-003
3.141524e+003,-1.390120e-003
3.143453e+003,-1.414768e-003
3.145381e+003,-1.422128e-003
3.147310e+003,-1.399729e-003
3.149238e+003,-1.341663e-003
3.151167e+003,-1.228379e-003
3.153095e+003,-1.171626e-003
3.155024e+003,-1.183124e-003
3.156952e+003,-1.194961e-003
3.158881e+003,-1.191230e-003
3.160809e+003,-1.165390e-003
3.162738e+003,-1.249792e-003
3.164666e+003,-1.259668e-003
3.166594e+003,-1.125226e-003
3.168523e+003,-9.820536e-004
3.170452e+003,-8.336511e-004
3.172380e+003,-7.413421e-004
3.174309e+003,-7.685423e-004
3.176237e+003,-8.520167e-004
3.178166e+003,-9.101368e-004
3.180094e+003,-9.100735e-004
3.182022e+003,-8.295812e-004
3.183951e+003,-6.994940e-004
3.185880e+003,-6.124116e-004
3.187808e+003,-5.052853e-004
3.189737e+003,-5.406737e-004
3.191665e+003,-6.455816e-004
3.193594e+003,-5.519968e-004
3.195522e+003,-4.642382e-004
3.197450e+003,-4.789382e-004
3.199379e+003,-4.338510e-004
3.201308e+003,-4.077572e-004
3.203236e+003,-3.330093e-004
3.205165e+003,-2.340004e-004
3.207093e+003,-2.090428e-004
3.209021e+003,-8.455291e-005
3.210950e+003,5.349517e-006
3.212878e+003,-3.175251e-005
3.214807e+003,-5.844980e-006
3.216736e+003,6.903708e-005
3.218664e+003,1.031943e-004
3.220593e+003,3.109127e-005
3.222521e+003,9.294599e-005
3.224449e+003,1.294687e-004
3.226378e+003,1.083091e-004
3.228307e+003,1.412760e-004
3.230235e+003,3.230851e-004
3.232164e+003,3.663860e-004
3.234092e+003,3.694911e-004
3.236021e+003,3.409591e-004
3.237949e+003,3.671497e-004
3.239877e+003,4.714094e-004
3.241806e+003,4.902519e-004
3.243735e+003,5.075820e-004
3.245663e+003,5.395394e-004
3.247592e+003,5.970187e-004
3.249520e+003,6.676484e-004
3.251448e+003,7.756539e-004
3.253377e+003,9.067021e-004
3.255305e+003,8.942634e-004
3.257234e+003,9.438600e-004
3.259163e+003,9.841491e-004
3.261091e+003,1.040254e-003
3.263020e+003,1.132214e-003
3.264948e+003,1.259979e-003
3.266876e+003,1.311822e-003
3.268805e+003,1.389846e-003
3.270733e+003,1.524869e-003
3.272662e+003,1.534864e-003
3.274591e+003,1.501305e-003
3.276519e+003,1.445858e-003
3.278448e+003,1.473576e-003
3.280376e+003,1.551626e-003
3.282304e+003,1.661777e-003
3.284233e+003,1.709241e-003
3.286161e+003,1.709694e-003
3.288090e+003,1.797309e-003
3.290019e+003,1.868881e-003
3.291947e+003,1.866523e-003
3.293875e+003,1.773264e-003
3.295804e+003,1.801420e-003
3.297732e+003,1.843892e-003
3.299661e+003,1.820834e-003
3.301589e+003,1.828713e-003
3.303518e+003,1.908420e-003
3.305447e+003,2.040371e-003
3.307375e+003,2.124552e-003
3.309303e+003,2.100226e-003
3.311232e+003,2.061520e-003
3.313160e+003,2.057664e-003
3.315089e+003,2.161793e-003
3.317018e+003,2.187751e-003
3.318946e+003,2.144612e-003
3.320875e+003,2.127960e-003
3.322803e+003,2.159335e-003
3.324731e+003,2.213713e-003
3.326660e+003,2.302073e-003
3.328588e+003,2.292905e-003
3.330517e+003,2.271648e-003
3.332446e+003,2.350710e-003
3.334374e+003,2.418231e-003
3.336302e+003,2.480965e-003
3.338231e+003,2.466656e-003
3.340159e+003,2.422005e-003
3.342088e+003,2.408314e-003
3.344016e+003,2.368446e-003
3.345945e+003,2.384171e-003
3.347874e+003,2.392992e-003
3.349802e+003,2.444606e-003
3.351730e+003,2.454720e-003
3.353659e+003,2.504606e-003
3.355587e+003,2.612639e-003
3.357516e+003,2.645604e-003
3.359444e+003,2.605431e-003
3.361373e+003,2.642073e-003
3.363302e+003,2.650607e-003
3.365230e+003,2.647750e-003
3.367158e+003,2.649449e-003
3.369087e+003,2.672728e-003
3.371015e+003,2.764206e-003
3.372944e+003,2.833396e-003
3.374872e+003,2.821475e-003
3.376801e+003,2.706908e-003
3.378729e+003,2.634797e-003
3.380658e+003,2.559055e-003
3.382586e+003,2.544530e-003
3.384515e+003,2.532165e-003
3.386443e+003,2.489153e-003
3.388372e+003,2.501767e-003
3.390300e+003,2.497159e-003
3.392229e+003,2.525751e-003
3.394157e+003,2.513096e-003
3.396086e+003,2.460964e-003
3.398014e+003,2.384488e-003
3.399943e+003,2.428848e-003
3.401871e+003,2.502643e-003
3.403800e+003,2.409447e-003
3.405728e+003,2.327338e-003
3.407657e+003,2.346247e-003
3.409585e+003,2.308123e-003
3.411514e+003,2.280585e-003
3.413442e+003,2.263185e-003
3.415371e+003,2.309848e-003
3.417299e+003,2.357721e-003
3.419228e+003,2.289489e-003
3.421156e+003,2.234735e-003
3.423085e+003,2.197545e-003
3.425013e+003,2.193127e-003
3.426942e+003,2.221439e-003
3.428870e+003,2.169885e-003
3.430799e+003,2.187986e-003
3.432727e+003,2.201680e-003
3.434656e+003,1.986250e-003
3.436584e+003,1.918040e-003
3.438513e+003,2.105098e-003
3.440441e+003,2.184946e-003
3.442370e+003,2.149828e-003
3.444298e+003,2.069987e-003
3.446227e+003,2.163023e-003
3.448155e+003,2.099209e-003
3.450084e+003,1.879942e-003
3.452012e+003,1.871306e-003
3.453941e+003,1.864299e-003
3.455869e+003,1.813401e-003
3.457798e+003,1.820639e-003
3.459726e+003,1.840647e-003
3.461655e+003,1.781087e-003
3.463583e+003,1.664124e-003
3.465512e+003,1.597479e-003
3.467440e+003,1.553889e-003
3.469369e+003,1.439430e-003
3.471297e+003,1.304638e-003
3.473226e+003,1.314070e-003
3.475154e+003,1.381617e-003
3.477083e+003,1.287054e-003
3.479011e+003,1.242794e-003
3.480940e+003,1.334209e-003
3.482868e+003,1.320209e-003
3.484797e+003,1.225755e-003
3.486725e+003,1.232922e-003
3.488654e+003,1.250483e-003
3.490582e+003,1.186665e-003
3.492511e+003,1.136616e-003
3.494439e+003,1.178987e-003
3.496368e+003,1.017280e-003
3.498296e+003,8.208454e-004
3.500225e+003,9.511039e-004
3.502153e+003,1.077008e-003
3.504082e+003,1.060989e-003
3.506010e+003,8.840673e-004
3.507939e+003,8.723103e-004
3.509867e+003,8.967668e-004
3.511796e+003,6.746799e-004
3.513724e+003,5.945526e-004
3.515653e+003,5.495474e-004
3.517581e+003,5.124621e-004
3.519510e+003,4.850924e-004
3.521438e+003,6.032847e-004
3.523367e+003,6.251670e-004
3.525295e+003,4.660264e-004
3.527224e+003,4.858300e-004
3.529152e+003,4.808158e-004
3.531081e+003,2.852716e-004
3.533009e+003,1.899227e-004
3.534938e+003,1.538880e-004
3.536866e+003,1.035780e-004
3.538795e+003,-3.403053e-005
3.540723e+003,-6.989017e-005
3.542652e+003,-5.869940e-005
3.544580e+003,-4.450232e-005
3.546509e+003,5.282834e-005
3.548437e+003,-5.866215e-005
3.550366e+003,-1.288503e-004
3.552294e+003,3.802776e-005
3.554223e+003,-1.213811e-004
3.556151e+003,-3.376976e-004
3.558080e+003,-4.061349e-004
3.560008e+003,-2.757944e-004
3.561937e+003,-3.494546e-004
3.563865e+003,-4.630759e-004
3.565794e+003,1.375377e-005
3.567722e+003,3.473759e-004
3.569651e+003,-1.808107e-004
3.571579e+003,-3.371164e-004
3.573508e+003,-3.685243e-004
3.575436e+003,-5.847961e-004
3.577365e+003,-7.491559e-004
3.579293e+003,-6.263163e-004
3.581222e+003,-5.322695e-004
3.583150e+003,-5.476326e-004
3.585079e+003,-3.477409e-004
3.587007e+003,1.759380e-004
3.588936e+003,2.721213e-004
3.590864e+003,5.610287e-006
3.592793e+003,-8.412078e-005
3.594721e+003,2.609454e-004
3.596650e+003,5.903915e-004
3.598578e+003,8.510910e-004
3.600507e+003,1.322825e-003
3.602435e+003,1.527969e-003
3.604364e+003,1.383398e-003
3.606292e+003,1.222331e-003
3.608221e+003,1.293138e-003
3.610149e+003,1.075044e-003
3.612078e+003,9.843521e-004
3.614006e+003,1.028221e-003
3.615935e+003,6.707944e-004
3.617863e+003,5.762130e-004
3.619792e+003,6.117187e-004
3.621720e+003,8.257478e-005
3.623649e+003,-1.967549e-004
3.625577e+003,-3.854930e-004
3.627506e+003,-4.731119e-007
3.629434e+003,1.022168e-003
3.631363e+003,4.370213e-004
3.633291e+003,1.570694e-004
3.635220e+003,2.136268e-004
3.637148e+003,8.620322e-005
3.639077e+003,-4.934520e-005
3.641005e+003,2.114922e-004
3.642934e+003,3.771409e-004
3.644862e+003,2.740435e-004
3.646791e+003,5.423091e-004
3.648719e+003,9.456091e-004
3.650648e+003,1.092296e-003
3.652576e+003,4.568845e-004
3.654505e+003,3.165752e-005
3.656433e+003,2.513491e-004
3.658362e+003,9.621307e-005
3.660290e+003,-1.026541e-004
3.662219e+003,-2.484508e-004
3.664147e+003,-4.440732e-004
3.666076e+003,-5.572066e-004
3.668004e+003,-2.568364e-004
3.669933e+003,5.409792e-004
3.671861e+003,1.743473e-004
3.673790e+003,1.309626e-004
3.675718e+003,9.344146e-004
3.677647e+003,3.581718e-004
3.679575e+003,7.260591e-005
3.681504e+003,-1.737513e-004
3.683432e+003,-2.814494e-004
3.685361e+003,-2.576560e-004
3.687289e+003,1.021214e-004
3.689218e+003,7.330924e-004
3.691146e+003,6.913915e-004
3.693075e+003,3.475323e-004
3.695003e+003,8.162111e-005
3.696932e+003,-2.773851e-005
3.698860e+003,-1.070537e-004
3.700789e+003,1.565032e-004
3.702717e+003,2.468936e-004
3.704646e+003,2.371892e-005
3.706574e+003,-1.307093e-004
3.708503e+003,1.746528e-004
3.710431e+003,7.536896e-004
3.712360e+003,8.325949e-004
3.714288e+003,4.306138e-004
3.716217e+003,2.567843e-005
3.718145e+003,4.291534e-005
3.720074e+003,2.601221e-004
3.722002e+003,6.991029e-004
3.723931e+003,6.152876e-004
3.725859e+003,4.657060e-004
3.727788e+003,2.973303e-004
3.729716e+003,1.960397e-004
3.731645e+003,6.972104e-004
3.733573e+003,1.284353e-003
3.735502e+003,1.797568e-003
3.737430e+003,1.324248e-003
3.739359e+003,7.884428e-004
3.741287e+003,6.647669e-004
3.743216e+003,6.672516e-004
3.745144e+003,1.559824e-003
3.747073e+003,1.422722e-003
3.749001e+003,1.830749e-003
3.750930e+003,2.445746e-003
3.752858e+003,1.845047e-003
3.754787e+003,1.193110e-003
3.756715e+003,1.197010e-003
3.758644e+003,1.337804e-003
3.760572e+003,1.344193e-003
3.762501e+003,9.773225e-004
3.764429e+003,1.167383e-003
3.766358e+003,1.322214e-003
3.768286e+003,1.102712e-003
3.770215e+003,1.211338e-003
3.772143e+003,1.046084e-003
3.774072e+003,9.078719e-004
3.776000e+003,8.574463e-004
3.777929e+003,1.078404e-003
3.779857e+003,1.481313e-003
3.781786e+003,1.389220e-003
3.783714e+003,1.289602e-003
3.785643e+003,1.241785e-003
3.787571e+003,1.286872e-003
3.789500e+003,1.271069e-003
3.791428e+003,1.239598e-003
3.793357e+003,1.166359e-003
3.795285e+003,1.200181e-003
3.797214e+003,1.397282e-003
3.799142e+003,1.142677e-003
3.801071e+003,1.962047e-003
3.802999e+003,2.099387e-003
3.804927e+003,1.461517e-003
3.806856e+003,1.800932e-003
3.808785e+003,1.727771e-003
3.810713e+003,1.426574e-003
3.812642e+003,1.301408e-003
3.814570e+003,1.642425e-003
3.816499e+003,2.414931e-003
3.818427e+003,2.180584e-003
3.820355e+003,2.730723e-003
3.822284e+003,2.903126e-003
3.824213e+003,2.206396e-003
3.826141e+003,2.152774e-003
3.828070e+003,1.910336e-003
3.829998e+003,1.768976e-003
3.831927e+003,2.200376e-003
3.833855e+003,2.418805e-003
3.835783e+003,2.620321e-003
3.837712e+003,2.984352e-003
3.839641e+003,2.944674e-003
3.841569e+003,2.653114e-003
3.843498e+003,2.490979e-003
3.845426e+003,2.210822e-003
3.847354e+003,2.124567e-003
3.849283e+003,2.271183e-003
3.851211e+003,2.836253e-003
3.853140e+003,4.289437e-003
3.855069e+003,3.559455e-003
3.856997e+003,2.786987e-003
3.858926e+003,2.319008e-003
3.860854e+003,2.256937e-003
3.862782e+003,2.587985e-003
3.864711e+003,2.985556e-003
3.866640e+003,2.542999e-003
3.868568e+003,2.518639e-003
3.870497e+003,3.208317e-003
3.872425e+003,2.813160e-003
3.874354e+003,2.857011e-003
3.876282e+003,2.750538e-003
3.878210e+003,2.565652e-003
3.880139e+003,3.022891e-003
3.882068e+003,3.008395e-003
3.883996e+003,2.820298e-003
3.885925e+003,3.215589e-003
3.887853e+003,2.718341e-003
3.889781e+003,2.599817e-003
3.891710e+003,3.038786e-003
3.893638e+003,2.984930e-003
3.895567e+003,2.778437e-003
3.897496e+003,2.847593e-003
3.899424e+003,3.318403e-003
3.901353e+003,3.619064e-003
3.903281e+003,3.706500e-003
3.905209e+003,3.429338e-003
3.907138e+003,2.854180e-003
3.909066e+003,2.668887e-003
3.910995e+003,2.772406e-003
3.912924e+003,2.738014e-003
3.914852e+003,2.778523e-003
3.916781e+003,3.112245e-003
3.918709e+003,3.178351e-003
3.920637e+003,3.002856e-003
3.922566e+003,2.924617e-003
3.924494e+003,3.175568e-003
3.926423e+003,3.088672e-003
3.928352e+003,2.850488e-003
3.930280e+003,2.874423e-003
3.932208e+003,3.033087e-003
3.934137e+003,2.781592e-003
3.936065e+003,2.582297e-003
3.937994e+003,2.582919e-003
3.939922e+003,2.487846e-003
3.941851e+003,2.725851e-003
3.943780e+003,2.762746e-003
3.945708e+003,2.596494e-003
3.947636e+003,2.730452e-003
3.949565e+003,2.855051e-003
3.951493e+003,2.807599e-003
3.953422e+003,2.706654e-003
3.955351e+003,2.640992e-003
3.957279e+003,2.642967e-003
3.959208e+003,2.632871e-003
3.961136e+003,2.695497e-003
3.963064e+003,2.742875e-003
3.964993e+003,2.734825e-003
3.966921e+003,2.765469e-003
3.968850e+003,2.705377e-003
3.970779e+003,2.701722e-003
3.972707e+003,2.676666e-003
3.974635e+003,2.680663e-003
3.976564e+003,2.764154e-003
3.978492e+003,2.751622e-003
3.980421e+003,2.812307e-003
3.982349e+003,2.844974e-003
3.984278e+003,2.795193e-003
3.986207e+003,2.717953e-003
3.988135e+003,2.623070e-003
3.990063e+003,2.544452e-003
3.991992e+003,2.494838e-003
3.993920e+003,2.519589e-003
3.995849e+003,2.584968e-003
3.997777e+003,2.644725e-003
3.999706e+003,2.595186e-003
4.001635e+003,0.000000e+000
