3.991992e+002,0.000000e+000
4.011277e+002,0.000000e+000
4.030562e+002,0.000000e+000
4.049846e+002,0.000000e+000
4.069131e+002,0.000000e+000
4.088416e+002,0.000000e+000
4.107701e+002,0.000000e+000
4.126986e+002,0.000000e+000
4.146271e+002,0.000000e+000
4.165556e+002,0.000000e+000
4.184841e+002,0.000000e+000
4.204126e+002,0.000000e+000
4.223411e+002,0.000000e+000
4.242697e+002,0.000000e+000
4.261982e+002,0.000000e+000
4.281266e+002,0.000000e+000
4.300551e+002,0.000000e+000
4.319836e+002,0.000000e+000
4.339121e+002,0.000000e+000
4.358406e+002,0.000000e+000
4.377691e+002,0.000000e+000
4.396976e+002,0.000000e+000
4.416261e+002,0.000000e+000
4.435546e+002,0.000000e+000
4.454831e+002,0.000000e+000
4.474116e+002,0.000000e+000
4.493401e+002,0.000000e+000
4.512686e+002,0.000000e+000
4.531971e+002,0.000000e+000
4.551256e+002,0.000000e+000
4.570541e+002,0.000000e+000
4.589826e+002,0.000000e+000
4.609111e+002,0.000000e+000
4.628396e+002,0.000000e+000
4.647681e+002,0.000000e+000
4.666966e+002,0.000000e+000
4.686251e+002,0.000000e+000
4.705536e+002,0.000000e+000
4.724821e+002,0.000000e+000
4.744106e+002,0.000000e+000
4.763391e+002,0.000000e+000
4.782676e+002,0.000000e+000
4.801961e+002,0.000000e+000
4.821246e+002,0.000000e+000
4.840531e+002,0.000000e+000
4.859816e+002,0.000000e+000
4.879101e+002,0.000000e+000
4.898386e+002,0.000000e+000
4.917671e+002,0.000000e+000
4.936956e+002,0.000000e+000
4.956241e+002,0.000000e+000
4.975526e+002,0.000000e+000
4.994811e+002,0.000000e+000
5.014096e+002,0.000000e+000
5.033381e+002,0.000000e+000
5.052666e+002,0.000000e+000
5.071951e+002,0.000000e+000
5.091236e+002,0.000000e+000
5.110521e+002,0.000000e+000
5.129806e+002,0.000000e+000
5.149091e+002,0.000000e+000
5.168376e+002,0.000000e+000
5.187661e+002,0.000000e+000
5.206946e+002,0.000000e+000
5.226230e+002,0.000000e+000
5.245516e+002,2.031345e-004
5.264800e+002,1.238789e-004
5.284086e+002,2.380144e-004
5.303370e+002,1.397878e-004
5.322656e+002,1.079766e-004
5.341940e+002,1.359694e-004
5.361226e+002,1.506908e-004
5.380510e+002,1.702225e-004
5.399796e+002,1.231739e-004
5.419081e+002,1.113303e-005
5.438365e+002,-4.450046e-005
5.457650e+002,-2.740417e-005
5.476935e+002,1.917500e-005
5.496221e+002,-2.898835e-005
5.515505e+002,-7.088669e-005
5.534790e+002,1.355540e-005
5.554075e+002,1.352215e-004
5.573361e+002,2.189260e-005
5.592645e+002,9.313226e-009
5.611931e+002,2.878439e-005
5.631215e+002,3.622845e-006
5.650500e+002,-4.655775e-005
5.669785e+002,-6.872788e-005
5.689070e+002,-1.196489e-004
5.708355e+002,-1.611551e-004
5.727640e+002,-2.465211e-004
5.746925e+002,-2.498161e-004
5.766210e+002,-1.636203e-004
5.785495e+002,-9.055156e-005
5.804780e+002,-1.534121e-004
5.824065e+002,-1.824787e-004
5.843350e+002,-2.641967e-004
5.862635e+002,-3.165603e-004
5.881920e+002,-3.654948e-004
5.901205e+002,-3.308561e-004
5.920490e+002,-2.848785e-004
5.939775e+002,-1.870003e-004
5.959060e+002,-1.867432e-004
5.978345e+002,-2.572993e-004
5.997630e+002,-2.113599e-004
6.016915e+002,-1.085885e-004
6.036200e+002,-7.279031e-005
6.055485e+002,-8.527003e-005
6.074770e+002,-1.170319e-004
6.094055e+002,-1.169955e-004
6.113340e+002,-1.792200e-004
6.132625e+002,-2.720002e-004
6.151910e+002,-3.023678e-004
6.171195e+002,-2.585892e-004
6.190480e+002,-2.881261e-004
6.209765e+002,-1.668558e-004
6.229050e+002,-4.649535e-005
6.248335e+002,1.320615e-006
6.267620e+002,-5.777646e-005
6.286905e+002,-5.290192e-005
6.306190e+002,1.445878e-005
6.325475e+002,7.415656e-005
6.344760e+002,7.199217e-005
6.364045e+002,8.053984e-005
6.383330e+002,1.015747e-004
6.402615e+002,2.062805e-004
6.421899e+002,2.717236e-004
6.441185e+002,3.272323e-004
6.460470e+002,3.495272e-004
6.479755e+002,3.030887e-004
6.499039e+002,2.859272e-004
6.518325e+002,3.288342e-004
6.537610e+002,3.602719e-004
6.556895e+002,4.496528e-004
6.576179e+002,4.299134e-004
6.595464e+002,5.370742e-004
6.614750e+002,5.548010e-004
6.634034e+002,5.803145e-004
6.653319e+002,6.007021e-004
6.672604e+002,6.807167e-004
6.691890e+002,6.196611e-004
6.711174e+002,7.202365e-004
6.730460e+002,8.426160e-004
6.749745e+002,8.855602e-004
6.769030e+002,9.960933e-004
6.788314e+002,1.220972e-003
6.807599e+002,1.299456e-003
6.826885e+002,1.424434e-003
6.846169e+002,1.522058e-003
6.865454e+002,1.707678e-003
6.884739e+002,1.869547e-003
6.904025e+002,2.136810e-003
6.923309e+002,2.461352e-003
6.942594e+002,2.854646e-003
6.961879e+002,3.332117e-003
6.981165e+002,4.098243e-003
7.000449e+002,5.024912e-003
7.019734e+002,6.243348e-003
7.039019e+002,7.788092e-003
7.058304e+002,1.001490e-002
7.077589e+002,1.306053e-002
7.096874e+002,1.780380e-002
7.116159e+002,2.591122e-002
7.135444e+002,4.214851e-002
7.154729e+002,6.949919e-002
7.174014e+002,9.968585e-002
7.193299e+002,1.091512e-001
7.212584e+002,8.327476e-002
7.231869e+002,5.719785e-002
7.251154e+002,4.810860e-002
7.270439e+002,5.291751e-002
7.289724e+002,6.730980e-002
7.309009e+002,6.256481e-002
7.328294e+002,3.601582e-002
7.347579e+002,1.880613e-002
7.366864e+002,1.255262e-002
7.386149e+002,9.760819e-003
7.405434e+002,8.114012e-003
7.424719e+002,7.063720e-003
7.444004e+002,6.258962e-003
7.463289e+002,5.714175e-003
7.482574e+002,5.251404e-003
7.501859e+002,4.894110e-003
7.521144e+002,4.543423e-003
7.540428e+002,4.260409e-003
7.559714e+002,3.976119e-003
7.578999e+002,3.746442e-003
7.598284e+002,3.609070e-003
7.617568e+002,3.516056e-003
7.636854e+002,3.442612e-003
7.656139e+002,3.432698e-003
7.675424e+002,3.383483e-003
7.694709e+002,3.269706e-003
7.713994e+002,3.181393e-003
7.733279e+002,3.126266e-003
7.752563e+002,3.029749e-003
7.771849e+002,2.889966e-003
7.791134e+002,2.789292e-003
7.810419e+002,2.747449e-003
7.829703e+002,2.697723e-003
7.848989e+002,2.566410e-003
7.868274e+002,2.410162e-003
7.887559e+002,2.309046e-003
7.906843e+002,2.255839e-003
7.926129e+002,2.195233e-003
7.945414e+002,2.176034e-003
7.964698e+002,2.171828e-003
7.983983e+002,2.115418e-003
8.003268e+002,2.064136e-003
8.022554e+002,2.062983e-003
8.041838e+002,1.971422e-003
8.061123e+002,1.890470e-003
8.080408e+002,1.804091e-003
8.099694e+002,1.745867e-003
8.118978e+002,1.704738e-003
8.138263e+002,1.681592e-003
8.157548e+002,1.644585e-003
8.176833e+002,1.604734e-003
8.196118e+002,1.583570e-003
8.215403e+002,1.534161e-003
8.234689e+002,1.450848e-003
8.253973e+002,1.419404e-003
8.273258e+002,1.347994e-003
8.292543e+002,1.367669e-003
8.311829e+002,1.385040e-003
8.331113e+002,1.366490e-003
8.350398e+002,1.297832e-003
8.369683e+002,1.318746e-003
8.388969e+002,1.364052e-003
8.408253e+002,1.412053e-003
8.427538e+002,1.476637e-003
8.446823e+002,1.552219e-003
8.466108e+002,1.494285e-003
8.485393e+002,1.446350e-003
8.504678e+002,1.456423e-003
8.523963e+002,1.509253e-003
8.543248e+002,1.494763e-003
8.562533e+002,1.519176e-003
8.581818e+002,1.506524e-003
8.601103e+002,1.457636e-003
8.620388e+002,1.431122e-003
8.639673e+002,1.506935e-003
8.658958e+002,1.577873e-003
8.678243e+002,1.562478e-003
8.697528e+002,1.585643e-003
8.716813e+002,1.654927e-003
8.736098e+002,1.751189e-003
8.755383e+002,1.871347e-003
8.774668e+002,1.862391e-003
8.793953e+002,1.912673e-003
8.813238e+002,2.081461e-003
8.832523e+002,2.387690e-003
8.851808e+002,2.631988e-003
8.871093e+002,2.799981e-003
8.890378e+002,2.802690e-003
8.909663e+002,2.725480e-003
8.928948e+002,2.540076e-003
8.948232e+002,2.435373e-003
8.967518e+002,2.341759e-003
8.986803e+002,2.218217e-003
9.006088e+002,2.098112e-003
9.025372e+002,2.179765e-003
9.044658e+002,2.428486e-003
9.063943e+002,2.679636e-003
9.083228e+002,2.747909e-003
9.102512e+002,2.639114e-003
9.121797e+002,2.372217e-003
9.141083e+002,2.195130e-003
9.160367e+002,2.004123e-003
9.179653e+002,1.915364e-003
9.198937e+002,1.854644e-003
9.218223e+002,1.866211e-003
9.237507e+002,1.846880e-003
9.256793e+002,1.897128e-003
9.276077e+002,1.971886e-003
9.295363e+002,1.973409e-003
9.314647e+002,1.987169e-003
9.333932e+002,2.043317e-003
9.353217e+002,1.924242e-003
9.372502e+002,1.951572e-003
9.391787e+002,2.151693e-003
9.411072e+002,1.936670e-003
9.430358e+002,1.701325e-003
9.449642e+002,1.952624e-003
9.468928e+002,2.055381e-003
9.488212e+002,1.854360e-003
9.507498e+002,1.813845e-003
9.526782e+002,1.988373e-003
9.546068e+002,1.997461e-003
9.565352e+002,2.032547e-003
9.584637e+002,2.163726e-003
9.603922e+002,2.343829e-003
9.623207e+002,2.481292e-003
9.642492e+002,2.591508e-003
9.661777e+002,2.581316e-003
9.681062e+002,2.489896e-003
9.700347e+002,2.376693e-003
9.719632e+002,2.315062e-003
9.738917e+002,2.300174e-003
9.758202e+002,2.286403e-003
9.777487e+002,2.230018e-003
9.796772e+002,2.256094e-003
9.816057e+002,2.229528e-003
9.835342e+002,2.245401e-003
9.854627e+002,2.273464e-003
9.873912e+002,2.422570e-003
9.893197e+002,2.528963e-003
9.912482e+002,2.546333e-003
9.931767e+002,2.551178e-003
9.951052e+002,2.625070e-003
9.970337e+002,2.675912e-003
9.989622e+002,2.710269e-003
1.000891e+003,2.745326e-003
1.002819e+003,2.863833e-003
1.004748e+003,2.983044e-003
1.006676e+003,3.129957e-003
1.008605e+003,3.303496e-003
1.010533e+003,3.574375e-003
1.012462e+003,3.886255e-003
1.014390e+003,4.206656e-003
1.016319e+003,4.437348e-003
1.018247e+003,4.632989e-003
1.020176e+003,4.664199e-003
1.022104e+003,4.587750e-003
1.024033e+003,4.431407e-003
1.025961e+003,4.302788e-003
1.027890e+003,4.145575e-003
1.029818e+003,4.076215e-003
1.031747e+003,4.059593e-003
1.033675e+003,4.111977e-003
1.035604e+003,4.121642e-003
1.037532e+003,4.213307e-003
1.039461e+003,4.337902e-003
1.041389e+003,4.523360e-003
1.043318e+003,4.700398e-003
1.045246e+003,4.857864e-003
1.047175e+003,4.873224e-003
1.049103e+003,4.923185e-003
1.051032e+003,4.856858e-003
1.052960e+003,4.711730e-003
1.054889e+003,4.583196e-003
1.056817e+003,4.555349e-003
1.058746e+003,4.599936e-003
1.060674e+003,4.735588e-003
1.062603e+003,4.767679e-003
1.064531e+003,4.776374e-003
1.066460e+003,4.793441e-003
1.068388e+003,4.850873e-003
1.070317e+003,4.884788e-003
1.072245e+003,4.983399e-003
1.074174e+003,5.064651e-003
1.076102e+003,5.235929e-003
1.078031e+003,5.359914e-003
1.079959e+003,5.465776e-003
1.081888e+003,5.452611e-003
1.083816e+003,5.488086e-003
1.085745e+003,5.452720e-003
1.087673e+003,5.449682e-003
1.089602e+003,5.360963e-003
1.091530e+003,5.239521e-003
1.093459e+003,5.055955e-003
1.095387e+003,4.953888e-003
1.097316e+003,4.826044e-003
1.099244e+003,4.760407e-003
1.101173e+003,4.679328e-003
1.103101e+003,4.598393e-003
1.105030e+003,4.414034e-003
1.106958e+003,4.328144e-003
1.108887e+003,4.303520e-003
1.110815e+003,4.297799e-003
1.112744e+003,4.222469e-003
1.114672e+003,4.235567e-003
1.116601e+003,4.228140e-003
1.118529e+003,4.254016e-003
1.120458e+003,4.206046e-003
1.122386e+003,4.175562e-003
1.124315e+003,4.132526e-003
1.126243e+003,4.189953e-003
1.128172e+003,4.234071e-003
1.130100e+003,4.368685e-003
1.132029e+003,4.427118e-003
1.133957e+003,4.442530e-003
1.135885e+003,4.456656e-003
1.137814e+003,4.586660e-003
1.139743e+003,4.670007e-003
1.141671e+003,4.791191e-003
1.143600e+003,4.909717e-003
1.145528e+003,5.138607e-003
1.147457e+003,5.335877e-003
1.149385e+003,5.698094e-003
1.151314e+003,6.099800e-003
1.153242e+003,6.543364e-003
1.155171e+003,6.893964e-003
1.157099e+003,7.195868e-003
1.159028e+003,7.362502e-003
1.160956e+003,7.484159e-003
1.162885e+003,7.460784e-003
1.164813e+003,7.389870e-003
1.166742e+003,7.181875e-003
1.168670e+003,6.949045e-003
1.170599e+003,6.656487e-003
1.172527e+003,6.396772e-003
1.174456e+003,6.098522e-003
1.176384e+003,5.908506e-003
1.178313e+003,5.642397e-003
1.180241e+003,5.365372e-003
1.182170e+003,5.105430e-003
1.184098e+003,4.991340e-003
1.186027e+003,4.890287e-003
1.187955e+003,4.890814e-003
1.189884e+003,4.869334e-003
1.191812e+003,4.918303e-003
1.193740e+003,4.940173e-003
1.195669e+003,5.065413e-003
1.197598e+003,5.163478e-003
1.199526e+003,5.312052e-003
1.201455e+003,5.425377e-003
1.203383e+003,5.691404e-003
1.205312e+003,5.925775e-003
1.207240e+003,6.175263e-003
1.209168e+003,6.421126e-003
1.211097e+003,6.733608e-003
1.213026e+003,6.951382e-003
1.214954e+003,7.195041e-003
1.216883e+003,7.375628e-003
1.218811e+003,7.628489e-003
1.220740e+003,7.822804e-003
1.222668e+003,8.049339e-003
1.224596e+003,8.231271e-003
1.226525e+003,8.464228e-003
1.228453e+003,8.641755e-003
1.230382e+003,8.882578e-003
1.232311e+003,9.047789e-003
1.234239e+003,9.232325e-003
1.236167e+003,9.346632e-003
1.238096e+003,9.448506e-003
1.240025e+003,9.465812e-003
1.241953e+003,9.467179e-003
1.243882e+003,9.313604e-003
1.245810e+003,9.191277e-003
1.247739e+003,8.950289e-003
1.249667e+003,8.696860e-003
1.251595e+003,8.400988e-003
1.253524e+003,8.201625e-003
1.255453e+003,7.961199e-003
1.257381e+003,7.770736e-003
1.259310e+003,7.512918e-003
1.261238e+003,7.306017e-003
1.263167e+003,7.044876e-003
1.265095e+003,6.898003e-003
1.267023e+003,6.752171e-003
1.268952e+003,6.740544e-003
1.270880e+003,6.719735e-003
1.272809e+003,6.734602e-003
1.274738e+003,6.693304e-003
1.276666e+003,6.765442e-003
1.278594e+003,6.828338e-003
1.280523e+003,6.983574e-003
1.282451e+003,7.112686e-003
1.284380e+003,7.308576e-003
1.286308e+003,7.464096e-003
1.288237e+003,7.744879e-003
1.290166e+003,8.010801e-003
1.292094e+003,8.375928e-003
1.294022e+003,8.732388e-003
1.295951e+003,9.150054e-003
1.297879e+003,9.432860e-003
1.299808e+003,9.674890e-003
1.301736e+003,9.736417e-003
1.303665e+003,9.809311e-003
1.305594e+003,9.755202e-003
1.307522e+003,9.677982e-003
1.309450e+003,9.369591e-003
1.311379e+003,9.066056e-003
1.313307e+003,8.674834e-003
1.315236e+003,8.343427e-003
1.317164e+003,7.934816e-003
1.319093e+003,7.613273e-003
1.321021e+003,7.195963e-003
1.322950e+003,6.929196e-003
1.324878e+003,6.640546e-003
1.326807e+003,6.547958e-003
1.328735e+003,6.477291e-003
1.330664e+003,6.613327e-003
1.332592e+003,6.820628e-003
1.334521e+003,7.282555e-003
1.336449e+003,7.904436e-003
1.338378e+003,8.817984e-003
1.340306e+003,9.533850e-003
1.342235e+003,1.001222e-002
1.344163e+003,1.041633e-002
1.346092e+003,1.109261e-002
1.348021e+003,1.180794e-002
1.349949e+003,1.254654e-002
1.351877e+003,1.289228e-002
1.353806e+003,1.298877e-002
1.355734e+003,1.281618e-002
1.357663e+003,1.291379e-002
1.359591e+003,1.332786e-002
1.361520e+003,1.429229e-002
1.363448e+003,1.548250e-002
1.365377e+003,1.669831e-002
1.367305e+003,1.771116e-002
1.369234e+003,1.820690e-002
1.371162e+003,1.801033e-002
1.373091e+003,1.843853e-002
1.375019e+003,2.043345e-002
1.376948e+003,2.194843e-002
1.378876e+003,2.014687e-002
1.380805e+003,1.551926e-002
1.382733e+003,1.105194e-002
1.384662e+003,8.523956e-003
1.386590e+003,7.096210e-003
1.388519e+003,6.297784e-003
1.390447e+003,5.694536e-003
1.392376e+003,5.607229e-003
1.394304e+003,5.472606e-003
1.396233e+003,5.558547e-003
1.398161e+003,5.428446e-003
1.400090e+003,5.594796e-003
1.402018e+003,5.519742e-003
1.403947e+003,5.879503e-003
1.405875e+003,5.944557e-003
1.407804e+003,6.261790e-003
1.409732e+003,6.451728e-003
1.411661e+003,6.843930e-003
1.413589e+003,6.806694e-003
1.415518e+003,7.123604e-003
1.417446e+003,7.283606e-003
1.419375e+003,7.984646e-003
1.421303e+003,8.139787e-003
1.423232e+003,9.172214e-003
1.425160e+003,1.055382e-002
1.427089e+003,1.253062e-002
1.429017e+003,1.507015e-002
1.430946e+003,1.887116e-002
1.432874e+003,2.194397e-002
1.434803e+003,2.501164e-002
1.436731e+003,2.832672e-002
1.438660e+003,3.129917e-002
1.440588e+003,3.305539e-002
1.442517e+003,3.565882e-002
1.444445e+003,3.768400e-002
1.446374e+003,4.061582e-002
1.448302e+003,4.463378e-002
1.450231e+003,5.073737e-002
1.452159e+003,5.967689e-002
1.454088e+003,7.107385e-002
1.456016e+003,8.216475e-002
1.457945e+003,1.050696e-001
1.459873e+003,1.431398e-001
1.461802e+003,1.856113e-001
1.463730e+003,1.925118e-001
1.465659e+003,1.582612e-001
1.467587e+003,1.477312e-001
1.469516e+003,1.494997e-001
1.471444e+003,1.704491e-001
1.473373e+003,1.438596e-001
1.475301e+003,7.703239e-002
1.477230e+003,3.474277e-002
1.479158e+003,2.212614e-002
1.481087e+003,1.591782e-002
1.483015e+003,1.295099e-002
1.484944e+003,1.065096e-002
1.486872e+003,1.001708e-002
1.488801e+003,8.529384e-003
1.490729e+003,8.071419e-003
1.492658e+003,6.735694e-003
1.494586e+003,6.761247e-003
1.496515e+003,6.056983e-003
1.498443e+003,5.993577e-003
1.500372e+003,5.081741e-003
1.502300e+003,4.995517e-003
1.504229e+003,4.605871e-003
1.506157e+003,5.833328e-003
1.508086e+003,4.684176e-003
1.510014e+003,4.441431e-003
1.511943e+003,3.796877e-003
1.513871e+003,3.890686e-003
1.515800e+003,3.743269e-003
1.517728e+003,3.975885e-003
1.519657e+003,3.574442e-003
1.521585e+003,4.134422e-003
1.523514e+003,3.416020e-003
1.525442e+003,3.645157e-003
1.527371e+003,3.247781e-003
1.529299e+003,3.175948e-003
1.531228e+003,2.976222e-003
1.533156e+003,3.374092e-003
1.535085e+003,2.935763e-003
1.537013e+003,3.166625e-003
1.538942e+003,3.600832e-003
1.540870e+003,4.400119e-003
1.542799e+003,3.514122e-003
1.544727e+003,3.381683e-003
1.546656e+003,2.805954e-003
1.548584e+003,2.899742e-003
1.550513e+003,2.746549e-003
1.552441e+003,2.871964e-003
1.554370e+003,2.890430e-003
1.556298e+003,3.237745e-003
1.558227e+003,3.842250e-003
1.560155e+003,3.553707e-003
1.562084e+003,2.705567e-003
1.564012e+003,2.731139e-003
1.565941e+003,2.576046e-003
1.567869e+003,2.782194e-003
1.569798e+003,2.761552e-003
1.571726e+003,2.652366e-003
1.573655e+003,2.604133e-003
1.575583e+003,3.038686e-003
1.577512e+003,2.759587e-003
1.579440e+003,2.626784e-003
1.581369e+003,2.496477e-003
1.583297e+003,2.553226e-003
1.585226e+003,2.557445e-003
1.587154e+003,2.665732e-003
1.589083e+003,2.556877e-003
1.591011e+003,2.601415e-003
1.592940e+003,2.556231e-003
1.594868e+003,2.616808e-003
1.596797e+003,2.413785e-003
1.598725e+003,2.476590e-003
1.600654e+003,2.492027e-003
1.602582e+003,2.535110e-003
1.604511e+003,2.382204e-003
1.606439e+003,2.483292e-003
1.608368e+003,2.445674e-003
1.610296e+003,2.438620e-003
1.612225e+003,2.351655e-003
1.614153e+003,2.564471e-003
1.616082e+003,2.771357e-003
1.618010e+003,2.713341e-003
1.619939e+003,2.503550e-003
1.621867e+003,2.735659e-003
1.623796e+003,2.700554e-003
1.625724e+003,2.644174e-003
1.627653e+003,2.604662e-003
1.629581e+003,2.630441e-003
1.631510e+003,2.548514e-003
1.633438e+003,2.731958e-003
1.635367e+003,3.128687e-003
1.637295e+003,3.190927e-003
1.639224e+003,2.808440e-003
1.641152e+003,2.742451e-003
1.643081e+003,2.652867e-003
1.645009e+003,3.010919e-003
1.646938e+003,3.269287e-003
1.648866e+003,2.876041e-003
1.650795e+003,2.824025e-003
1.652723e+003,4.053684e-003
1.654652e+003,2.931619e-003
1.656580e+003,2.345962e-003
1.658509e+003,2.029279e-003
1.660437e+003,2.055783e-003
1.662366e+003,2.031501e-003
1.664294e+003,1.900135e-003
1.666223e+003,1.795059e-003
1.668151e+003,2.132794e-003
1.670080e+003,2.103852e-003
1.672008e+003,1.941839e-003
1.673937e+003,1.882331e-003
1.675865e+003,1.867486e-003
1.677794e+003,1.631387e-003
1.679722e+003,1.793941e-003
1.681651e+003,1.838995e-003
1.683579e+003,2.508640e-003
1.685508e+003,1.991183e-003
1.687436e+003,1.740884e-003
1.689365e+003,1.628123e-003
1.691293e+003,1.654532e-003
1.693222e+003,1.691472e-003
1.695150e+003,2.178712e-003
1.697079e+003,2.429085e-003
1.699007e+003,2.881043e-003
1.700936e+003,2.970802e-003
1.702864e+003,2.808290e-003
1.704793e+003,3.029622e-003
1.706721e+003,3.450301e-003
1.708650e+003,3.712531e-003
1.710578e+003,4.288992e-003
1.712507e+003,4.916858e-003
1.714435e+003,5.855963e-003
1.716364e+003,6.834701e-003
1.718292e+003,7.476062e-003
1.720221e+003,7.043423e-003
1.722149e+003,6.560152e-003
1.724078e+003,5.565722e-003
1.726006e+003,4.524076e-003
1.727935e+003,3.852926e-003
1.729863e+003,3.698617e-003
1.731792e+003,3.715511e-003
1.733720e+003,4.108496e-003
1.735649e+003,3.546543e-003
1.737577e+003,3.535673e-003
1.739506e+003,3.770882e-003
1.741434e+003,3.943371e-003
1.743363e+003,4.189275e-003
1.745291e+003,4.432548e-003
1.747220e+003,4.599702e-003
1.749148e+003,4.764661e-003
1.751077e+003,4.168071e-003
1.753005e+003,3.271997e-003
1.754934e+003,2.561651e-003
1.756862e+003,2.019506e-003
1.758791e+003,1.465410e-003
1.760719e+003,1.277605e-003
1.762648e+003,7.864628e-004
1.764576e+003,4.173331e-004
1.766505e+003,2.679341e-004
1.768433e+003,2.866704e-004
1.770362e+003,2.302192e-004
1.772290e+003,3.550611e-004
1.774219e+003,-6.243214e-005
1.776147e+003,-1.879577e-004
1.778076e+003,-2.769101e-004
1.780004e+003,-1.559649e-004
1.781933e+003,-3.380794e-004
1.783861e+003,-3.899876e-004
1.785790e+003,-4.791841e-004
1.787718e+003,-5.058032e-004
1.789646e+003,-5.073939e-004
1.791575e+003,-2.450533e-004
1.793504e+003,-4.939549e-004
1.795432e+003,-6.394442e-004
1.797361e+003,-7.753577e-004
1.799289e+003,-6.707292e-004
1.801218e+003,-7.140171e-004
1.803146e+003,-7.931329e-004
1.805074e+003,-1.021571e-003
1.807003e+003,-1.018485e-003
1.808932e+003,-1.019843e-003
1.810860e+003,-9.144358e-004
1.812789e+003,-1.136240e-003
1.814717e+003,-1.384372e-003
1.816646e+003,-1.597678e-003
1.818574e+003,-1.199970e-003
1.820502e+003,-9.955559e-004
1.822431e+003,-8.221716e-004
1.824360e+003,-9.099208e-004
1.826288e+003,-9.847153e-004
1.828217e+003,-1.128415e-003
1.830145e+003,-9.494238e-004
1.832073e+003,-1.356903e-003
1.834002e+003,-1.409709e-003
1.835931e+003,-1.466760e-003
1.837859e+003,-1.284532e-003
1.839788e+003,-1.440844e-003
1.841716e+003,-1.297254e-003
1.843645e+003,-1.003737e-003
1.845573e+003,-9.765737e-004
1.847501e+003,-1.455665e-003
1.849430e+003,-1.395471e-003
1.851359e+003,-1.530310e-003
1.853287e+003,-1.402944e-003
1.855216e+003,-1.449881e-003
1.857144e+003,-1.316151e-003
1.859073e+003,-1.378249e-003
1.861001e+003,-1.362404e-003
1.862929e+003,-1.584988e-003
1.864858e+003,-1.384715e-003
1.866787e+003,-1.193846e-003
1.868715e+003,-7.088557e-004
1.870644e+003,-1.007734e-003
1.872572e+003,-1.074305e-003
1.874500e+003,-1.079591e-003
1.876429e+003,-8.231774e-004
1.878357e+003,-9.853654e-004
1.880286e+003,-1.006881e-003
1.882215e+003,-1.200235e-003
1.884143e+003,-9.121783e-004
1.886072e+003,-7.812493e-004
1.888000e+003,-3.404375e-004
1.889928e+003,-4.358664e-004
1.891857e+003,-3.205836e-004
1.893785e+003,-1.654588e-005
1.895714e+003,3.712270e-004
1.897643e+003,2.390165e-004
1.899571e+003,3.805030e-004
1.901500e+003,3.795084e-004
1.903428e+003,3.785063e-004
1.905356e+003,3.774986e-004
1.907285e+003,3.764816e-004
1.909213e+003,3.754608e-004
1.911142e+003,3.744345e-004
1.913071e+003,3.734026e-004
1.914999e+003,3.723595e-004
1.916927e+003,3.713146e-004
1.918856e+003,3.702622e-004
1.920784e+003,3.692023e-004
1.922713e+003,3.681350e-004
1.924641e+003,3.670640e-004
1.926570e+003,3.659856e-004
1.928499e+003,3.649015e-004
1.930427e+003,3.638081e-004
1.932355e+003,3.627129e-004
1.934284e+003,3.616083e-004
1.936212e+003,3.604982e-004
1.938141e+003,3.593806e-004
1.940070e+003,3.582574e-004
1.941998e+003,3.571287e-004
1.943927e+003,3.559925e-004
1.945855e+003,3.548469e-004
1.947783e+003,3.536996e-004
1.949712e+003,3.525466e-004
1.951640e+003,3.513843e-004
1.953569e+003,3.502145e-004
1.955498e+003,3.490429e-004
1.957426e+003,3.478583e-004
1.959354e+003,3.466737e-004
1.961283e+003,3.454797e-004
1.963211e+003,3.442783e-004
1.965140e+003,3.430732e-004
1.967068e+003,3.418606e-004
1.968997e+003,3.406405e-004
1.970926e+003,3.394149e-004
1.972854e+003,3.381837e-004
1.974782e+003,3.369432e-004
1.976711e+003,3.356989e-004
1.978639e+003,3.344491e-004
1.980568e+003,3.331900e-004
1.982496e+003,3.319252e-004
1.984425e+003,3.306568e-004
1.986354e+003,3.293790e-004
1.988282e+003,3.280975e-004
1.990210e+003,3.268067e-004
1.992139e+003,3.255121e-004
1.994067e+003,3.242064e-004
1.995996e+003,3.228988e-004
1.997924e+003,3.215838e-004
1.999853e+003,3.202632e-004
2.001781e+003,3.189351e-004
2.003710e+003,3.176015e-004
2.005638e+003,3.162567e-004
2.007567e+003,3.149137e-004
2.009495e+003,3.135577e-004
2.011424e+003,3.121980e-004
2.013352e+003,3.108345e-004
2.015281e+003,3.094617e-004
2.017209e+003,3.080815e-004
2.019138e+003,3.066957e-004
2.021066e+003,3.053024e-004
2.022995e+003,3.039055e-004
2.024923e+003,3.025010e-004
2.026852e+003,3.010910e-004
2.028781e+003,2.996698e-004
2.030709e+003,2.982505e-004
2.032637e+003,2.968181e-004
2.034566e+003,2.953801e-004
2.036494e+003,2.939384e-004
2.038423e+003,2.924893e-004
2.040351e+003,2.910309e-004
2.042280e+003,2.895687e-004
2.044208e+003,2.881028e-004
2.046137e+003,2.866276e-004
2.048065e+003,2.851449e-004
2.049994e+003,2.836548e-004
2.051922e+003,2.821628e-004
2.053851e+003,2.806652e-004
2.055779e+003,2.791565e-004
2.057708e+003,2.776403e-004
2.059636e+003,2.761222e-004
2.061565e+003,2.745967e-004
2.063493e+003,2.730638e-004
2.065422e+003,2.715196e-004
2.067350e+003,2.699774e-004
2.069279e+003,2.684277e-004
2.071207e+003,2.668686e-004
2.073136e+003,2.653040e-004
2.075064e+003,2.637319e-004
2.076993e+003,2.621543e-004
2.078921e+003,2.605692e-004
2.080850e+003,2.589803e-004
2.082778e+003,2.573840e-004
2.084707e+003,2.557822e-004
2.086635e+003,2.541728e-004
2.088564e+003,2.525561e-004
2.090492e+003,2.509356e-004
2.092421e+003,2.493039e-004
2.094349e+003,2.476703e-004
2.096278e+003,2.460256e-004
2.098206e+003,2.443846e-004
2.100135e+003,2.427269e-004
2.102063e+003,2.410673e-004
2.103992e+003,2.393983e-004
2.105920e+003,2.377257e-004
2.107849e+003,2.360437e-004
2.109777e+003,2.343580e-004
2.111706e+003,2.326667e-004
2.113634e+003,2.309699e-004
2.115563e+003,2.292637e-004
2.117491e+003,2.275519e-004
2.119420e+003,2.258345e-004
2.121348e+003,2.241097e-004
2.123277e+003,2.223756e-004
2.125205e+003,2.206396e-004
2.127134e+003,2.188943e-004
2.129062e+003,2.171490e-004
2.130991e+003,2.153888e-004
2.132919e+003,2.136286e-004
2.134848e+003,2.118573e-004
2.136776e+003,2.100822e-004
2.138705e+003,2.082996e-004
2.140633e+003,2.065096e-004
2.142562e+003,2.047177e-004
2.144490e+003,2.029166e-004
2.146419e+003,2.011061e-004
2.148347e+003,1.992937e-004
2.150276e+003,1.974721e-004
2.152204e+003,1.956448e-004
2.154133e+003,1.938138e-004
2.156061e+003,1.919754e-004
2.157990e+003,1.901276e-004
2.159918e+003,1.882743e-004
2.161847e+003,1.864154e-004
2.163775e+003,1.845527e-004
2.165704e+003,1.826771e-004
2.167632e+003,1.807977e-004
2.169561e+003,1.789127e-004
2.171489e+003,1.770221e-004
2.173418e+003,1.751296e-004
2.175346e+003,1.732223e-004
2.177275e+003,1.713168e-004
2.179203e+003,1.693964e-004
2.181132e+003,1.674742e-004
2.183060e+003,1.655426e-004
2.184989e+003,1.636073e-004
2.186917e+003,1.616683e-004
2.188846e+003,1.597200e-004
2.190774e+003,1.577623e-004
2.192703e+003,1.558028e-004
2.194631e+003,1.538321e-004
2.196560e+003,1.518596e-004
2.198488e+003,1.498796e-004
2.200417e+003,1.478959e-004
2.202345e+003,1.459029e-004
2.204274e+003,1.439042e-004
2.206202e+003,1.418963e-004
2.208131e+003,1.398847e-004
2.210059e+003,1.378637e-004
2.211988e+003,1.358371e-004
2.213916e+003,1.338031e-004
2.215845e+003,1.317691e-004
2.217773e+003,1.297258e-004
2.219702e+003,1.276750e-004
2.221630e+003,1.256168e-004
2.223559e+003,1.235548e-004
2.225487e+003,1.214817e-004
2.227416e+003,1.194086e-004
2.229344e+003,1.173243e-004
2.231273e+003,1.152381e-004
2.233201e+003,1.131408e-004
2.235130e+003,1.110379e-004
2.237058e+003,1.089294e-004
2.238987e+003,1.068134e-004
2.240915e+003,1.046918e-004
2.242844e+003,1.025666e-004
2.244772e+003,1.004320e-004
2.246701e+003,9.828992e-005
2.248629e+003,9.614415e-005
2.250558e+003,9.399280e-005
2.252486e+003,9.183399e-005
2.254415e+003,8.966587e-005
2.256343e+003,8.749403e-005
2.258272e+003,8.531474e-005
2.260200e+003,8.312985e-005
2.262129e+003,8.093938e-005
2.264057e+003,7.874146e-005
2.265986e+003,7.653795e-005
2.267914e+003,7.432699e-005
2.269843e+003,7.210486e-005
2.271771e+003,6.988272e-005
2.273700e+003,6.765500e-005
2.275628e+003,6.542169e-005
2.277557e+003,6.317534e-005
2.279485e+003,6.093085e-005
2.281414e+003,5.867332e-005
2.283342e+003,5.640835e-005
2.285271e+003,5.413964e-005
2.287199e+003,5.186535e-005
2.289128e+003,4.958548e-005
2.291056e+003,4.730001e-005
2.292985e+003,4.500151e-005
2.294913e+003,4.270300e-005
2.296842e+003,4.039519e-005
2.298770e+003,3.808364e-005
2.300699e+003,3.576465e-005
2.302627e+003,3.344193e-005
2.304556e+003,3.110990e-005
2.306484e+003,2.877042e-005
2.308413e+003,2.642162e-005
2.310341e+003,2.407283e-005
2.312270e+003,2.171472e-005
2.314198e+003,1.934916e-005
2.316127e+003,1.697615e-005
2.318055e+003,1.459941e-005
2.319984e+003,1.221895e-005
2.321912e+003,9.831041e-006
2.323841e+003,7.433817e-006
2.325769e+003,5.032867e-006
2.327698e+003,2.620742e-006
2.329626e+003,2.067536e-007
2.331555e+003,-2.218410e-006
2.333483e+003,-4.641712e-006
2.335412e+003,-7.079914e-006
2.337340e+003,-9.518117e-006
2.339269e+003,-1.196750e-005
2.341197e+003,-1.442060e-005
2.343126e+003,-1.688302e-005
2.345054e+003,-1.934916e-005
2.346983e+003,-2.182089e-005
2.348911e+003,-2.430007e-005
2.350840e+003,-2.678484e-005
2.352768e+003,-2.927519e-005
2.354697e+003,-3.177486e-005
2.356625e+003,-3.428385e-005
2.358554e+003,-3.679283e-005
2.360482e+003,-3.930926e-005
2.362411e+003,-4.183501e-005
2.364339e+003,-4.436448e-005
2.366268e+003,-4.689954e-005
2.368196e+003,-4.944578e-005
2.370125e+003,-5.199574e-005
2.372053e+003,-5.455129e-005
2.373982e+003,-5.711429e-005
2.375910e+003,-5.968288e-005
2.377839e+003,-6.225519e-005
2.379767e+003,-6.483868e-005
2.381696e+003,-6.742962e-005
2.383624e+003,-7.002242e-005
2.385553e+003,-7.262453e-005
2.387481e+003,-7.523224e-005
2.389410e+003,-7.784367e-005
2.391338e+003,-8.046255e-005
2.393267e+003,-8.308887e-005
2.395195e+003,-8.572452e-005
2.397124e+003,-8.836389e-005
2.399052e+003,-9.101070e-005
2.400981e+003,-1.460053e-004
2.402909e+003,-2.707914e-005
2.404838e+003,9.015203e-005
2.406766e+003,2.877265e-004
2.408695e+003,5.389787e-004
2.410623e+003,5.388148e-004
2.412552e+003,6.079599e-004
2.414480e+003,7.178038e-004
2.416409e+003,7.078610e-004
2.418337e+003,5.956851e-004
2.420266e+003,6.505325e-004
2.422194e+003,5.781837e-004
2.424123e+003,3.863089e-004
2.426051e+003,4.208647e-004
2.427979e+003,5.021803e-004
2.429908e+003,4.620031e-004
2.431837e+003,5.552657e-004
2.433765e+003,6.051920e-004
2.435694e+003,6.823242e-004
2.437622e+003,5.651005e-004
2.439551e+003,5.192123e-004
2.441479e+003,5.633198e-004
2.443407e+003,6.454848e-004
2.445336e+003,6.016120e-004
2.447265e+003,5.891919e-004
2.449193e+003,6.160736e-004
2.451122e+003,7.495284e-004
2.453050e+003,8.289739e-004
2.454979e+003,8.454472e-004
2.456907e+003,7.218085e-004
2.458836e+003,7.856861e-004
2.460764e+003,6.801374e-004
2.462693e+003,5.948730e-004
2.464621e+003,5.764216e-004
2.466550e+003,6.807260e-004
2.468478e+003,7.310398e-004
2.470406e+003,8.611269e-004
2.472335e+003,1.045000e-003
2.474264e+003,1.157627e-003
2.476192e+003,1.121290e-003
2.478121e+003,1.182392e-003
2.480049e+003,1.157958e-003
2.481978e+003,1.232240e-003
2.483906e+003,1.208987e-003
2.485835e+003,1.292087e-003
2.487763e+003,1.321048e-003
2.489692e+003,1.337625e-003
2.491620e+003,1.202766e-003
2.493549e+003,1.206305e-003
2.495477e+003,1.365632e-003
2.497406e+003,1.495674e-003
2.499334e+003,1.516182e-003
2.501263e+003,1.527738e-003
2.503191e+003,1.593404e-003
2.505120e+003,1.590200e-003
2.507048e+003,1.543865e-003
2.508977e+003,1.568239e-003
2.510905e+003,1.631290e-003
2.512833e+003,1.873892e-003
2.514762e+003,1.829054e-003
2.516691e+003,1.923520e-003
2.518619e+003,2.066728e-003
2.520548e+003,2.163429e-003
2.522476e+003,2.254754e-003
2.524405e+003,2.569724e-003
2.526333e+003,2.701916e-003
2.528261e+003,2.578728e-003
2.530190e+003,2.518836e-003
2.532119e+003,2.729002e-003
2.534047e+003,2.829343e-003
2.535976e+003,2.683785e-003
2.537904e+003,2.623063e-003
2.539833e+003,2.688047e-003
2.541761e+003,2.681077e-003
2.543689e+003,2.981596e-003
2.545618e+003,3.384046e-003
2.547547e+003,3.606383e-003
2.549475e+003,3.646445e-003
2.551404e+003,3.889460e-003
2.553332e+003,3.963292e-003
2.555260e+003,3.843099e-003
2.557189e+003,3.773279e-003
2.559117e+003,3.932755e-003
2.561046e+003,4.080281e-003
2.562975e+003,4.078962e-003
2.564903e+003,4.102506e-003
2.566832e+003,4.404571e-003
2.568760e+003,4.528265e-003
2.570688e+003,4.644483e-003
2.572617e+003,4.870985e-003
2.574546e+003,5.018212e-003
2.576474e+003,5.111210e-003
2.578403e+003,5.311299e-003
2.580331e+003,5.491171e-003
2.582260e+003,5.614344e-003
2.584188e+003,5.684305e-003
2.586116e+003,5.890287e-003
2.588045e+003,6.168041e-003
2.589974e+003,6.551858e-003
2.591902e+003,6.907698e-003
2.593831e+003,7.070985e-003
2.595759e+003,7.084027e-003
2.597688e+003,7.274568e-003
2.599616e+003,7.416699e-003
2.601544e+003,7.520691e-003
2.603473e+003,7.755514e-003
2.605402e+003,7.984728e-003
2.607330e+003,8.175559e-003
2.609259e+003,8.489415e-003
2.611187e+003,8.770913e-003
2.613115e+003,9.095877e-003
2.615044e+003,9.462103e-003
2.616972e+003,9.792555e-003
2.618901e+003,1.007620e-002
2.620830e+003,1.036971e-002
2.622758e+003,1.076777e-002
2.624687e+003,1.126540e-002
2.626615e+003,1.165292e-002
2.628543e+003,1.200394e-002
2.630472e+003,1.234784e-002
2.632400e+003,1.265716e-002
2.634329e+003,1.293614e-002
2.636258e+003,1.307925e-002
2.638186e+003,1.307228e-002
2.640115e+003,1.305406e-002
2.642043e+003,1.297091e-002
2.643971e+003,1.291978e-002
2.645900e+003,1.295674e-002
2.647828e+003,1.296996e-002
2.649757e+003,1.297174e-002
2.651686e+003,1.311676e-002
2.653614e+003,1.327069e-002
2.655542e+003,1.334200e-002
2.657471e+003,1.336400e-002
2.659399e+003,1.341607e-002
2.661328e+003,1.334386e-002
2.663256e+003,1.315840e-002
2.665185e+003,1.297055e-002
2.667114e+003,1.281046e-002
2.669042e+003,1.259963e-002
2.670970e+003,1.242706e-002
2.672899e+003,1.228968e-002
2.674827e+003,1.212561e-002
2.676756e+003,1.197369e-002
2.678685e+003,1.191870e-002
2.680613e+003,1.186620e-002
2.682542e+003,1.171320e-002
2.684470e+003,1.151860e-002
2.686398e+003,1.139674e-002
2.688327e+003,1.127340e-002
2.690255e+003,1.116557e-002
2.692184e+003,1.106677e-002
2.694113e+003,1.099067e-002
2.696041e+003,1.098193e-002
2.697969e+003,1.102794e-002
2.699898e+003,1.105809e-002
2.701826e+003,1.114173e-002
2.703755e+003,1.132087e-002
2.705683e+003,1.156933e-002
2.707612e+003,1.179884e-002
2.709541e+003,1.196551e-002
2.711469e+003,1.210931e-002
2.713397e+003,1.228656e-002
2.715326e+003,1.238610e-002
2.717254e+003,1.250864e-002
2.719183e+003,1.275153e-002
2.721111e+003,1.301320e-002
2.723040e+003,1.327087e-002
2.724969e+003,1.360622e-002
2.726897e+003,1.398151e-002
2.728825e+003,1.426933e-002
2.730754e+003,1.447479e-002
2.732682e+003,1.459600e-002
2.734611e+003,1.467888e-002
2.736539e+003,1.477247e-002
2.738468e+003,1.490690e-002
2.740396e+003,1.499442e-002
2.742325e+003,1.499647e-002
2.744253e+003,1.497772e-002
2.746182e+003,1.490433e-002
2.748110e+003,1.486228e-002
2.750039e+003,1.491411e-002
2.751967e+003,1.503310e-002
2.753896e+003,1.519778e-002
2.755824e+003,1.548026e-002
2.757753e+003,1.581023e-002
2.759681e+003,1.616060e-002
2.761610e+003,1.655562e-002
2.763538e+003,1.693896e-002
2.765467e+003,1.738933e-002
2.767395e+003,1.786532e-002
2.769324e+003,1.839611e-002
2.771252e+003,1.900420e-002
2.773181e+003,1.969851e-002
2.775109e+003,2.048883e-002
2.777038e+003,2.137013e-002
2.778966e+003,2.233224e-002
2.780895e+003,2.341757e-002
2.782823e+003,2.462455e-002
2.784752e+003,2.591568e-002
2.786680e+003,2.737863e-002
2.788609e+003,2.896072e-002
2.790537e+003,3.060602e-002
2.792466e+003,3.226232e-002
2.794394e+003,3.395519e-002
2.796323e+003,3.576649e-002
2.798251e+003,3.765614e-002
2.800180e+003,3.961268e-002
2.802108e+003,4.172382e-002
2.804037e+003,4.400643e-002
2.805965e+003,4.641522e-002
2.807894e+003,4.902121e-002
2.809822e+003,5.194331e-002
2.811751e+003,5.531961e-002
2.813679e+003,5.922962e-002
2.815608e+003,6.375692e-002
2.817536e+003,6.898230e-002
2.819465e+003,7.503545e-002
2.821393e+003,8.221156e-002
2.823322e+003,9.093443e-002
2.825250e+003,1.017244e-001
2.827179e+003,1.154228e-001
2.829107e+003,1.331892e-001
2.831036e+003,1.568226e-001
2.832964e+003,1.892453e-001
2.834893e+003,2.352587e-001
2.836821e+003,3.013445e-001
2.838750e+003,3.975785e-001
2.840678e+003,5.403094e-001
2.842607e+003,7.505108e-001
2.844535e+003,1.038718e+000
2.846464e+003,1.334566e+000
2.848392e+003,1.394005e+000
2.850321e+003,1.142810e+000
2.852249e+003,8.465895e-001
2.854178e+003,6.345909e-001
2.856106e+003,4.914417e-001
2.858035e+003,3.905888e-001
2.859963e+003,3.184026e-001
2.861892e+003,2.676532e-001
2.863820e+003,2.334580e-001
2.865749e+003,2.126342e-001
2.867677e+003,2.024179e-001
2.869606e+003,1.993555e-001
2.871534e+003,2.001833e-001
2.873463e+003,2.040810e-001
2.875391e+003,2.127126e-001
2.877320e+003,2.275076e-001
2.879248e+003,2.483053e-001
2.881177e+003,2.740849e-001
2.883105e+003,3.039822e-001
2.885034e+003,3.375495e-001
2.886962e+003,3.739467e-001
2.888891e+003,4.124044e-001
2.890819e+003,4.519857e-001
2.892748e+003,4.917608e-001
2.894676e+003,5.314942e-001
2.896605e+003,5.721424e-001
2.898533e+003,6.153880e-001
2.900462e+003,6.640669e-001
2.902390e+003,7.228005e-001
2.904319e+003,7.986019e-001
2.906247e+003,9.008672e-001
2.908176e+003,1.039515e+000
2.910104e+003,1.217809e+000
2.912033e+003,1.413148e+000
2.913961e+003,1.553353e+000
2.915890e+003,1.551491e+000
2.917818e+003,1.406258e+000
2.919747e+003,1.203975e+000
2.921675e+003,1.012054e+000
2.923604e+003,8.518215e-001
2.925532e+003,7.226211e-001
2.927461e+003,6.168977e-001
2.929389e+003,5.276816e-001
2.931318e+003,4.510296e-001
2.933246e+003,3.848295e-001
2.935175e+003,3.276951e-001
2.937103e+003,2.785315e-001
2.939032e+003,2.364378e-001
2.940960e+003,2.011725e-001
2.942889e+003,1.725909e-001
2.944817e+003,1.506008e-001
2.946746e+003,1.349136e-001
2.948674e+003,1.249387e-001
2.950603e+003,1.192721e-001
2.952531e+003,1.156736e-001
2.954460e+003,1.121475e-001
2.956388e+003,1.077885e-001
2.958317e+003,1.022890e-001
2.960245e+003,9.566762e-002
2.962174e+003,8.788866e-002
2.964102e+003,7.940213e-002
2.966031e+003,7.076629e-002
2.967959e+003,6.245594e-002
2.969888e+003,5.482570e-002
2.971816e+003,4.817665e-002
2.973745e+003,4.252185e-002
2.975673e+003,3.781544e-002
2.977602e+003,3.388317e-002
2.979530e+003,3.064346e-002
2.981459e+003,2.794943e-002
2.983387e+003,2.571472e-002
2.985316e+003,2.376983e-002
2.987244e+003,2.213311e-002
2.989173e+003,2.077930e-002
2.991101e+003,1.958636e-002
2.993030e+003,1.855652e-002
2.994958e+003,1.771753e-002
2.996887e+003,1.698980e-002
2.998815e+003,1.629484e-002
3.000744e+003,1.564592e-002
3.002672e+003,1.510079e-002
3.004601e+003,1.461112e-002
3.006529e+003,1.413563e-002
3.008458e+003,1.364775e-002
3.010386e+003,1.322768e-002
3.012315e+003,1.287443e-002
3.014243e+003,1.243931e-002
3.016172e+003,1.199960e-002
3.018100e+003,1.168099e-002
3.020029e+003,1.137763e-002
3.021957e+003,1.105709e-002
3.023886e+003,1.071662e-002
3.025814e+003,1.047135e-002
3.027743e+003,1.025217e-002
3.029671e+003,1.002669e-002
3.031600e+003,9.708613e-003
3.033528e+003,9.374861e-003
3.035457e+003,9.119164e-003
3.037385e+003,8.763120e-003
3.039314e+003,8.394998e-003
3.041242e+003,8.105956e-003
3.043171e+003,7.769533e-003
3.045099e+003,7.376485e-003
3.047028e+003,7.137522e-003
3.048956e+003,6.911173e-003
3.050885e+003,6.620243e-003
3.052813e+003,6.320298e-003
3.054742e+003,6.129500e-003
3.056670e+003,6.051257e-003
3.058599e+003,5.915277e-003
3.060527e+003,5.674750e-003
3.062456e+003,5.440794e-003
3.064384e+003,5.318303e-003
3.066313e+003,5.232576e-003
3.068241e+003,5.089495e-003
3.070170e+003,4.989941e-003
3.072098e+003,4.855175e-003
3.074027e+003,4.680306e-003
3.075955e+003,4.598666e-003
3.077884e+003,4.537288e-003
3.079812e+003,4.405193e-003
3.081741e+003,4.160982e-003
3.083669e+003,4.030421e-003
3.085598e+003,3.949497e-003
3.087526e+003,3.667157e-003
3.089455e+003,3.369391e-003
3.091383e+003,3.218573e-003
3.093312e+003,3.058795e-003
3.095240e+003,2.745263e-003
3.097169e+003,2.382964e-003
3.099097e+003,2.136011e-003
3.101026e+003,1.929313e-003
3.102954e+003,1.798823e-003
3.104883e+003,1.602642e-003
3.106811e+003,1.386281e-003
3.108740e+003,1.267575e-003
3.110668e+003,1.250111e-003
3.112597e+003,1.156311e-003
3.114525e+003,1.053546e-003
3.116454e+003,9.635612e-004
3.118382e+003,8.613057e-004
3.120311e+003,7.163696e-004
3.122239e+003,6.860010e-004
3.124168e+003,7.338785e-004
3.126096e+003,6.535724e-004
3.128025e+003,5.501769e-004
3.129953e+003,4.853830e-004
3.131882e+003,4.301481e-004
3.133810e+003,3.537387e-004
3.135739e+003,3.742352e-004
3.137667e+003,3.647134e-004
3.139596e+003,2.978891e-004
3.141524e+003,3.007613e-004
3.143453e+003,3.944226e-004
3.145381e+003,4.064888e-004
3.147310e+003,4.036240e-004
3.149238e+003,4.379898e-004
3.151167e+003,2.818741e-004
3.153095e+003,2.238452e-004
3.155024e+003,3.439896e-004
3.156952e+003,2.974719e-004
3.158881e+003,1.976639e-004
3.160809e+003,1.488365e-004
3.162738e+003,1.615547e-004
3.164666e+003,1.781732e-004
3.166594e+003,1.886487e-004
3.168523e+003,2.374649e-004
3.170452e+003,2.695397e-004
3.172380e+003,1.915060e-004
3.174309e+003,1.198761e-004
3.176237e+003,1.516044e-004
3.178166e+003,1.721829e-004
3.180094e+003,1.611635e-004
3.182022e+003,2.037324e-004
3.183951e+003,1.985840e-004
3.185880e+003,1.205914e-004
3.187808e+003,1.184344e-004
3.189737e+003,1.780726e-004
3.191665e+003,1.687482e-004
3.193594e+003,1.478307e-004
3.195522e+003,1.085438e-004
3.197450e+003,8.020550e-006
3.199379e+003,-8.103251e-005
3.201308e+003,-9.110942e-005
3.203236e+003,3.737211e-005
3.205165e+003,9.230524e-005
3.207093e+003,1.377650e-004
3.209021e+003,1.441278e-004
3.210950e+003,3.078207e-005
3.212878e+003,-1.067445e-004
3.214807e+003,-1.133755e-004
3.216736e+003,-1.166128e-004
3.218664e+003,-1.319535e-004
3.220593e+003,-1.277328e-004
3.222521e+003,-9.123608e-005
3.224449e+003,-6.109104e-005
3.226378e+003,-7.104501e-005
3.228307e+003,-4.339591e-005
3.230235e+003,-1.193620e-004
3.232164e+003,-2.075657e-004
3.234092e+003,-1.880229e-004
3.236021e+003,-1.366213e-004
3.237949e+003,-2.296418e-004
3.239877e+003,-2.466142e-004
3.241806e+003,-1.723394e-004
3.243735e+003,-1.988411e-004
3.245663e+003,-1.832247e-004
3.247592e+003,-1.317561e-004
3.249520e+003,-1.905933e-004
3.251448e+003,-2.858341e-004
3.253377e+003,-2.135485e-004
3.255305e+003,-1.243874e-004
3.257234e+003,-5.715713e-005
3.259163e+003,-6.368384e-005
3.261091e+003,-1.298450e-004
3.263020e+003,-1.728870e-004
3.264948e+003,-8.042529e-005
3.266876e+003,-7.304549e-005
3.268805e+003,-1.198277e-004
3.270733e+003,-5.165860e-005
3.272662e+003,-3.674999e-005
3.274591e+003,-4.265457e-006
3.276519e+003,-3.915280e-005
3.278448e+003,-4.572794e-005
3.280376e+003,4.902482e-005
3.282304e+003,7.512793e-005
3.284233e+003,4.457682e-005
3.286161e+003,3.723800e-005
3.288090e+003,8.730218e-005
3.290019e+003,1.284368e-004
3.291947e+003,1.076199e-004
3.293875e+003,8.070096e-005
3.295804e+003,2.096966e-005
3.297732e+003,3.509596e-005
3.299661e+003,2.544373e-005
3.301589e+003,4.615635e-006
3.303518e+003,-7.585436e-005
3.305447e+003,9.745359e-006
3.307375e+003,1.526475e-004
3.309303e+003,1.419000e-004
3.311232e+003,1.015142e-005
3.313160e+003,-3.760681e-005
3.315089e+003,-1.394749e-005
3.317018e+003,1.438707e-005
3.318946e+003,6.091222e-005
3.320875e+003,2.826005e-005
3.322803e+003,-5.508214e-005
3.324731e+003,-7.647648e-005
3.326660e+003,-1.513213e-005
3.328588e+003,-3.926456e-005
3.330517e+003,-9.816140e-006
3.332446e+003,1.424477e-004
3.334374e+003,2.716519e-004
3.336302e+003,2.488643e-004
3.338231e+003,1.176558e-004
3.340159e+003,3.448129e-005
3.342088e+003,6.211922e-005
3.344016e+003,6.899238e-005
3.345945e+003,1.138300e-004
3.347874e+003,1.908764e-004
3.349802e+003,1.583248e-004
3.351730e+003,9.067729e-005
3.353659e+003,8.358434e-005
3.355587e+003,6.925687e-005
3.357516e+003,7.751584e-005
3.359444e+003,1.485944e-004
3.361373e+003,2.430826e-004
3.363302e+003,3.052652e-004
3.365230e+003,2.544224e-004
3.367158e+003,2.123863e-004
3.369087e+003,3.491677e-004
3.371015e+003,3.746636e-004
3.372944e+003,2.442896e-004
3.374872e+003,2.059564e-004
3.376801e+003,2.312846e-004
3.378729e+003,1.501553e-004
3.380658e+003,1.380444e-004
3.382586e+003,1.701973e-004
3.384515e+003,1.460351e-004
3.386443e+003,5.089119e-005
3.388372e+003,-1.782924e-005
3.390300e+003,3.063306e-005
3.392229e+003,1.422279e-004
3.394157e+003,1.144931e-004
3.396086e+003,1.426823e-004
3.398014e+003,1.519658e-004
3.399943e+003,1.311600e-004
3.401871e+003,1.852140e-004
3.403800e+003,1.844093e-004
3.405728e+003,1.709163e-004
3.407657e+003,9.228289e-005
3.409585e+003,4.642829e-005
3.411514e+003,4.646927e-005
3.413442e+003,9.983778e-006
3.415371e+003,1.863018e-005
3.417299e+003,-6.755441e-005
3.419228e+003,-8.230656e-005
3.421156e+003,6.837770e-005
3.423085e+003,1.328886e-004
3.425013e+003,9.150803e-005
3.426942e+003,8.242205e-005
3.428870e+003,7.484108e-005
3.430799e+003,4.367903e-005
3.432727e+003,5.729869e-005
3.434656e+003,4.746020e-005
3.436584e+003,4.594401e-005
3.438513e+003,8.697063e-005
3.440441e+003,8.135289e-005
3.442370e+003,6.537884e-006
3.444298e+003,-1.053289e-004
3.446227e+003,-1.933947e-004
3.448155e+003,-2.488047e-004
3.450084e+003,-2.371855e-004
3.452012e+003,-2.050325e-004
3.453941e+003,-1.772009e-004
3.455869e+003,-1.994297e-004
3.457798e+003,-2.689511e-004
3.459726e+003,-2.647676e-004
3.461655e+003,-2.810471e-004
3.463583e+003,-3.551133e-004
3.465512e+003,-3.776252e-004
3.467440e+003,-3.851168e-004
3.469369e+003,-4.418194e-004
3.471297e+003,-4.524477e-004
3.473226e+003,-4.450418e-004
3.475154e+003,-4.972443e-004
3.477083e+003,-4.753582e-004
3.479011e+003,-4.728362e-004
3.480940e+003,-4.690066e-004
3.482868e+003,-4.358888e-004
3.484797e+003,-5.407520e-004
3.486725e+003,-5.662702e-004
3.488654e+003,-5.000196e-004
3.490582e+003,-5.409233e-004
3.492511e+003,-6.342717e-004
3.494439e+003,-6.452091e-004
3.496368e+003,-5.974993e-004
3.498296e+003,-6.835051e-004
3.500225e+003,-6.362535e-004
3.502153e+003,-3.790259e-004
3.504082e+003,-4.274696e-004
3.506010e+003,-7.213242e-004
3.507939e+003,-7.061139e-004
3.509867e+003,-6.648675e-004
3.511796e+003,-7.009767e-004
3.513724e+003,-7.455312e-004
3.515653e+003,-8.357689e-004
3.517581e+003,-8.889772e-004
3.519510e+003,-9.344295e-004
3.521438e+003,-1.007114e-003
3.523367e+003,-9.162985e-004
3.525295e+003,-7.859878e-004
3.527224e+003,-7.115714e-004
3.529152e+003,-8.396618e-004
3.531081e+003,-1.108546e-003
3.533009e+003,-1.167435e-003
3.534938e+003,-9.534918e-004
3.536866e+003,-9.681582e-004
3.538795e+003,-1.142181e-003
3.540723e+003,-1.190107e-003
3.542652e+003,-1.000647e-003
3.544580e+003,-7.214472e-004
3.546509e+003,-8.815713e-004
3.548437e+003,-1.232296e-003
3.550366e+003,-1.309145e-003
3.552294e+003,-1.086239e-003
3.554223e+003,-1.149271e-003
3.556151e+003,-1.304317e-003
3.558080e+003,-1.331311e-003
3.560008e+003,-1.277711e-003
3.561937e+003,-1.379058e-003
3.563865e+003,-1.037616e-003
3.565794e+003,-2.104454e-004
3.567722e+003,-3.388934e-004
3.569651e+003,-1.035281e-003
3.571579e+003,-1.282718e-003
3.573508e+003,-1.439087e-003
3.575436e+003,-1.538709e-003
3.577365e+003,-1.399204e-003
3.579293e+003,-1.261849e-003
3.581222e+003,-1.391154e-003
3.583150e+003,-1.282543e-003
3.585079e+003,-6.920323e-004
3.587007e+003,-5.320460e-005
3.588936e+003,-2.851710e-004
3.590864e+003,-3.978163e-004
3.592793e+003,-1.470670e-004
3.594721e+003,4.809350e-006
3.596650e+003,2.858639e-004
3.598578e+003,8.273534e-004
3.600507e+003,1.393523e-003
3.602435e+003,1.447573e-003
3.604364e+003,1.484659e-003
3.606292e+003,1.752961e-003
3.608221e+003,1.611430e-003
3.610149e+003,1.121532e-003
3.612078e+003,9.866096e-004
3.614006e+003,6.612875e-004
3.615935e+003,3.872588e-004
3.617863e+003,7.920079e-004
3.619792e+003,7.733963e-004
3.621720e+003,-6.019697e-005
3.623649e+003,-4.835986e-004
3.625577e+003,-1.871325e-004
3.627506e+003,1.157019e-003
3.629434e+003,1.495592e-003
3.631363e+003,3.023259e-004
3.633291e+003,2.205037e-004
3.635220e+003,1.678243e-005
3.637148e+003,-5.681440e-005
3.639077e+003,-3.144518e-005
3.641005e+003,6.638467e-006
3.642934e+003,-1.154095e-004
3.644862e+003,1.089759e-004
3.646791e+003,1.519490e-003
3.648719e+003,2.378795e-003
3.650648e+003,1.326092e-003
3.652576e+003,1.078434e-004
3.654505e+003,9.665266e-005
3.656433e+003,-1.932308e-005
3.658362e+003,-6.625168e-004
3.660290e+003,-7.774681e-004
3.662219e+003,-7.464737e-004
3.664147e+003,-8.066185e-004
3.666076e+003,-5.817786e-004
3.668004e+003,4.386343e-004
3.669933e+003,1.008548e-003
3.671861e+003,2.275817e-004
3.673790e+003,1.162421e-003
3.675718e+003,2.413943e-003
3.677647e+003,7.012002e-004
3.679575e+003,6.715953e-005
3.681504e+003,-5.475469e-004
3.683432e+003,-8.197986e-004
3.685361e+003,-6.526150e-004
3.687289e+003,2.807714e-004
3.689218e+003,9.748340e-004
3.691146e+003,2.320111e-004
3.693075e+003,-3.111474e-004
3.695003e+003,-5.166158e-004
3.696932e+003,-7.049553e-004
3.698860e+003,-7.842556e-004
3.700789e+003,-2.003908e-004
3.702717e+003,-1.413003e-004
3.704646e+003,-3.876388e-004
3.706574e+003,-2.643503e-004
3.708503e+003,8.289516e-005
3.710431e+003,8.877665e-004
3.712360e+003,9.894073e-004
3.714288e+003,2.069436e-004
3.716217e+003,-1.596212e-004
3.718145e+003,-1.698174e-004
3.720074e+003,1.761578e-004
3.722002e+003,5.517229e-004
3.723931e+003,4.444234e-004
3.725859e+003,4.092827e-004
3.727788e+003,2.160668e-005
3.729716e+003,1.769513e-006
3.731645e+003,4.099458e-004
3.733573e+003,1.208805e-003
3.735502e+003,2.497647e-003
3.737430e+003,1.293030e-003
3.739359e+003,4.308037e-004
3.741287e+003,5.431734e-004
3.743216e+003,1.660947e-003
3.745144e+003,1.722358e-003
3.747073e+003,1.296200e-003
3.749001e+003,2.570812e-003
3.750930e+003,2.745096e-003
3.752858e+003,1.143541e-003
3.754787e+003,1.905262e-004
3.756715e+003,2.334379e-004
3.758644e+003,5.072914e-004
3.760572e+003,2.423413e-004
3.762501e+003,-1.408271e-004
3.764429e+003,-3.312901e-005
3.766358e+003,3.306940e-005
3.768286e+003,2.978183e-004
3.770215e+003,3.750995e-004
3.772143e+003,-1.626462e-004
3.774072e+003,-3.038943e-004
3.776000e+003,-1.660213e-004
3.777929e+003,2.831295e-004
3.779857e+003,2.937503e-004
3.781786e+003,-1.113117e-004
3.783714e+003,2.448782e-004
3.785643e+003,2.369732e-004
3.787571e+003,1.674891e-005
3.789500e+003,-1.911074e-006
3.791428e+003,-1.002103e-006
3.793357e+003,8.564442e-005
3.795285e+003,3.945008e-004
3.797214e+003,4.145615e-004
3.799142e+003,8.650012e-004
3.801071e+003,1.700487e-003
3.802999e+003,7.237606e-004
3.804927e+003,6.351992e-004
3.806856e+003,1.059096e-003
3.808785e+003,5.121455e-004
3.810713e+003,3.670305e-004
3.812642e+003,3.720187e-004
3.814570e+003,9.725280e-004
3.816499e+003,1.138207e-003
3.818427e+003,9.453595e-004
3.820355e+003,2.021540e-003
3.822284e+003,1.398608e-003
3.824213e+003,7.709563e-004
3.826141e+003,7.681698e-004
3.828070e+003,3.663264e-004
3.829998e+003,4.095770e-004
3.831927e+003,6.702319e-004
3.833855e+003,7.839948e-004
3.835783e+003,1.262676e-003
3.837712e+003,1.844592e-003
3.839641e+003,1.666695e-003
3.841569e+003,1.218285e-003
3.843498e+003,8.909367e-004
3.845426e+003,5.226620e-004
3.847354e+003,4.693009e-004
3.849283e+003,6.870367e-004
3.851211e+003,1.737468e-003
3.853140e+003,3.753897e-003
3.855069e+003,2.062224e-003
3.856997e+003,9.876341e-004
3.858926e+003,5.012341e-004
3.860854e+003,8.080192e-004
3.862782e+003,1.260206e-003
3.864711e+003,1.377568e-003
3.866640e+003,1.060694e-003
3.868568e+003,1.868829e-003
3.870497e+003,2.206475e-003
3.872425e+003,1.643959e-003
3.874354e+003,1.488458e-003
3.876282e+003,9.562969e-004
3.878210e+003,1.083978e-003
3.880139e+003,1.490969e-003
3.882068e+003,1.033738e-003
3.883996e+003,1.001995e-003
3.885925e+003,1.131140e-003
3.887853e+003,6.622188e-004
3.889781e+003,8.340292e-004
3.891710e+003,1.113635e-003
3.893638e+003,7.873699e-004
3.895567e+003,5.826466e-004
3.897496e+003,8.042157e-004
3.899424e+003,1.220759e-003
3.901353e+003,1.345720e-003
3.903281e+003,1.811985e-003
3.905209e+003,1.540691e-003
3.907138e+003,9.047613e-004
3.909066e+003,7.202327e-004
3.910995e+003,6.919652e-004
3.912924e+003,6.936640e-004
3.914852e+003,9.517856e-004
3.916781e+003,1.388513e-003
3.918709e+003,1.455214e-003
3.920637e+003,1.227390e-003
3.922566e+003,1.143824e-003
3.924494e+003,1.147892e-003
3.926423e+003,9.054989e-004
3.928352e+003,1.012702e-003
3.930280e+003,1.082078e-003
3.932208e+003,8.885525e-004
3.934137e+003,5.528256e-004
3.936065e+003,4.331097e-004
3.937994e+003,3.756545e-004
3.939922e+003,4.189685e-004
3.941851e+003,6.518327e-004
3.943780e+003,5.757585e-004
3.945708e+003,4.795007e-004
3.947636e+003,6.016940e-004
3.949565e+003,6.538853e-004
3.951493e+003,4.692189e-004
3.953422e+003,2.100058e-004
3.955351e+003,2.267398e-004
3.957279e+003,3.040060e-004
3.959208e+003,2.578050e-004
3.961136e+003,2.767481e-004
3.963064e+003,3.081746e-004
3.964993e+003,3.008433e-004
3.966921e+003,2.261885e-004
3.968850e+003,3.221296e-004
3.970779e+003,3.501028e-004
3.972707e+003,4.315302e-004
3.974635e+003,5.630776e-004
3.976564e+003,5.537942e-004
3.978492e+003,3.903955e-004
3.980421e+003,4.097559e-004
3.982349e+003,4.510619e-004
3.984278e+003,3.802143e-004
3.986207e+003,3.459901e-004
3.988135e+003,3.675409e-004
3.990063e+003,2.789274e-004
3.991992e+003,2.523884e-004
3.993920e+003,2.892166e-004
3.995849e+003,3.003851e-004
3.997777e+003,1.907796e-004
3.999706e+003,1.137741e-004
4.001635e+003,0.000000e+000
