3.991992e+002,0.000000e+000
4.011277e+002,0.000000e+000
4.030562e+002,0.000000e+000
4.049846e+002,0.000000e+000
4.069131e+002,0.000000e+000
4.088416e+002,0.000000e+000
4.107701e+002,0.000000e+000
4.126986e+002,0.000000e+000
4.146271e+002,0.000000e+000
4.165556e+002,0.000000e+000
4.184841e+002,0.000000e+000
4.204126e+002,0.000000e+000
4.223411e+002,0.000000e+000
4.242697e+002,0.000000e+000
4.261982e+002,0.000000e+000
4.281266e+002,0.000000e+000
4.300551e+002,0.000000e+000
4.319836e+002,0.000000e+000
4.339121e+002,0.000000e+000
4.358406e+002,0.000000e+000
4.377691e+002,0.000000e+000
4.396976e+002,0.000000e+000
4.416261e+002,0.000000e+000
4.435546e+002,0.000000e+000
4.454831e+002,0.000000e+000
4.474116e+002,0.000000e+000
4.493401e+002,0.000000e+000
4.512686e+002,0.000000e+000
4.531971e+002,0.000000e+000
4.551256e+002,0.000000e+000
4.570541e+002,0.000000e+000
4.589826e+002,0.000000e+000
4.609111e+002,0.000000e+000
4.628396e+002,0.000000e+000
4.647681e+002,0.000000e+000
4.666966e+002,0.000000e+000
4.686251e+002,0.000000e+000
4.705536e+002,0.000000e+000
4.724821e+002,0.000000e+000
4.744106e+002,0.000000e+000
4.763391e+002,0.000000e+000
4.782676e+002,0.000000e+000
4.801961e+002,0.000000e+000
4.821246e+002,0.000000e+000
4.840531e+002,0.000000e+000
4.859816e+002,0.000000e+000
4.879101e+002,0.000000e+000
4.898386e+002,0.000000e+000
4.917671e+002,0.000000e+000
4.936956e+002,0.000000e+000
4.956241e+002,0.000000e+000
4.975526e+002,0.000000e+000
4.994811e+002,0.000000e+000
5.014096e+002,0.000000e+000
5.033381e+002,0.000000e+000
5.052666e+002,0.000000e+000
5.071951e+002,0.000000e+000
5.091236e+002,0.000000e+000
5.110521e+002,0.000000e+000
5.129806e+002,0.000000e+000
5.149091e+002,0.000000e+000
5.168376e+002,0.000000e+000
5.187661e+002,0.000000e+000
5.206946e+002,0.000000e+000
5.226230e+002,0.000000e+000
5.245516e+002,-1.091890e-003
5.264800e+002,-1.290636e-003
5.284086e+002,-1.261762e-003
5.303370e+002,-1.119839e-003
5.322656e+002,-1.048036e-003
5.341940e+002,-1.119950e-003
5.361226e+002,-1.157022e-003
5.380510e+002,-1.276485e-003
5.399796e+002,-1.283952e-003
5.419081e+002,-1.233387e-003
5.438365e+002,-1.248658e-003
5.457650e+002,-1.280564e-003
5.476935e+002,-1.176652e-003
5.496221e+002,-1.026832e-003
5.515505e+002,-9.289626e-004
5.534790e+002,-8.262619e-004
5.554075e+002,-8.358480e-004
5.573361e+002,-1.017269e-003
5.592645e+002,-1.045349e-003
5.611931e+002,-1.040614e-003
5.631215e+002,-1.073801e-003
5.650500e+002,-1.090637e-003
5.669785e+002,-1.059062e-003
5.689070e+002,-1.012777e-003
5.708355e+002,-9.687822e-004
5.727640e+002,-1.014968e-003
5.746925e+002,-1.042546e-003
5.766210e+002,-1.054530e-003
5.785495e+002,-1.086242e-003
5.804780e+002,-1.118535e-003
5.824065e+002,-9.913631e-004
5.843350e+002,-8.869320e-004
5.862635e+002,-8.519618e-004
5.881920e+002,-9.024246e-004
5.901205e+002,-8.574324e-004
5.920490e+002,-8.687489e-004
5.939775e+002,-8.955868e-004
5.959060e+002,-8.744244e-004
5.978345e+002,-7.552998e-004
5.997630e+002,-7.594684e-004
6.016915e+002,-7.252106e-004
6.036200e+002,-7.027257e-004
6.055485e+002,-6.466620e-004
6.074770e+002,-6.111609e-004
6.094055e+002,-5.656108e-004
6.113340e+002,-5.734870e-004
6.132625e+002,-6.135069e-004
6.151910e+002,-6.763162e-004
6.171195e+002,-6.643357e-004
6.190480e+002,-5.995026e-004
6.209765e+002,-4.385663e-004
6.229050e+002,-3.710268e-004
6.248335e+002,-3.396561e-004
6.267620e+002,-2.946286e-004
6.286905e+002,-2.177469e-004
6.306190e+002,-2.479190e-004
6.325475e+002,-2.127970e-004
6.344760e+002,-1.740046e-004
6.364045e+002,-9.016879e-005
6.383330e+002,-8.170493e-005
6.402615e+002,-6.309897e-005
6.421899e+002,-8.111447e-005
6.441185e+002,-2.307445e-005
6.460470e+002,3.936980e-005
6.479755e+002,1.208000e-004
6.499039e+002,1.611970e-004
6.518325e+002,1.664609e-004
6.537610e+002,1.606839e-004
6.556895e+002,2.610367e-004
6.576179e+002,2.716677e-004
6.595464e+002,3.313115e-004
6.614750e+002,3.663115e-004
6.634034e+002,4.275655e-004
6.653319e+002,4.332438e-004
6.672604e+002,6.569047e-004
6.691890e+002,7.402068e-004
6.711174e+002,7.518260e-004
6.730460e+002,7.837554e-004
6.749745e+002,8.965293e-004
6.769030e+002,1.037698e-003
6.788314e+002,1.269543e-003
6.807599e+002,1.382483e-003
6.826885e+002,1.589205e-003
6.846169e+002,1.823911e-003
6.865454e+002,1.936112e-003
6.884739e+002,1.927928e-003
6.904025e+002,2.201859e-003
6.923309e+002,2.529058e-003
6.942594e+002,2.899691e-003
6.961879e+002,3.211902e-003
6.981165e+002,3.757188e-003
7.000449e+002,4.523356e-003
7.019734e+002,5.563023e-003
7.039019e+002,6.742131e-003
7.058304e+002,8.452978e-003
7.077589e+002,1.073238e-002
7.096874e+002,1.435113e-002
7.116159e+002,2.042823e-002
7.135444e+002,3.235760e-002
7.154729e+002,5.350474e-002
7.174014e+002,8.132240e-002
7.193299e+002,8.747639e-002
7.212584e+002,5.623484e-002
7.231869e+002,3.156331e-002
7.251154e+002,2.562821e-002
7.270439e+002,3.238460e-002
7.289724e+002,5.064286e-002
7.309009e+002,5.351425e-002
7.328294e+002,2.908592e-002
7.347579e+002,1.090453e-002
7.366864e+002,4.921526e-003
7.386149e+002,2.827749e-003
7.405434e+002,1.700507e-003
7.424719e+002,1.198842e-003
7.444004e+002,8.665286e-004
7.463289e+002,6.794538e-004
7.482574e+002,4.357314e-004
7.501859e+002,2.774335e-004
7.521144e+002,1.445776e-004
7.540428e+002,9.703171e-005
7.559714e+002,-7.432885e-006
7.578999e+002,-7.920153e-005
7.598284e+002,-1.044692e-004
7.617568e+002,-1.308685e-004
7.636854e+002,-2.050372e-004
7.656139e+002,-2.323603e-004
7.675424e+002,-1.904061e-004
7.694709e+002,-1.319777e-004
7.713994e+002,-1.860028e-004
7.733279e+002,-2.886783e-004
7.752563e+002,-2.330653e-004
7.771849e+002,-1.412062e-004
7.791134e+002,-2.105432e-004
7.810419e+002,-2.306290e-004
7.829703e+002,-1.978390e-004
7.848989e+002,-1.386134e-004
7.868274e+002,-5.972013e-005
7.887559e+002,1.633167e-005
7.906843e+002,6.817002e-005
7.926129e+002,2.174424e-004
7.945414e+002,3.169226e-004
7.964698e+002,4.436197e-004
7.983983e+002,5.464088e-004
8.003268e+002,5.763173e-004
8.022554e+002,5.549565e-004
8.041838e+002,5.727522e-004
8.061123e+002,5.370323e-004
8.080408e+002,5.289102e-004
8.099694e+002,5.319249e-004
8.118978e+002,5.094074e-004
8.138263e+002,4.635071e-004
8.157548e+002,4.010275e-004
8.176833e+002,4.067551e-004
8.196118e+002,4.242240e-004
8.215403e+002,3.774865e-004
8.234689e+002,2.855984e-004
8.253973e+002,1.917919e-004
8.273258e+002,1.287824e-004
8.292543e+002,6.208010e-005
8.311829e+002,-8.392148e-006
8.331113e+002,-8.030143e-005
8.350398e+002,-1.039766e-004
8.369683e+002,-8.414220e-005
8.388969e+002,-5.055498e-005
8.408253e+002,-8.327235e-005
8.427538e+002,-6.412063e-005
8.446823e+002,-3.643055e-005
8.466108e+002,-8.765794e-005
8.485393e+002,-8.563977e-005
8.504678e+002,-5.976204e-005
8.523963e+002,-4.409906e-005
8.543248e+002,2.937764e-005
8.562533e+002,5.199574e-005
8.581818e+002,1.562573e-005
8.601103e+002,3.362074e-005
8.620388e+002,4.905369e-005
8.639673e+002,5.099177e-005
8.658958e+002,4.185736e-005
8.678243e+002,1.765043e-005
8.697528e+002,3.327150e-005
8.716813e+002,1.024092e-004
8.736098e+002,1.359861e-004
8.755383e+002,1.389226e-004
8.774668e+002,2.014507e-004
8.793953e+002,2.938043e-004
8.813238e+002,2.791993e-004
8.832523e+002,2.502790e-004
8.851808e+002,3.198832e-004
8.871093e+002,4.061796e-004
8.890378e+002,4.092902e-004
8.909663e+002,4.387964e-004
8.928948e+002,4.788842e-004
8.948232e+002,5.184095e-004
8.967518e+002,5.767364e-004
8.986803e+002,6.933119e-004
9.006088e+002,8.545173e-004
9.025372e+002,1.128408e-003
9.044658e+002,1.606148e-003
9.063943e+002,2.365744e-003
9.083228e+002,2.775021e-003
9.102512e+002,2.440976e-003
9.121797e+002,1.682950e-003
9.141083e+002,1.041904e-003
9.160367e+002,6.709006e-004
9.179653e+002,5.217735e-004
9.198937e+002,3.964938e-004
9.218223e+002,3.748331e-004
9.237507e+002,4.116204e-004
9.256793e+002,4.648184e-004
9.276077e+002,4.519094e-004
9.295363e+002,4.582992e-004
9.314647e+002,4.863627e-004
9.333932e+002,4.701531e-004
9.353217e+002,4.545674e-004
9.372502e+002,4.452495e-004
9.391787e+002,4.261574e-004
9.411072e+002,4.309230e-004
9.430358e+002,4.751813e-004
9.449642e+002,5.389871e-004
9.468928e+002,5.686758e-004
9.488212e+002,5.300781e-004
9.507498e+002,5.278978e-004
9.526782e+002,6.339066e-004
9.546068e+002,7.107314e-004
9.565352e+002,7.681418e-004
9.584637e+002,8.695759e-004
9.603922e+002,9.732945e-004
9.623207e+002,9.813560e-004
9.642492e+002,9.790426e-004
9.661777e+002,9.596832e-004
9.681062e+002,9.814762e-004
9.700347e+002,1.002875e-003
9.719632e+002,9.523137e-004
9.738917e+002,9.251256e-004
9.758202e+002,9.335782e-004
9.777487e+002,9.202547e-004
9.796772e+002,9.582574e-004
9.816057e+002,9.874534e-004
9.835342e+002,1.064938e-003
9.854627e+002,1.233644e-003
9.873912e+002,1.483690e-003
9.893197e+002,1.666393e-003
9.912482e+002,1.714060e-003
9.931767e+002,1.667569e-003
9.951052e+002,1.615135e-003
9.970337e+002,1.520135e-003
9.989622e+002,1.482387e-003
1.000891e+003,1.490308e-003
1.002819e+003,1.597760e-003
1.004748e+003,1.724144e-003
1.006676e+003,1.851025e-003
1.008605e+003,2.015285e-003
1.010533e+003,2.223304e-003
1.012462e+003,2.369195e-003
1.014390e+003,2.532530e-003
1.016319e+003,2.702273e-003
1.018247e+003,2.847593e-003
1.020176e+003,2.875512e-003
1.022104e+003,2.860401e-003
1.024033e+003,2.796804e-003
1.025961e+003,2.801572e-003
1.027890e+003,2.824795e-003
1.029818e+003,2.840064e-003
1.031747e+003,2.839912e-003
1.033675e+003,2.851099e-003
1.035604e+003,2.850985e-003
1.037532e+003,2.912544e-003
1.039461e+003,2.950581e-003
1.041389e+003,2.961824e-003
1.043318e+003,2.932600e-003
1.045246e+003,2.977591e-003
1.047175e+003,3.062129e-003
1.049103e+003,3.200430e-003
1.051032e+003,3.311346e-003
1.052960e+003,3.302773e-003
1.054889e+003,3.239863e-003
1.056817e+003,3.179757e-003
1.058746e+003,3.194882e-003
1.060674e+003,3.278659e-003
1.062603e+003,3.319194e-003
1.064531e+003,3.334558e-003
1.066460e+003,3.344512e-003
1.068388e+003,3.418708e-003
1.070317e+003,3.475023e-003
1.072245e+003,3.544308e-003
1.074174e+003,3.652602e-003
1.076102e+003,3.817266e-003
1.078031e+003,3.946956e-003
1.079959e+003,4.039727e-003
1.081888e+003,4.089192e-003
1.083816e+003,4.140548e-003
1.085745e+003,4.087359e-003
1.087673e+003,4.020415e-003
1.089602e+003,3.979970e-003
1.091530e+003,3.963964e-003
1.093459e+003,3.967384e-003
1.095387e+003,3.967630e-003
1.097316e+003,3.932441e-003
1.099244e+003,3.980147e-003
1.101173e+003,4.010219e-003
1.103101e+003,4.012542e-003
1.105030e+003,3.991099e-003
1.106958e+003,3.965750e-003
1.108887e+003,3.888261e-003
1.110815e+003,3.809435e-003
1.112744e+003,3.738957e-003
1.114672e+003,3.677635e-003
1.116601e+003,3.557568e-003
1.118529e+003,3.418658e-003
1.120458e+003,3.305424e-003
1.122386e+003,3.280044e-003
1.124315e+003,3.235441e-003
1.126243e+003,3.163803e-003
1.128172e+003,3.081638e-003
1.130100e+003,3.048075e-003
1.132029e+003,3.033435e-003
1.133957e+003,3.064530e-003
1.135885e+003,3.061356e-003
1.137814e+003,3.065187e-003
1.139743e+003,3.114341e-003
1.141671e+003,3.218146e-003
1.143600e+003,3.362047e-003
1.145528e+003,3.613491e-003
1.147457e+003,3.877215e-003
1.149385e+003,4.197570e-003
1.151314e+003,4.570710e-003
1.153242e+003,4.931610e-003
1.155171e+003,5.114364e-003
1.157099e+003,5.207226e-003
1.159028e+003,5.202215e-003
1.160956e+003,5.174227e-003
1.162885e+003,5.126826e-003
1.164813e+003,5.058492e-003
1.166742e+003,4.892245e-003
1.168670e+003,4.689630e-003
1.170599e+003,4.436674e-003
1.172527e+003,4.258880e-003
1.174456e+003,4.154762e-003
1.176384e+003,4.032323e-003
1.178313e+003,3.717432e-003
1.180241e+003,3.453890e-003
1.182170e+003,3.315292e-003
1.184098e+003,3.317837e-003
1.186027e+003,3.350539e-003
1.187955e+003,3.393387e-003
1.189884e+003,3.407422e-003
1.191812e+003,3.475076e-003
1.193740e+003,3.523447e-003
1.195669e+003,3.630707e-003
1.197598e+003,3.738597e-003
1.199526e+003,3.896588e-003
1.201455e+003,4.086033e-003
1.203383e+003,4.359825e-003
1.205312e+003,4.618116e-003
1.207240e+003,4.847897e-003
1.209168e+003,5.015792e-003
1.211097e+003,5.157813e-003
1.213026e+003,5.251052e-003
1.214954e+003,5.359627e-003
1.216883e+003,5.464328e-003
1.218811e+003,5.582782e-003
1.220740e+003,5.673535e-003
1.222668e+003,5.814852e-003
1.224596e+003,5.956696e-003
1.226525e+003,6.081967e-003
1.228453e+003,6.148646e-003
1.230382e+003,6.238569e-003
1.232311e+003,6.364996e-003
1.234239e+003,6.502220e-003
1.236167e+003,6.544031e-003
1.238096e+003,6.652746e-003
1.240025e+003,6.751731e-003
1.241953e+003,6.791117e-003
1.243882e+003,6.755617e-003
1.245810e+003,6.690271e-003
1.247739e+003,6.562453e-003
1.249667e+003,6.458666e-003
1.251595e+003,6.283756e-003
1.253524e+003,6.125975e-003
1.255453e+003,5.991301e-003
1.257381e+003,5.929425e-003
1.259310e+003,5.876437e-003
1.261238e+003,5.804930e-003
1.263167e+003,5.577477e-003
1.265095e+003,5.251011e-003
1.267023e+003,4.854547e-003
1.268952e+003,4.560791e-003
1.270880e+003,4.365310e-003
1.272809e+003,4.248887e-003
1.274738e+003,4.114749e-003
1.276666e+003,4.071852e-003
1.278594e+003,4.033830e-003
1.280523e+003,4.074581e-003
1.282451e+003,4.119765e-003
1.284380e+003,4.212817e-003
1.286308e+003,4.268548e-003
1.288237e+003,4.365329e-003
1.290166e+003,4.482748e-003
1.292094e+003,4.667776e-003
1.294022e+003,4.806207e-003
1.295951e+003,4.985802e-003
1.297879e+003,5.080402e-003
1.299808e+003,5.170356e-003
1.301736e+003,5.213292e-003
1.303665e+003,5.267626e-003
1.305594e+003,5.242873e-003
1.307522e+003,5.198872e-003
1.309450e+003,5.060270e-003
1.311379e+003,4.947444e-003
1.313307e+003,4.705692e-003
1.315236e+003,4.514500e-003
1.317164e+003,4.367098e-003
1.319093e+003,4.205640e-003
1.321021e+003,3.959237e-003
1.322950e+003,3.843766e-003
1.324878e+003,3.732074e-003
1.326807e+003,3.701758e-003
1.328735e+003,3.647733e-003
1.330664e+003,3.665954e-003
1.332592e+003,3.762217e-003
1.334521e+003,3.984300e-003
1.336449e+003,4.249161e-003
1.338378e+003,4.680274e-003
1.340306e+003,4.889289e-003
1.342235e+003,4.959926e-003
1.344163e+003,5.201539e-003
1.346092e+003,5.571842e-003
1.348021e+003,5.847812e-003
1.349949e+003,6.154625e-003
1.351877e+003,6.304936e-003
1.353806e+003,6.343957e-003
1.355734e+003,6.183948e-003
1.357663e+003,6.184699e-003
1.359591e+003,6.370753e-003
1.361520e+003,6.881503e-003
1.363448e+003,7.361809e-003
1.365377e+003,7.714020e-003
1.367305e+003,8.003561e-003
1.369234e+003,7.908529e-003
1.371162e+003,7.298660e-003
1.373091e+003,6.722605e-003
1.375019e+003,6.045839e-003
1.376948e+003,5.667424e-003
1.378876e+003,5.186105e-003
1.380805e+003,4.660854e-003
1.382733e+003,4.259530e-003
1.384662e+003,4.149579e-003
1.386590e+003,4.130213e-003
1.388519e+003,4.044805e-003
1.390447e+003,3.896585e-003
1.392376e+003,4.032461e-003
1.394304e+003,4.192550e-003
1.396233e+003,4.274115e-003
1.398161e+003,4.210094e-003
1.400090e+003,4.206678e-003
1.402018e+003,4.104530e-003
1.403947e+003,4.317781e-003
1.405875e+003,4.371613e-003
1.407804e+003,4.502196e-003
1.409732e+003,4.604850e-003
1.411661e+003,4.805475e-003
1.413589e+003,4.882257e-003
1.415518e+003,5.238509e-003
1.417446e+003,5.611960e-003
1.419375e+003,6.052427e-003
1.421303e+003,6.035520e-003
1.423232e+003,6.557764e-003
1.425160e+003,7.119861e-003
1.427089e+003,7.949853e-003
1.429017e+003,9.086631e-003
1.430946e+003,1.065068e-002
1.432874e+003,1.173612e-002
1.434803e+003,1.295003e-002
1.436731e+003,1.414888e-002
1.438660e+003,1.509092e-002
1.440588e+003,1.562156e-002
1.442517e+003,1.647370e-002
1.444445e+003,1.715070e-002
1.446374e+003,1.831384e-002
1.448302e+003,1.977892e-002
1.450231e+003,2.208844e-002
1.452159e+003,2.566706e-002
1.454088e+003,3.070177e-002
1.456016e+003,3.716132e-002
1.457945e+003,6.052808e-002
1.459873e+003,1.030407e-001
1.461802e+003,1.321182e-001
1.463730e+003,1.134486e-001
1.465659e+003,7.469276e-002
1.467587e+003,7.093549e-002
1.469516e+003,8.068198e-002
1.471444e+003,1.062558e-001
1.473373e+003,9.849033e-002
1.475301e+003,4.999846e-002
1.477230e+003,1.862757e-002
1.479158e+003,1.004810e-002
1.481087e+003,6.666277e-003
1.483015e+003,5.261639e-003
1.484944e+003,4.280996e-003
1.486872e+003,4.309405e-003
1.488801e+003,3.954351e-003
1.490729e+003,3.883179e-003
1.492658e+003,3.114656e-003
1.494586e+003,3.288567e-003
1.496515e+003,3.133133e-003
1.498443e+003,3.293207e-003
1.500372e+003,2.876781e-003
1.502300e+003,2.911313e-003
1.504229e+003,2.936624e-003
1.506157e+003,4.070519e-003
1.508086e+003,3.557982e-003
1.510014e+003,3.242526e-003
1.511943e+003,2.825664e-003
1.513871e+003,3.036102e-003
1.515800e+003,3.205543e-003
1.517728e+003,3.409125e-003
1.519657e+003,3.361775e-003
1.521585e+003,3.864901e-003
1.523514e+003,3.352983e-003
1.525442e+003,3.552422e-003
1.527371e+003,3.266094e-003
1.529299e+003,3.158828e-003
1.531228e+003,3.159277e-003
1.533156e+003,3.633032e-003
1.535085e+003,3.391223e-003
1.537013e+003,3.646769e-003
1.538942e+003,4.226921e-003
1.540870e+003,4.794685e-003
1.542799e+003,4.149631e-003
1.544727e+003,3.802061e-003
1.546656e+003,3.206834e-003
1.548584e+003,3.295697e-003
1.550513e+003,3.159748e-003
1.552441e+003,3.197050e-003
1.554370e+003,3.187129e-003
1.556298e+003,3.406130e-003
1.558227e+003,3.879743e-003
1.560155e+003,3.065893e-003
1.562084e+003,2.498360e-003
1.564012e+003,2.474561e-003
1.565941e+003,2.268760e-003
1.567869e+003,2.516748e-003
1.569798e+003,2.584675e-003
1.571726e+003,2.339249e-003
1.573655e+003,2.313541e-003
1.575583e+003,2.646063e-003
1.577512e+003,2.410753e-003
1.579440e+003,2.227854e-003
1.581369e+003,2.145087e-003
1.583297e+003,2.199544e-003
1.585226e+003,2.158428e-003
1.587154e+003,2.175573e-003
1.589083e+003,2.125032e-003
1.591011e+003,2.119320e-003
1.592940e+003,2.021315e-003
1.594868e+003,2.117351e-003
1.596797e+003,2.083726e-003
1.598725e+003,2.110217e-003
1.600654e+003,2.150524e-003
1.602582e+003,2.261363e-003
1.604511e+003,2.211919e-003
1.606439e+003,2.266515e-003
1.608368e+003,2.315059e-003
1.610296e+003,2.415335e-003
1.612225e+003,2.393702e-003
1.614153e+003,2.623279e-003
1.616082e+003,2.970839e-003
1.618010e+003,2.895467e-003
1.619939e+003,2.742631e-003
1.621867e+003,3.027573e-003
1.623796e+003,3.175799e-003
1.625724e+003,3.262479e-003
1.627653e+003,3.378259e-003
1.629581e+003,3.390787e-003
1.631510e+003,3.423193e-003
1.633438e+003,3.791975e-003
1.635367e+003,4.413657e-003
1.637295e+003,4.369337e-003
1.639224e+003,4.234642e-003
1.641152e+003,4.297838e-003
1.643081e+003,4.290517e-003
1.645009e+003,4.610546e-003
1.646938e+003,4.839947e-003
1.648866e+003,4.396828e-003
1.650795e+003,4.363015e-003
1.652723e+003,4.928589e-003
1.654652e+003,4.144607e-003
1.656580e+003,3.726220e-003
1.658509e+003,3.428223e-003
1.660437e+003,3.444178e-003
1.662366e+003,3.514774e-003
1.664294e+003,3.201595e-003
1.666223e+003,2.995592e-003
1.668151e+003,3.237577e-003
1.670080e+003,3.107630e-003
1.672008e+003,2.808666e-003
1.673937e+003,2.708450e-003
1.675865e+003,2.568919e-003
1.677794e+003,2.416557e-003
1.679722e+003,2.508640e-003
1.681651e+003,2.576487e-003
1.683579e+003,3.149893e-003
1.685508e+003,2.303738e-003
1.687436e+003,2.008827e-003
1.689365e+003,1.776097e-003
1.691293e+003,1.619045e-003
1.693222e+003,1.741640e-003
1.695150e+003,2.185507e-003
1.697079e+003,2.228281e-003
1.699007e+003,2.479089e-003
1.700936e+003,1.912594e-003
1.702864e+003,1.636241e-003
1.704793e+003,1.717437e-003
1.706721e+003,1.591660e-003
1.708650e+003,1.372883e-003
1.710578e+003,1.396619e-003
1.712507e+003,1.531670e-003
1.714435e+003,2.030768e-003
1.716364e+003,2.389463e-003
1.718292e+003,2.123790e-003
1.720221e+003,1.545366e-003
1.722149e+003,1.565419e-003
1.724078e+003,1.535006e-003
1.726006e+003,1.574123e-003
1.727935e+003,1.719117e-003
1.729863e+003,1.949837e-003
1.731792e+003,2.169216e-003
1.733720e+003,2.703534e-003
1.735649e+003,2.253206e-003
1.737577e+003,2.261614e-003
1.739506e+003,2.309887e-003
1.741434e+003,2.178723e-003
1.743363e+003,2.179733e-003
1.745291e+003,2.182620e-003
1.747220e+003,2.199804e-003
1.749148e+003,2.216587e-003
1.751077e+003,1.776718e-003
1.753005e+003,1.211023e-003
1.754934e+003,9.361282e-004
1.756862e+003,7.534083e-004
1.758791e+003,4.716553e-004
1.760719e+003,5.582273e-004
1.762648e+003,2.903901e-004
1.764576e+003,1.115166e-004
1.766505e+003,1.582820e-004
1.768433e+003,3.089141e-004
1.770362e+003,5.076546e-004
1.772290e+003,6.444044e-004
1.774219e+003,5.803630e-005
1.776147e+003,-1.596380e-004
1.778076e+003,-1.345035e-004
1.780004e+003,1.069754e-004
1.781933e+003,3.132969e-005
1.783861e+003,5.402230e-005
1.785790e+003,-2.121646e-004
1.787718e+003,-2.441350e-004
1.789646e+003,5.852617e-005
1.791575e+003,5.022492e-004
1.793504e+003,1.786593e-004
1.795432e+003,-7.009134e-006
1.797361e+003,-1.842361e-004
1.799289e+003,-1.242720e-004
1.801218e+003,-7.026270e-005
1.803146e+003,-1.394767e-004
1.805074e+003,-3.381725e-004
1.807003e+003,-4.135575e-004
1.808932e+003,-4.389528e-004
1.810860e+003,-3.239885e-004
1.812789e+003,-5.760528e-004
1.814717e+003,-9.159762e-004
1.816646e+003,-9.888913e-004
1.818574e+003,-6.095096e-004
1.820502e+003,-5.683806e-004
1.822431e+003,-4.209038e-004
1.824360e+003,-3.792681e-004
1.826288e+003,-3.823694e-004
1.828217e+003,-3.221612e-004
1.830145e+003,-3.717635e-004
1.832073e+003,-7.996392e-004
1.834002e+003,-8.044504e-004
1.835931e+003,-8.720998e-004
1.837859e+003,-7.534139e-004
1.839788e+003,-8.183718e-004
1.841716e+003,-6.747320e-004
1.843645e+003,-4.046522e-004
1.845573e+003,-3.561992e-004
1.847501e+003,-6.703697e-004
1.849430e+003,-8.285698e-004
1.851359e+003,-9.769574e-004
1.853287e+003,-8.859709e-004
1.855216e+003,-1.030646e-003
1.857144e+003,-8.917097e-004
1.859073e+003,-9.075366e-004
1.861001e+003,-7.679444e-004
1.862929e+003,-8.140001e-004
1.864858e+003,-6.986484e-004
1.866787e+003,-3.800504e-004
1.868715e+003,6.372482e-005
1.870644e+003,-4.647784e-004
1.872572e+003,-7.668193e-004
1.874500e+003,-8.592773e-004
1.876429e+003,-7.461831e-004
1.878357e+003,-8.963905e-004
1.880286e+003,-8.248929e-004
1.882215e+003,-7.461552e-004
1.884143e+003,-6.493293e-004
1.886072e+003,-9.966046e-004
1.888000e+003,-6.202590e-004
1.889928e+003,-4.602373e-004
1.891857e+003,-4.440434e-004
1.893785e+003,-2.937037e-004
1.895714e+003,-9.589456e-005
1.897643e+003,-4.260279e-004
1.899571e+003,-3.121030e-004
1.901500e+003,-3.061201e-004
1.903428e+003,-3.001411e-004
1.905356e+003,-2.941713e-004
1.907285e+003,-2.882089e-004
1.909213e+003,-2.822522e-004
1.911142e+003,-2.763011e-004
1.913071e+003,-2.703611e-004
1.914999e+003,-2.644267e-004
1.916927e+003,-2.584960e-004
1.918856e+003,-2.525765e-004
1.920784e+003,-2.466626e-004
1.922713e+003,-2.407562e-004
1.924641e+003,-2.348572e-004
1.926570e+003,-2.289638e-004
1.928499e+003,-2.230797e-004
1.930427e+003,-2.171993e-004
1.932355e+003,-2.113301e-004
1.934284e+003,-2.054647e-004
1.936212e+003,-1.996066e-004
1.938141e+003,-1.937579e-004
1.940070e+003,-1.879130e-004
1.941998e+003,-1.820792e-004
1.943927e+003,-1.762491e-004
1.945855e+003,-1.704264e-004
1.947783e+003,-1.646131e-004
1.949712e+003,-1.588035e-004
1.951640e+003,-1.530033e-004
1.953569e+003,-1.472086e-004
1.955498e+003,-1.414232e-004
1.957426e+003,-1.356434e-004
1.959354e+003,-1.298711e-004
1.961283e+003,-1.241043e-004
1.963211e+003,-1.183469e-004
1.965140e+003,-1.125950e-004
1.967068e+003,-1.068488e-004
1.968997e+003,-1.011137e-004
1.970926e+003,-9.538233e-005
1.972854e+003,-8.966215e-005
1.974782e+003,-8.394383e-005
1.976711e+003,-7.823482e-005
1.978639e+003,-7.253513e-005
1.980568e+003,-6.683916e-005
1.982496e+003,-6.115250e-005
1.984425e+003,-5.547144e-005
1.986354e+003,-4.979782e-005
1.988282e+003,-4.413165e-005
1.990210e+003,-3.847107e-005
1.992139e+003,-3.281608e-005
1.994067e+003,-2.717227e-005
1.995996e+003,-2.153404e-005
1.997924e+003,-1.590513e-005
1.999853e+003,-1.027808e-005
2.001781e+003,-4.660338e-006
2.003710e+003,9.462237e-007
2.005638e+003,6.549060e-006
2.007567e+003,1.214445e-005
2.009495e+003,1.773611e-005
2.011424e+003,2.331845e-005
2.013352e+003,2.889149e-005
2.015281e+003,3.446080e-005
2.017209e+003,4.002079e-005
2.019138e+003,4.557520e-005
2.021066e+003,5.112030e-005
2.022995e+003,5.666167e-005
2.024923e+003,6.219372e-005
2.026852e+003,6.771833e-005
2.028781e+003,7.323734e-005
2.030709e+003,7.874891e-005
2.032637e+003,8.425117e-005
2.034566e+003,8.974783e-005
2.036494e+003,9.524077e-005
2.038423e+003,1.007225e-004
2.040351e+003,1.061987e-004
2.042280e+003,1.116674e-004
2.044208e+003,1.171287e-004
2.046137e+003,1.225825e-004
2.048065e+003,1.280308e-004
2.049994e+003,1.334697e-004
2.051922e+003,1.389030e-004
2.053851e+003,1.443326e-004
2.055779e+003,1.497529e-004
2.057708e+003,1.551639e-004
2.059636e+003,1.605693e-004
2.061565e+003,1.659691e-004
2.063493e+003,1.713578e-004
2.065422e+003,1.767427e-004
2.067350e+003,1.821183e-004
2.069279e+003,1.874901e-004
2.071207e+003,1.928508e-004
2.073136e+003,1.982097e-004
2.075064e+003,2.035573e-004
2.076993e+003,2.088975e-004
2.078921e+003,2.142321e-004
2.080850e+003,2.195593e-004
2.082778e+003,2.248771e-004
2.084707e+003,2.301950e-004
2.086635e+003,2.355017e-004
2.088564e+003,2.407990e-004
2.090492e+003,2.460927e-004
2.092421e+003,2.513770e-004
2.094349e+003,2.566539e-004
2.096278e+003,2.619252e-004
2.098206e+003,2.671927e-004
2.100135e+003,2.724491e-004
2.102063e+003,2.776980e-004
2.103992e+003,2.829432e-004
2.105920e+003,2.881773e-004
2.107849e+003,2.934057e-004
2.109777e+003,2.986249e-004
2.111706e+003,3.038421e-004
2.113634e+003,3.090501e-004
2.115563e+003,3.142506e-004
2.117491e+003,3.194436e-004
2.119420e+003,3.246292e-004
2.121348e+003,3.298093e-004
2.123277e+003,3.349781e-004
2.125205e+003,3.401432e-004
2.127134e+003,3.453027e-004
2.129062e+003,3.504567e-004
2.130991e+003,3.555976e-004
2.132919e+003,3.607348e-004
2.134848e+003,3.658663e-004
2.136776e+003,3.709868e-004
2.138705e+003,3.761034e-004
2.140633e+003,3.812127e-004
2.142562e+003,3.863163e-004
2.144490e+003,3.914107e-004
2.146419e+003,3.964975e-004
2.148347e+003,4.015788e-004
2.150276e+003,4.066508e-004
2.152204e+003,4.117172e-004
2.154133e+003,4.167762e-004
2.156061e+003,4.218314e-004
2.157990e+003,4.268773e-004
2.159918e+003,4.319120e-004
2.161847e+003,4.369412e-004
2.163775e+003,4.419647e-004
2.165704e+003,4.469827e-004
2.167632e+003,4.519895e-004
2.169561e+003,4.569925e-004
2.171489e+003,4.619900e-004
2.173418e+003,4.669800e-004
2.175346e+003,4.719608e-004
2.177275e+003,4.769359e-004
2.179203e+003,4.819036e-004
2.181132e+003,4.868619e-004
2.183060e+003,4.918166e-004
2.184989e+003,4.967619e-004
2.186917e+003,5.017035e-004
2.188846e+003,5.066358e-004
2.190774e+003,5.115587e-004
2.192703e+003,5.164761e-004
2.194631e+003,5.213879e-004
2.196560e+003,5.262922e-004
2.198488e+003,5.311873e-004
2.200417e+003,5.360804e-004
2.202345e+003,5.409606e-004
2.204274e+003,5.458388e-004
2.206202e+003,5.507059e-004
2.208131e+003,5.555674e-004
2.210059e+003,5.604178e-004
2.211988e+003,5.652681e-004
2.213916e+003,5.701073e-004
2.215845e+003,5.749390e-004
2.217773e+003,5.797669e-004
2.219702e+003,5.845875e-004
2.221630e+003,5.894005e-004
2.223559e+003,5.942024e-004
2.225487e+003,5.990006e-004
2.227416e+003,6.037932e-004
2.229344e+003,6.085746e-004
2.231273e+003,6.133541e-004
2.233201e+003,6.181262e-004
2.235130e+003,6.228872e-004
2.237058e+003,6.276444e-004
2.238987e+003,6.323885e-004
2.240915e+003,6.371308e-004
2.242844e+003,6.418638e-004
2.244772e+003,6.465968e-004
2.246701e+003,6.513111e-004
2.248629e+003,6.560255e-004
2.250558e+003,6.607343e-004
2.252486e+003,6.654318e-004
2.254415e+003,6.701220e-004
2.256343e+003,6.748084e-004
2.258272e+003,6.794874e-004
2.260200e+003,6.841533e-004
2.262129e+003,6.888211e-004
2.264057e+003,6.934777e-004
2.265986e+003,6.981269e-004
2.267914e+003,7.027686e-004
2.269843e+003,7.074010e-004
2.271771e+003,7.120334e-004
2.273700e+003,7.166527e-004
2.275628e+003,7.212721e-004
2.277557e+003,7.258765e-004
2.279485e+003,7.304773e-004
2.281414e+003,7.350706e-004
2.283342e+003,7.396545e-004
2.285271e+003,7.442348e-004
2.287199e+003,7.488038e-004
2.289128e+003,7.533748e-004
2.291056e+003,7.579308e-004
2.292985e+003,7.624831e-004
2.294913e+003,7.670224e-004
2.296842e+003,7.715598e-004
2.298770e+003,7.760916e-004
2.300699e+003,7.806104e-004
2.302627e+003,7.851291e-004
2.304556e+003,7.896386e-004
2.306484e+003,7.941388e-004
2.308413e+003,7.986315e-004
2.310341e+003,8.031204e-004
2.312270e+003,8.075982e-004
2.314198e+003,8.120723e-004
2.316127e+003,8.165352e-004
2.318055e+003,8.209944e-004
2.319984e+003,8.254461e-004
2.321912e+003,8.298922e-004
2.323841e+003,8.343328e-004
2.325769e+003,8.387640e-004
2.327698e+003,8.431859e-004
2.329626e+003,8.476041e-004
2.331555e+003,8.520093e-004
2.333483e+003,8.564144e-004
2.335412e+003,8.608121e-004
2.337340e+003,8.651949e-004
2.339269e+003,8.695778e-004
2.341197e+003,8.739550e-004
2.343126e+003,8.783210e-004
2.345054e+003,8.826777e-004
2.346983e+003,8.870307e-004
2.348911e+003,8.913800e-004
2.350840e+003,8.957162e-004
2.352768e+003,9.000506e-004
2.354697e+003,9.043738e-004
2.356625e+003,9.086914e-004
2.358554e+003,9.130016e-004
2.360482e+003,9.173043e-004
2.362411e+003,9.215996e-004
2.364339e+003,9.258930e-004
2.366268e+003,9.301752e-004
2.368196e+003,9.344500e-004
2.370125e+003,9.387154e-004
2.372053e+003,9.429771e-004
2.373982e+003,9.472314e-004
2.375910e+003,9.514801e-004
2.377839e+003,9.557214e-004
2.379767e+003,9.599533e-004
2.381696e+003,9.641759e-004
2.383624e+003,9.683985e-004
2.385553e+003,9.726118e-004
2.387481e+003,9.768121e-004
2.389410e+003,9.810124e-004
2.391338e+003,9.852052e-004
2.393267e+003,9.893905e-004
2.395195e+003,9.935610e-004
2.397124e+003,9.977333e-004
2.399052e+003,1.001894e-003
2.400981e+003,1.009531e-003
2.402909e+003,8.893143e-004
2.404838e+003,7.965490e-004
2.406766e+003,1.082640e-003
2.408695e+003,1.601700e-003
2.410623e+003,1.751846e-003
2.412552e+003,1.676429e-003
2.414480e+003,1.584936e-003
2.416409e+003,1.617914e-003
2.418337e+003,1.568276e-003
2.420266e+003,1.600852e-003
2.422194e+003,1.598759e-003
2.424123e+003,1.611738e-003
2.426051e+003,1.576498e-003
2.427979e+003,1.738163e-003
2.429908e+003,1.776477e-003
2.431837e+003,1.665400e-003
2.433765e+003,1.668982e-003
2.435694e+003,1.632828e-003
2.437622e+003,1.620011e-003
2.439551e+003,1.605917e-003
2.441479e+003,1.656521e-003
2.443407e+003,1.746964e-003
2.445336e+003,1.791243e-003
2.447265e+003,1.885084e-003
2.449193e+003,1.954127e-003
2.451122e+003,2.019012e-003
2.453050e+003,1.900647e-003
2.454979e+003,1.898184e-003
2.456907e+003,1.946738e-003
2.458836e+003,1.961198e-003
2.460764e+003,1.953373e-003
2.462693e+003,1.981664e-003
2.464621e+003,1.889983e-003
2.466550e+003,1.855178e-003
2.468478e+003,1.928296e-003
2.470406e+003,2.303135e-003
2.472335e+003,2.398446e-003
2.474264e+003,2.280587e-003
2.476192e+003,2.200074e-003
2.478121e+003,2.250325e-003
2.480049e+003,2.233151e-003
2.481978e+003,2.398534e-003
2.483906e+003,2.353925e-003
2.485835e+003,2.192058e-003
2.487763e+003,2.085187e-003
2.489692e+003,2.163898e-003
2.491620e+003,2.362715e-003
2.493549e+003,2.617586e-003
2.495477e+003,2.770266e-003
2.497406e+003,2.744133e-003
2.499334e+003,2.639608e-003
2.501263e+003,2.544042e-003
2.503191e+003,2.416169e-003
2.505120e+003,2.550827e-003
2.507048e+003,2.722861e-003
2.508977e+003,2.861306e-003
2.510905e+003,2.857335e-003
2.512833e+003,2.803426e-003
2.514762e+003,2.927998e-003
2.516691e+003,3.095724e-003
2.518619e+003,3.210668e-003
2.520548e+003,3.433881e-003
2.522476e+003,3.545221e-003
2.524405e+003,3.543105e-003
2.526333e+003,3.664248e-003
2.528261e+003,3.704604e-003
2.530190e+003,3.746822e-003
2.532119e+003,3.855158e-003
2.534047e+003,3.835309e-003
2.535976e+003,3.623437e-003
2.537904e+003,3.530242e-003
2.539833e+003,3.642462e-003
2.541761e+003,3.818560e-003
2.543689e+003,3.991906e-003
2.545618e+003,4.163176e-003
2.547547e+003,4.300561e-003
2.549475e+003,4.334465e-003
2.551404e+003,4.497766e-003
2.553332e+003,4.626468e-003
2.555260e+003,4.678186e-003
2.557189e+003,4.665207e-003
2.559117e+003,4.691500e-003
2.561046e+003,4.686523e-003
2.562975e+003,4.737329e-003
2.564903e+003,4.854817e-003
2.566832e+003,4.915349e-003
2.568760e+003,5.072773e-003
2.570688e+003,5.372990e-003
2.572617e+003,5.507730e-003
2.574546e+003,5.496811e-003
2.576474e+003,5.524833e-003
2.578403e+003,5.695011e-003
2.580331e+003,5.820677e-003
2.582260e+003,5.999457e-003
2.584188e+003,6.209422e-003
2.586116e+003,6.356440e-003
2.588045e+003,6.521367e-003
2.589974e+003,6.695926e-003
2.591902e+003,6.854273e-003
2.593831e+003,6.978534e-003
2.595759e+003,7.029649e-003
2.597688e+003,7.171091e-003
2.599616e+003,7.347770e-003
2.601544e+003,7.590573e-003
2.603473e+003,7.847849e-003
2.605402e+003,7.984456e-003
2.607330e+003,8.164980e-003
2.609259e+003,8.407950e-003
2.611187e+003,8.689761e-003
2.613115e+003,8.907773e-003
2.615044e+003,9.119313e-003
2.616972e+003,9.366784e-003
2.618901e+003,9.644989e-003
2.620830e+003,1.006919e-002
2.622758e+003,1.043830e-002
2.624687e+003,1.065029e-002
2.626615e+003,1.092127e-002
2.628543e+003,1.129066e-002
2.630472e+003,1.161164e-002
2.632400e+003,1.183573e-002
2.634329e+003,1.195323e-002
2.636258e+003,1.199386e-002
2.638186e+003,1.199020e-002
2.640115e+003,1.199696e-002
2.642043e+003,1.199427e-002
2.643971e+003,1.198800e-002
2.645900e+003,1.196781e-002
2.647828e+003,1.202994e-002
2.649757e+003,1.212317e-002
2.651686e+003,1.232835e-002
2.653614e+003,1.248845e-002
2.655542e+003,1.256967e-002
2.657471e+003,1.260517e-002
2.659399e+003,1.256404e-002
2.661328e+003,1.243645e-002
2.663256e+003,1.220001e-002
2.665185e+003,1.192428e-002
2.667114e+003,1.171686e-002
2.669042e+003,1.151776e-002
2.670970e+003,1.138502e-002
2.672899e+003,1.127310e-002
2.674827e+003,1.117073e-002
2.676756e+003,1.104294e-002
2.678685e+003,1.098114e-002
2.680613e+003,1.091287e-002
2.682542e+003,1.089647e-002
2.684470e+003,1.096226e-002
2.686398e+003,1.092897e-002
2.688327e+003,1.085671e-002
2.690255e+003,1.095060e-002
2.692184e+003,1.100684e-002
2.694113e+003,1.102053e-002
2.696041e+003,1.113430e-002
2.697969e+003,1.133754e-002
2.699898e+003,1.148780e-002
2.701826e+003,1.156410e-002
2.703755e+003,1.176790e-002
2.705683e+003,1.203813e-002
2.707612e+003,1.218356e-002
2.709541e+003,1.229616e-002
2.711469e+003,1.238395e-002
2.713397e+003,1.250624e-002
2.715326e+003,1.270377e-002
2.717254e+003,1.282448e-002
2.719183e+003,1.295152e-002
2.721111e+003,1.317857e-002
2.723040e+003,1.346260e-002
2.724969e+003,1.370434e-002
2.726897e+003,1.393211e-002
2.728825e+003,1.419249e-002
2.730754e+003,1.447299e-002
2.732682e+003,1.473268e-002
2.734611e+003,1.494347e-002
2.736539e+003,1.517499e-002
2.738468e+003,1.537189e-002
2.740396e+003,1.553142e-002
2.742325e+003,1.565246e-002
2.744253e+003,1.572594e-002
2.746182e+003,1.576065e-002
2.748110e+003,1.588291e-002
2.750039e+003,1.607957e-002
2.751967e+003,1.626220e-002
2.753896e+003,1.650751e-002
2.755824e+003,1.684083e-002
2.757753e+003,1.720064e-002
2.759681e+003,1.757710e-002
2.761610e+003,1.797541e-002
2.763538e+003,1.837314e-002
2.765467e+003,1.879080e-002
2.767395e+003,1.926208e-002
2.769324e+003,1.981357e-002
2.771252e+003,2.041037e-002
2.773181e+003,2.101909e-002
2.775109e+003,2.164169e-002
2.777038e+003,2.229514e-002
2.778966e+003,2.306768e-002
2.780895e+003,2.398190e-002
2.782823e+003,2.494308e-002
2.784752e+003,2.599718e-002
2.786680e+003,2.715971e-002
2.788609e+003,2.831841e-002
2.790537e+003,2.953804e-002
2.792466e+003,3.086230e-002
2.794394e+003,3.222915e-002
2.796323e+003,3.361126e-002
2.798251e+003,3.499332e-002
2.800180e+003,3.650830e-002
2.802108e+003,3.814560e-002
2.804037e+003,3.980379e-002
2.805965e+003,4.162267e-002
2.807894e+003,4.375592e-002
2.809822e+003,4.628454e-002
2.811751e+003,4.906365e-002
2.813679e+003,5.209842e-002
2.815608e+003,5.560153e-002
2.817536e+003,5.973439e-002
2.819465e+003,6.453220e-002
2.821393e+003,7.010792e-002
2.823322e+003,7.685903e-002
2.825250e+003,8.514947e-002
2.827179e+003,9.530139e-002
2.829107e+003,1.079387e-001
2.831036e+003,1.239268e-001
2.832964e+003,1.446180e-001
2.834893e+003,1.724841e-001
2.836821e+003,2.105471e-001
2.838750e+003,2.635813e-001
2.840678e+003,3.388474e-001
2.842607e+003,4.428911e-001
2.844535e+003,5.686727e-001
2.846464e+003,6.671045e-001
2.848392e+003,6.488057e-001
2.850321e+003,5.146994e-001
2.852249e+003,3.699909e-001
2.854178e+003,2.677866e-001
2.856106e+003,2.007941e-001
2.858035e+003,1.555554e-001
2.859963e+003,1.249551e-001
2.861892e+003,1.048022e-001
2.863820e+003,9.218989e-002
2.865749e+003,8.525538e-002
2.867677e+003,8.277336e-002
2.869606e+003,8.376916e-002
2.871534e+003,8.803913e-002
2.873463e+003,9.576610e-002
2.875391e+003,1.070261e-001
2.877320e+003,1.216058e-001
2.879248e+003,1.387162e-001
2.881177e+003,1.572580e-001
2.883105e+003,1.763785e-001
2.885034e+003,1.956300e-001
2.886962e+003,2.148022e-001
2.888891e+003,2.338775e-001
2.890819e+003,2.527482e-001
2.892748e+003,2.712290e-001
2.894676e+003,2.893588e-001
2.896605e+003,3.075785e-001
2.898533e+003,3.267884e-001
2.900462e+003,3.484203e-001
2.902390e+003,3.748029e-001
2.904319e+003,4.093527e-001
2.906247e+003,4.554998e-001
2.908176e+003,5.155535e-001
2.910104e+003,5.873041e-001
2.912033e+003,6.565572e-001
2.913961e+003,6.928564e-001
2.915890e+003,6.700819e-001
2.917818e+003,5.969414e-001
2.919747e+003,5.050410e-001
2.921675e+003,4.176018e-001
2.923604e+003,3.435346e-001
2.925532e+003,2.841620e-001
2.927461e+003,2.367925e-001
2.929389e+003,1.978666e-001
2.931318e+003,1.648917e-001
2.933246e+003,1.367665e-001
2.935175e+003,1.129018e-001
2.937103e+003,9.273904e-002
2.939032e+003,7.570751e-002
2.940960e+003,6.154167e-002
2.942889e+003,5.007986e-002
2.944817e+003,4.100725e-002
2.946746e+003,3.406566e-002
2.948674e+003,2.893684e-002
2.950603e+003,2.519407e-002
2.952531e+003,2.230342e-002
2.954460e+003,1.973690e-002
2.956388e+003,1.745309e-002
2.958317e+003,1.541918e-002
2.960245e+003,1.359003e-002
2.962174e+003,1.191855e-002
2.964102e+003,1.040706e-002
2.966031e+003,8.885134e-003
2.967959e+003,7.543150e-003
2.969888e+003,6.433729e-003
2.971816e+003,5.428862e-003
2.973745e+003,4.568957e-003
2.975673e+003,3.897198e-003
2.977602e+003,3.302705e-003
2.979530e+003,2.734587e-003
2.981459e+003,2.225738e-003
2.983387e+003,1.892436e-003
2.985316e+003,1.563046e-003
2.987244e+003,1.205049e-003
2.989173e+003,8.641779e-004
2.991101e+003,6.630458e-004
2.993030e+003,5.232170e-004
2.994958e+003,4.480518e-004
2.996887e+003,3.700443e-004
2.998815e+003,2.808198e-004
3.000744e+003,1.470260e-004
3.002672e+003,4.000217e-005
3.004601e+003,-2.745166e-005
3.006529e+003,-5.782396e-005
3.008458e+003,-1.225732e-004
3.010386e+003,-1.011044e-004
3.012315e+003,-5.351380e-005
3.014243e+003,-1.020320e-004
3.016172e+003,-1.501031e-004
3.018100e+003,-1.469702e-004
3.020029e+003,-9.808689e-005
3.021957e+003,-1.389794e-004
3.023886e+003,-1.016557e-004
3.025814e+003,-1.111589e-004
3.027743e+003,-1.626536e-004
3.029671e+003,-1.463927e-004
3.031600e+003,-1.289845e-004
3.033528e+003,-5.673245e-005
3.035457e+003,-1.654811e-004
3.037385e+003,-3.111959e-004
3.039314e+003,-3.723390e-004
3.041242e+003,-4.792213e-004
3.043171e+003,-6.706677e-004
3.045099e+003,-7.959530e-004
3.047028e+003,-8.156635e-004
3.048956e+003,-7.900633e-004
3.050885e+003,-8.546636e-004
3.052813e+003,-9.865053e-004
3.054742e+003,-9.985343e-004
3.056670e+003,-1.014315e-003
3.058599e+003,-1.074564e-003
3.060527e+003,-1.151834e-003
3.062456e+003,-1.143422e-003
3.064384e+003,-1.077387e-003
3.066313e+003,-1.146596e-003
3.068241e+003,-1.129139e-003
3.070170e+003,-1.098108e-003
3.072098e+003,-1.135152e-003
3.074027e+003,-1.156796e-003
3.075955e+003,-1.208860e-003
3.077884e+003,-1.164779e-003
3.079812e+003,-1.100563e-003
3.081741e+003,-1.178447e-003
3.083669e+003,-1.232877e-003
3.085598e+003,-1.274716e-003
3.087526e+003,-1.282226e-003
3.089455e+003,-1.296993e-003
3.091383e+003,-1.414403e-003
3.093312e+003,-1.593880e-003
3.095240e+003,-1.777776e-003
3.097169e+003,-1.902506e-003
3.099097e+003,-1.959253e-003
3.101026e+003,-2.132222e-003
3.102954e+003,-2.240028e-003
3.104883e+003,-2.305314e-003
3.106811e+003,-2.373841e-003
3.108740e+003,-2.380047e-003
3.110668e+003,-2.404094e-003
3.112597e+003,-2.458043e-003
3.114525e+003,-2.399266e-003
3.116454e+003,-2.416085e-003
3.118382e+003,-2.488777e-003
3.120311e+003,-2.595525e-003
3.122239e+003,-2.588689e-003
3.124168e+003,-2.471030e-003
3.126096e+003,-2.353333e-003
3.128025e+003,-2.381470e-003
3.129953e+003,-2.455082e-003
3.131882e+003,-2.480872e-003
3.133810e+003,-2.475787e-003
3.135739e+003,-2.466545e-003
3.137667e+003,-2.456658e-003
3.139596e+003,-2.460293e-003
3.141524e+003,-2.366442e-003
3.143453e+003,-2.352756e-003
3.145381e+003,-2.348777e-003
3.147310e+003,-2.289712e-003
3.149238e+003,-2.282273e-003
3.151167e+003,-2.340671e-003
3.153095e+003,-2.269525e-003
3.155024e+003,-2.204608e-003
3.156952e+003,-2.154820e-003
3.158881e+003,-2.117299e-003
3.160809e+003,-2.113190e-003
3.162738e+003,-2.111550e-003
3.164666e+003,-1.993969e-003
3.166594e+003,-1.731500e-003
3.168523e+003,-1.696635e-003
3.170452e+003,-1.724128e-003
3.172380e+003,-1.639269e-003
3.174309e+003,-1.689397e-003
3.176237e+003,-1.679983e-003
3.178166e+003,-1.634326e-003
3.180094e+003,-1.638252e-003
3.182022e+003,-1.687981e-003
3.183951e+003,-1.561981e-003
3.185880e+003,-1.428258e-003
3.187808e+003,-1.406990e-003
3.189737e+003,-1.509994e-003
3.191665e+003,-1.530144e-003
3.193594e+003,-1.454189e-003
3.195522e+003,-1.315460e-003
3.197450e+003,-1.118902e-003
3.199379e+003,-1.107290e-003
3.201308e+003,-1.173597e-003
3.203236e+003,-1.197569e-003
3.205165e+003,-1.150861e-003
3.207093e+003,-1.058154e-003
3.209021e+003,-1.027651e-003
3.210950e+003,-1.017280e-003
3.212878e+003,-9.344853e-004
3.214807e+003,-8.277856e-004
3.216736e+003,-8.595623e-004
3.218664e+003,-9.061433e-004
3.220593e+003,-9.283982e-004
3.222521e+003,-8.220114e-004
3.224449e+003,-6.885566e-004
3.226378e+003,-6.076358e-004
3.228307e+003,-5.769469e-004
3.230235e+003,-5.490892e-004
3.232164e+003,-5.128495e-004
3.234092e+003,-5.207285e-004
3.236021e+003,-4.925840e-004
3.237949e+003,-4.307516e-004
3.239877e+003,-4.481822e-004
3.241806e+003,-4.251376e-004
3.243735e+003,-1.939237e-004
3.245663e+003,-1.336448e-004
3.247592e+003,-1.617894e-004
3.249520e+003,-1.104921e-004
3.251448e+003,-2.920255e-005
3.253377e+003,8.358434e-005
3.255305e+003,1.144223e-004
3.257234e+003,1.366623e-004
3.259163e+003,8.627400e-005
3.261091e+003,9.399280e-005
3.263020e+003,3.006309e-004
3.264948e+003,4.983284e-004
3.266876e+003,4.965141e-004
3.268805e+003,3.852695e-004
3.270733e+003,3.841557e-004
3.272662e+003,6.108321e-004
3.274591e+003,6.887466e-004
3.276519e+003,5.806535e-004
3.278448e+003,5.422942e-004
3.280376e+003,6.406903e-004
3.282304e+003,6.441437e-004
3.284233e+003,5.174391e-004
3.286161e+003,4.992522e-004
3.288090e+003,6.252043e-004
3.290019e+003,7.267110e-004
3.291947e+003,7.934161e-004
3.293875e+003,7.203408e-004
3.295804e+003,6.998330e-004
3.297732e+003,7.269382e-004
3.299661e+003,7.461049e-004
3.301589e+003,7.202812e-004
3.303518e+003,7.045269e-004
3.305447e+003,7.526763e-004
3.307375e+003,8.540712e-004
3.309303e+003,8.201152e-004
3.311232e+003,7.111542e-004
3.313160e+003,7.062443e-004
3.315089e+003,7.763617e-004
3.317018e+003,7.301979e-004
3.318946e+003,7.066503e-004
3.320875e+003,7.158071e-004
3.322803e+003,7.399842e-004
3.324731e+003,7.927865e-004
3.326660e+003,7.886402e-004
3.328588e+003,7.904805e-004
3.330517e+003,7.538274e-004
3.332446e+003,7.061362e-004
3.334374e+003,7.522330e-004
3.336302e+003,8.423813e-004
3.338231e+003,9.056218e-004
3.340159e+003,8.306243e-004
3.342088e+003,7.951818e-004
3.344016e+003,7.772148e-004
3.345945e+003,8.128956e-004
3.347874e+003,8.029640e-004
3.349802e+003,7.654689e-004
3.351730e+003,8.245446e-004
3.353659e+003,8.343160e-004
3.355587e+003,8.168258e-004
3.357516e+003,7.211305e-004
3.359444e+003,7.767417e-004
3.361373e+003,8.425899e-004
3.363302e+003,7.193983e-004
3.365230e+003,6.788746e-004
3.367158e+003,6.864965e-004
3.369087e+003,7.907860e-004
3.371015e+003,7.704981e-004
3.372944e+003,6.144345e-004
3.374872e+003,6.090552e-004
3.376801e+003,6.401464e-004
3.378729e+003,6.667972e-004
3.380658e+003,5.824640e-004
3.382586e+003,5.593114e-004
3.384515e+003,6.486364e-004
3.386443e+003,5.390383e-004
3.388372e+003,5.147718e-004
3.390300e+003,6.451085e-004
3.392229e+003,6.900467e-004
3.394157e+003,4.929751e-004
3.396086e+003,4.647858e-004
3.398014e+003,5.487055e-004
3.399943e+003,6.383881e-004
3.401871e+003,6.096363e-004
3.403800e+003,5.248524e-004
3.405728e+003,4.697181e-004
3.407657e+003,4.305020e-004
3.409585e+003,3.575124e-004
3.411514e+003,3.345236e-004
3.413442e+003,3.140569e-004
3.415371e+003,2.980791e-004
3.417299e+003,2.743118e-004
3.419228e+003,3.212690e-004
3.421156e+003,3.758259e-004
3.423085e+003,3.533177e-004
3.425013e+003,3.503300e-004
3.426942e+003,3.211275e-004
3.428870e+003,3.205538e-004
3.430799e+003,3.780387e-004
3.432727e+003,3.163517e-004
3.434656e+003,2.135076e-004
3.436584e+003,1.847111e-004
3.438513e+003,1.985133e-004
3.440441e+003,2.400354e-004
3.442370e+003,1.356155e-004
3.444298e+003,6.161630e-005
3.446227e+003,3.141500e-004
3.448155e+003,2.346486e-004
3.450084e+003,1.244508e-004
3.452012e+003,4.439801e-005
3.453941e+003,1.331046e-005
3.455869e+003,-6.525964e-005
3.457798e+003,-1.353398e-004
3.459726e+003,-9.101257e-005
3.461655e+003,6.509200e-005
3.463583e+003,9.380654e-005
3.465512e+003,-1.192838e-005
3.467440e+003,-1.111887e-004
3.469369e+003,-1.746081e-004
3.471297e+003,-2.310276e-004
3.473226e+003,-1.606606e-004
3.475154e+003,-1.550429e-004
3.477083e+003,-3.464594e-004
3.479011e+003,-3.028885e-004
3.480940e+003,-6.059930e-005
3.482868e+003,-1.791865e-004
3.484797e+003,-2.829805e-004
3.486725e+003,-2.818219e-004
3.488654e+003,-3.042668e-004
3.490582e+003,-4.046261e-004
3.492511e+003,-5.417652e-004
3.494439e+003,-4.308596e-004
3.496368e+003,-2.816990e-004
3.498296e+003,-4.061870e-004
3.500225e+003,-2.948008e-004
3.502153e+003,-7.452443e-005
3.504082e+003,-2.988949e-004
3.506010e+003,-5.209818e-004
3.507939e+003,-3.867969e-004
3.509867e+003,-3.220849e-004
3.511796e+003,-5.083121e-004
3.513724e+003,-6.732382e-004
3.515653e+003,-6.792918e-004
3.517581e+003,-7.183403e-004
3.519510e+003,-8.216165e-004
3.521438e+003,-5.720817e-004
3.523367e+003,-3.460571e-004
3.525295e+003,-3.934056e-004
3.527224e+003,-3.388524e-004
3.529152e+003,-4.776232e-004
3.531081e+003,-7.621311e-004
3.533009e+003,-1.006469e-003
3.534938e+003,-9.884275e-004
3.536866e+003,-1.020573e-003
3.538795e+003,-1.100700e-003
3.540723e+003,-1.178268e-003
3.542652e+003,-1.010902e-003
3.544580e+003,-6.919019e-004
3.546509e+003,-6.558225e-004
3.548437e+003,-7.536113e-004
3.550366e+003,-7.449128e-004
3.552294e+003,-8.341670e-004
3.554223e+003,-1.035649e-003
3.556151e+003,-1.237329e-003
3.558080e+003,-1.343176e-003
3.560008e+003,-1.115546e-003
3.561937e+003,-9.883977e-004
3.563865e+003,-7.710494e-004
3.565794e+003,9.261072e-006
3.567722e+003,-1.515858e-004
3.569651e+003,-1.005009e-003
3.571579e+003,-1.311027e-003
3.573508e+003,-1.273401e-003
3.575436e+003,-1.252364e-003
3.577365e+003,-1.281597e-003
3.579293e+003,-1.336139e-003
3.581222e+003,-1.247268e-003
3.583150e+003,-1.061819e-003
3.585079e+003,-6.662458e-004
3.587007e+003,-4.979968e-005
3.588936e+003,-4.825965e-004
3.590864e+003,-6.491542e-004
3.592793e+003,-1.872331e-004
3.594721e+003,2.797171e-004
3.596650e+003,1.138113e-004
3.598578e+003,-1.483783e-005
3.600507e+003,1.146495e-004
3.602435e+003,5.342066e-005
3.604364e+003,4.319474e-005
3.606292e+003,5.370677e-004
3.608221e+003,7.285997e-004
3.610149e+003,4.398897e-004
3.612078e+003,7.463694e-004
3.614006e+003,4.430898e-004
3.615935e+003,-8.052960e-005
3.617863e+003,-5.949289e-006
3.619792e+003,-1.317821e-004
3.621720e+003,-6.035939e-004
3.623649e+003,-8.321144e-004
3.625577e+003,-8.564666e-004
3.627506e+003,2.613440e-004
3.629434e+003,7.371604e-004
3.631363e+003,-4.362315e-005
3.633291e+003,-1.936816e-004
3.635220e+003,-6.185398e-004
3.637148e+003,-5.980395e-004
3.639077e+003,-5.080476e-004
3.641005e+003,-5.477108e-004
3.642934e+003,-6.068498e-004
3.644862e+003,-3.369488e-004
3.646791e+003,5.897991e-004
3.648719e+003,1.802176e-003
3.650648e+003,1.117390e-003
3.652576e+003,-3.392473e-004
3.654505e+003,-1.607239e-004
3.656433e+003,-1.284890e-004
3.658362e+003,-6.579943e-004
3.660290e+003,-1.011014e-003
3.662219e+003,-1.170103e-003
3.664147e+003,-1.167614e-003
3.666076e+003,-1.029428e-003
3.668004e+003,-2.495944e-006
3.669933e+003,9.980947e-004
3.671861e+003,2.857186e-004
3.673790e+003,1.149133e-003
3.675718e+003,1.534615e-003
3.677647e+003,3.619492e-004
3.679575e+003,-3.044829e-004
3.681504e+003,-8.219406e-004
3.683432e+003,-6.919280e-004
3.685361e+003,-4.199296e-004
3.687289e+003,5.699620e-004
3.689218e+003,1.356840e-003
3.691146e+003,5.724281e-004
3.693075e+003,-2.914742e-004
3.695003e+003,-4.238933e-004
3.696932e+003,-4.071221e-004
3.698860e+003,-3.212206e-004
3.700789e+003,-1.319870e-004
3.702717e+003,-4.259124e-004
3.704646e+003,-5.908571e-004
3.706574e+003,-4.173815e-004
3.708503e+003,5.161427e-004
3.710431e+003,1.741599e-003
3.712360e+003,8.198358e-004
3.714288e+003,-4.193820e-004
3.716217e+003,-5.878918e-004
3.718145e+003,-2.840385e-004
3.720074e+003,1.340844e-004
3.722002e+003,4.058592e-004
3.723931e+003,4.379414e-004
3.725859e+003,4.478805e-004
3.727788e+003,-1.658686e-004
3.729716e+003,1.413599e-004
3.731645e+003,1.088005e-003
3.733573e+003,2.126124e-003
3.735502e+003,2.463792e-003
3.737430e+003,1.162849e-003
3.739359e+003,5.973428e-004
3.741287e+003,6.625727e-004
3.743216e+003,2.095114e-003
3.745144e+003,2.429519e-003
3.747073e+003,1.602218e-003
3.749001e+003,2.068114e-003
3.750930e+003,2.535250e-003
3.752858e+003,1.333911e-003
3.754787e+003,3.988147e-004
3.756715e+003,5.276278e-004
3.758644e+003,1.029242e-003
3.760572e+003,5.760007e-004
3.762501e+003,1.444034e-004
3.764429e+003,4.748479e-004
3.766358e+003,5.698279e-004
3.768286e+003,7.882826e-004
3.770215e+003,4.991144e-004
3.772143e+003,7.376075e-007
3.774072e+003,-1.853779e-004
3.776000e+003,-2.648048e-004
3.777929e+003,3.027618e-004
3.779857e+003,5.327351e-004
3.781786e+003,3.749616e-004
3.783714e+003,5.046204e-004
3.785643e+003,7.788092e-005
3.787571e+003,1.568347e-005
3.789500e+003,-8.417666e-005
3.791428e+003,-5.078726e-004
3.793357e+003,-2.299473e-004
3.795285e+003,5.767085e-004
3.797214e+003,7.040724e-004
3.799142e+003,1.223803e-003
3.801071e+003,2.211746e-003
3.802999e+003,1.136128e-003
3.804927e+003,9.553209e-004
3.806856e+003,9.651408e-004
3.808785e+003,5.221218e-004
3.810713e+003,2.836511e-004
3.812642e+003,3.142580e-004
3.814570e+003,1.574561e-003
3.816499e+003,1.764648e-003
3.818427e+003,1.794629e-003
3.820355e+003,2.570745e-003
3.822284e+003,1.381118e-003
3.824213e+003,1.145329e-003
3.826141e+003,1.220316e-003
3.828070e+003,7.461533e-004
3.829998e+003,8.971654e-004
3.831927e+003,1.067240e-003
3.833855e+003,1.411572e-003
3.835783e+003,1.994617e-003
3.837712e+003,2.485845e-003
3.839641e+003,2.184656e-003
3.841569e+003,1.466449e-003
3.843498e+003,1.122784e-003
3.845426e+003,7.317774e-004
3.847354e+003,7.859617e-004
3.849283e+003,1.207367e-003
3.851211e+003,2.557270e-003
3.853140e+003,3.710631e-003
3.855069e+003,1.823146e-003
3.856997e+003,1.195505e-003
3.858926e+003,8.467995e-004
3.860854e+003,1.147240e-003
3.862782e+003,1.949389e-003
3.864711e+003,2.047159e-003
3.866640e+003,1.490671e-003
3.868568e+003,2.228115e-003
3.870497e+003,1.855582e-003
3.872425e+003,2.001699e-003
3.874354e+003,1.737591e-003
3.876282e+003,7.913075e-004
3.878210e+003,1.306701e-003
3.880139e+003,1.892075e-003
3.882068e+003,1.464821e-003
3.883996e+003,1.922440e-003
3.885925e+003,1.792327e-003
3.887853e+003,1.276191e-003
3.889781e+003,1.662608e-003
3.891710e+003,1.857091e-003
3.893638e+003,1.411304e-003
3.895567e+003,1.160450e-003
3.897496e+003,1.666598e-003
3.899424e+003,2.237625e-003
3.901353e+003,2.256580e-003
3.903281e+003,2.538990e-003
3.905209e+003,1.902908e-003
3.907138e+003,1.019664e-003
3.909066e+003,7.655136e-004
3.910995e+003,9.950697e-004
3.912924e+003,1.104452e-003
3.914852e+003,1.341362e-003
3.916781e+003,1.552686e-003
3.918709e+003,1.520008e-003
3.920637e+003,1.348600e-003
3.922566e+003,1.611732e-003
3.924494e+003,1.842055e-003
3.926423e+003,1.441557e-003
3.928352e+003,1.408719e-003
3.930280e+003,1.573179e-003
3.932208e+003,1.656078e-003
3.934137e+003,1.183394e-003
3.936065e+003,9.230673e-004
3.937994e+003,9.715669e-004
3.939922e+003,1.198858e-003
3.941851e+003,1.471732e-003
3.943780e+003,1.133297e-003
3.945708e+003,9.657927e-004
3.947636e+003,1.157530e-003
3.949565e+003,1.050189e-003
3.951493e+003,9.276792e-004
3.953422e+003,1.020301e-003
3.955351e+003,1.149740e-003
3.957279e+003,1.069341e-003
3.959208e+003,9.735115e-004
3.961136e+003,1.011897e-003
3.963064e+003,9.187646e-004
3.964993e+003,8.553453e-004
3.966921e+003,8.451529e-004
3.968850e+003,9.036288e-004
3.970779e+003,9.629801e-004
3.972707e+003,1.073048e-003
3.974635e+003,1.156185e-003
3.976564e+003,1.102801e-003
3.978492e+003,9.217784e-004
3.980421e+003,8.965209e-004
3.982349e+003,9.576268e-004
3.984278e+003,9.148717e-004
3.986207e+003,8.292384e-004
3.988135e+003,8.284152e-004
3.990063e+003,8.695051e-004
3.991992e+003,8.690991e-004
3.993920e+003,9.721816e-004
3.995849e+003,8.667670e-004
3.997777e+003,7.728115e-004
3.999706e+003,7.074624e-004
4.001635e+003,0.000000e+000
