3.991992e+002,0.000000e+000
4.011277e+002,0.000000e+000
4.030562e+002,0.000000e+000
4.049846e+002,0.000000e+000
4.069131e+002,0.000000e+000
4.088416e+002,0.000000e+000
4.107701e+002,0.000000e+000
4.126986e+002,0.000000e+000
4.146271e+002,0.000000e+000
4.165556e+002,0.000000e+000
4.184841e+002,0.000000e+000
4.204126e+002,0.000000e+000
4.223411e+002,0.000000e+000
4.242697e+002,0.000000e+000
4.261982e+002,0.000000e+000
4.281266e+002,0.000000e+000
4.300551e+002,0.000000e+000
4.319836e+002,0.000000e+000
4.339121e+002,0.000000e+000
4.358406e+002,0.000000e+000
4.377691e+002,0.000000e+000
4.396976e+002,0.000000e+000
4.416261e+002,0.000000e+000
4.435546e+002,0.000000e+000
4.454831e+002,0.000000e+000
4.474116e+002,0.000000e+000
4.493401e+002,0.000000e+000
4.512686e+002,0.000000e+000
4.531971e+002,0.000000e+000
4.551256e+002,0.000000e+000
4.570541e+002,0.000000e+000
4.589826e+002,0.000000e+000
4.609111e+002,0.000000e+000
4.628396e+002,0.000000e+000
4.647681e+002,0.000000e+000
4.666966e+002,0.000000e+000
4.686251e+002,0.000000e+000
4.705536e+002,0.000000e+000
4.724821e+002,0.000000e+000
4.744106e+002,0.000000e+000
4.763391e+002,0.000000e+000
4.782676e+002,0.000000e+000
4.801961e+002,0.000000e+000
4.821246e+002,0.000000e+000
4.840531e+002,0.000000e+000
4.859816e+002,0.000000e+000
4.879101e+002,0.000000e+000
4.898386e+002,0.000000e+000
4.917671e+002,0.000000e+000
4.936956e+002,0.000000e+000
4.956241e+002,0.000000e+000
4.975526e+002,0.000000e+000
4.994811e+002,0.000000e+000
5.014096e+002,0.000000e+000
5.033381e+002,0.000000e+000
5.052666e+002,0.000000e+000
5.071951e+002,0.000000e+000
5.091236e+002,0.000000e+000
5.110521e+002,0.000000e+000
5.129806e+002,0.000000e+000
5.149091e+002,0.000000e+000
5.168376e+002,0.000000e+000
5.187661e+002,0.000000e+000
5.206946e+002,0.000000e+000
5.226230e+002,0.000000e+000
5.245516e+002,-8.699172e-004
5.264800e+002,-8.789110e-004
5.284086e+002,-7.975909e-004
5.303370e+002,-8.546805e-004
5.322656e+002,-8.754849e-004
5.341940e+002,-8.689074e-004
5.361226e+002,-8.043253e-004
5.380510e+002,-6.738838e-004
5.399796e+002,-7.932102e-004
5.419081e+002,-8.991100e-004
5.438365e+002,-9.025650e-004
5.457650e+002,-9.717641e-004
5.476935e+002,-9.704228e-004
5.496221e+002,-8.388928e-004
5.515505e+002,-6.368761e-004
5.534790e+002,-5.561935e-004
5.554075e+002,-5.417585e-004
5.573361e+002,-6.382153e-004
5.592645e+002,-7.061199e-004
5.611931e+002,-7.736480e-004
5.631215e+002,-8.527208e-004
5.650500e+002,-8.855441e-004
5.669785e+002,-8.159615e-004
5.689070e+002,-7.544248e-004
5.708355e+002,-7.437277e-004
5.727640e+002,-7.570032e-004
5.746925e+002,-7.295797e-004
5.766210e+002,-7.817086e-004
5.785495e+002,-8.461976e-004
5.804780e+002,-9.179607e-004
5.824065e+002,-8.674096e-004
5.843350e+002,-7.376722e-004
5.862635e+002,-7.598619e-004
5.881920e+002,-9.508012e-004
5.901205e+002,-8.702206e-004
5.920490e+002,-7.365851e-004
5.939775e+002,-7.588773e-004
5.959060e+002,-7.810344e-004
5.978345e+002,-6.267694e-004
5.997630e+002,-5.203320e-004
6.016915e+002,-4.707554e-004
6.036200e+002,-4.655111e-004
6.055485e+002,-3.613539e-004
6.074770e+002,-2.882974e-004
6.094055e+002,-3.274877e-004
6.113340e+002,-4.594564e-004
6.132625e+002,-4.482928e-004
6.151910e+002,-5.232864e-004
6.171195e+002,-5.278958e-004
6.190480e+002,-3.869068e-004
6.209765e+002,-3.212132e-004
6.229050e+002,-2.291780e-004
6.248335e+002,-8.687750e-005
6.267620e+002,-6.550970e-005
6.286905e+002,-2.992526e-005
6.306190e+002,6.248243e-006
6.325475e+002,7.019192e-005
6.344760e+002,2.177339e-005
6.364045e+002,7.984787e-005
6.383330e+002,1.128607e-004
6.402615e+002,2.021501e-004
6.421899e+002,1.928688e-004
6.441185e+002,1.713862e-004
6.460470e+002,2.744084e-004
6.479755e+002,3.069041e-004
6.499039e+002,2.973082e-004
6.518325e+002,3.000463e-004
6.537610e+002,3.156802e-004
6.556895e+002,4.053940e-004
6.576179e+002,4.437058e-004
6.595464e+002,5.415978e-004
6.614750e+002,3.880274e-004
6.634034e+002,4.205785e-004
6.653319e+002,4.283055e-004
6.672604e+002,5.160973e-004
6.691890e+002,7.039113e-004
6.711174e+002,8.533690e-004
6.730460e+002,9.014562e-004
6.749745e+002,9.704360e-004
6.769030e+002,1.050691e-003
6.788314e+002,1.308164e-003
6.807599e+002,1.432492e-003
6.826885e+002,1.599443e-003
6.846169e+002,1.767561e-003
6.865454e+002,2.050156e-003
6.884739e+002,2.209642e-003
6.904025e+002,2.439885e-003
6.923309e+002,2.692176e-003
6.942594e+002,3.063529e-003
6.961879e+002,3.452185e-003
6.981165e+002,4.206992e-003
7.000449e+002,5.032016e-003
7.019734e+002,6.179759e-003
7.039019e+002,7.702895e-003
7.058304e+002,9.868182e-003
7.077589e+002,1.264131e-002
7.096874e+002,1.718201e-002
7.116159e+002,2.483540e-002
7.135444e+002,3.994329e-002
7.154729e+002,6.826243e-002
7.174014e+002,1.098308e-001
7.193299e+002,1.226674e-001
7.212584e+002,7.902180e-002
7.231869e+002,4.444750e-002
7.251154e+002,3.595600e-002
7.270439e+002,4.518157e-002
7.289724e+002,7.160750e-002
7.309009e+002,7.699160e-002
7.328294e+002,4.306179e-002
7.347579e+002,1.778394e-002
7.366864e+002,9.259084e-003
7.386149e+002,6.228120e-003
7.405434e+002,4.571856e-003
7.424719e+002,3.588037e-003
7.444004e+002,2.872009e-003
7.463289e+002,2.480398e-003
7.482574e+002,2.079681e-003
7.501859e+002,1.832620e-003
7.521144e+002,1.568658e-003
7.540428e+002,1.458100e-003
7.559714e+002,1.269808e-003
7.578999e+002,1.108764e-003
7.598284e+002,1.013716e-003
7.617568e+002,1.018082e-003
7.636854e+002,9.763138e-004
7.656139e+002,9.120691e-004
7.675424e+002,7.957143e-004
7.694709e+002,7.701323e-004
7.713994e+002,7.553385e-004
7.733279e+002,7.547576e-004
7.752563e+002,6.296269e-004
7.771849e+002,5.457762e-004
7.791134e+002,5.295724e-004
7.810419e+002,5.825537e-004
7.829703e+002,5.117445e-004
7.848989e+002,5.118672e-004
7.868274e+002,4.571564e-004
7.887559e+002,4.754197e-004
7.906843e+002,5.316325e-004
7.926129e+002,5.379203e-004
7.945414e+002,5.398034e-004
7.964698e+002,6.138440e-004
7.983983e+002,6.369876e-004
8.003268e+002,6.368153e-004
8.022554e+002,6.286674e-004
8.041838e+002,6.631098e-004
8.061123e+002,6.234287e-004
8.080408e+002,6.249845e-004
8.099694e+002,6.450675e-004
8.118978e+002,5.961782e-004
8.138263e+002,5.394341e-004
8.157548e+002,5.430742e-004
8.176833e+002,5.580019e-004
8.196118e+002,5.409373e-004
8.215403e+002,4.746853e-004
8.234689e+002,4.574214e-004
8.253973e+002,4.152358e-004
8.273258e+002,3.491561e-004
8.292543e+002,3.695567e-004
8.311829e+002,4.245536e-004
8.331113e+002,3.575347e-004
8.350398e+002,3.043995e-004
8.369683e+002,2.982472e-004
8.388969e+002,3.046910e-004
8.408253e+002,3.062412e-004
8.427538e+002,3.538025e-004
8.446823e+002,4.603476e-004
8.466108e+002,4.851255e-004
8.485393e+002,4.333374e-004
8.504678e+002,4.140320e-004
8.523963e+002,3.874679e-004
8.543248e+002,3.719432e-004
8.562533e+002,3.801095e-004
8.581818e+002,4.119100e-004
8.601103e+002,4.800078e-004
8.620388e+002,4.756898e-004
8.639673e+002,4.169401e-004
8.658958e+002,4.239664e-004
8.678243e+002,4.526731e-004
8.697528e+002,4.200125e-004
8.716813e+002,3.410010e-004
8.736098e+002,3.580744e-004
8.755383e+002,3.804090e-004
8.774668e+002,4.437119e-004
8.793953e+002,5.646213e-004
8.813238e+002,6.151884e-004
8.832523e+002,7.111914e-004
8.851808e+002,8.033458e-004
8.871093e+002,7.565636e-004
8.890378e+002,7.609804e-004
8.909663e+002,7.886454e-004
8.928948e+002,7.058531e-004
8.948232e+002,7.648133e-004
8.967518e+002,9.217765e-004
8.986803e+002,1.093205e-003
9.006088e+002,1.381078e-003
9.025372e+002,1.927577e-003
9.044658e+002,2.490985e-003
9.063943e+002,3.440210e-003
9.083228e+002,4.076974e-003
9.102512e+002,3.506847e-003
9.121797e+002,2.463540e-003
9.141083e+002,1.577255e-003
9.160367e+002,1.094852e-003
9.179653e+002,9.186305e-004
9.198937e+002,8.532475e-004
9.218223e+002,7.805391e-004
9.237507e+002,7.576933e-004
9.256793e+002,8.316347e-004
9.276077e+002,8.833539e-004
9.295363e+002,7.860293e-004
9.314647e+002,7.565166e-004
9.333932e+002,7.521920e-004
9.353217e+002,7.330636e-004
9.372502e+002,6.960956e-004
9.391787e+002,6.659310e-004
9.411072e+002,6.838907e-004
9.430358e+002,8.119722e-004
9.449642e+002,8.736402e-004
9.468928e+002,7.707961e-004
9.488212e+002,8.208291e-004
9.507498e+002,9.331945e-004
9.526782e+002,8.690255e-004
9.546068e+002,7.960452e-004
9.565352e+002,8.806363e-004
9.584637e+002,9.327810e-004
9.603922e+002,1.092399e-003
9.623207e+002,1.181443e-003
9.642492e+002,1.153565e-003
9.661777e+002,1.221511e-003
9.681062e+002,1.215210e-003
9.700347e+002,1.152530e-003
9.719632e+002,1.129481e-003
9.738917e+002,1.121919e-003
9.758202e+002,1.153462e-003
9.777487e+002,1.157873e-003
9.796772e+002,1.118045e-003
9.816057e+002,1.184803e-003
9.835342e+002,1.366043e-003
9.854627e+002,1.599876e-003
9.873912e+002,1.826488e-003
9.893197e+002,2.033279e-003
9.912482e+002,2.130229e-003
9.931767e+002,2.011243e-003
9.951052e+002,1.846669e-003
9.970337e+002,1.740818e-003
9.989622e+002,1.660403e-003
1.000891e+003,1.565816e-003
1.002819e+003,1.497846e-003
1.004748e+003,1.481573e-003
1.006676e+003,1.531014e-003
1.008605e+003,1.593419e-003
1.010533e+003,1.699885e-003
1.012462e+003,1.782374e-003
1.014390e+003,1.848985e-003
1.016319e+003,1.896220e-003
1.018247e+003,1.956138e-003
1.020176e+003,1.995463e-003
1.022104e+003,2.060071e-003
1.024033e+003,2.086713e-003
1.025961e+003,2.141175e-003
1.027890e+003,2.132714e-003
1.029818e+003,2.141801e-003
1.031747e+003,2.166201e-003
1.033675e+003,2.237351e-003
1.035604e+003,2.293579e-003
1.037532e+003,2.339904e-003
1.039461e+003,2.325206e-003
1.041389e+003,2.339896e-003
1.043318e+003,2.456196e-003
1.045246e+003,2.554172e-003
1.047175e+003,2.669455e-003
1.049103e+003,2.913230e-003
1.051032e+003,3.040049e-003
1.052960e+003,2.960474e-003
1.054889e+003,2.889810e-003
1.056817e+003,2.957818e-003
1.058746e+003,3.074089e-003
1.060674e+003,3.157943e-003
1.062603e+003,3.224117e-003
1.064531e+003,3.254849e-003
1.066460e+003,3.238790e-003
1.068388e+003,3.248184e-003
1.070317e+003,3.348909e-003
1.072245e+003,3.459079e-003
1.074174e+003,3.566978e-003
1.076102e+003,3.752694e-003
1.078031e+003,3.892625e-003
1.079959e+003,3.979155e-003
1.081888e+003,3.998108e-003
1.083816e+003,3.948688e-003
1.085745e+003,3.820795e-003
1.087673e+003,3.717009e-003
1.089602e+003,3.652182e-003
1.091530e+003,3.641236e-003
1.093459e+003,3.510572e-003
1.095387e+003,3.401071e-003
1.097316e+003,3.356172e-003
1.099244e+003,3.343550e-003
1.101173e+003,3.301551e-003
1.103101e+003,3.270585e-003
1.105030e+003,3.302229e-003
1.106958e+003,3.357067e-003
1.108887e+003,3.337449e-003
1.110815e+003,3.303849e-003
1.112744e+003,3.226494e-003
1.114672e+003,3.189193e-003
1.116601e+003,3.151660e-003
1.118529e+003,3.117275e-003
1.120458e+003,3.064038e-003
1.122386e+003,3.066506e-003
1.124315e+003,3.078926e-003
1.126243e+003,3.098093e-003
1.128172e+003,3.069948e-003
1.130100e+003,3.107930e-003
1.132029e+003,3.061675e-003
1.133957e+003,3.047278e-003
1.135885e+003,3.065309e-003
1.137814e+003,3.174756e-003
1.139743e+003,3.248971e-003
1.141671e+003,3.326042e-003
1.143600e+003,3.453663e-003
1.145528e+003,3.685370e-003
1.147457e+003,3.969288e-003
1.149385e+003,4.372659e-003
1.151314e+003,4.771322e-003
1.153242e+003,5.111318e-003
1.155171e+003,5.318305e-003
1.157099e+003,5.451339e-003
1.159028e+003,5.463237e-003
1.160956e+003,5.487127e-003
1.162885e+003,5.464836e-003
1.164813e+003,5.361045e-003
1.166742e+003,5.204928e-003
1.168670e+003,5.038134e-003
1.170599e+003,4.800503e-003
1.172527e+003,4.624407e-003
1.174456e+003,4.563322e-003
1.176384e+003,4.489649e-003
1.178313e+003,4.134629e-003
1.180241e+003,3.867463e-003
1.182170e+003,3.715775e-003
1.184098e+003,3.687814e-003
1.186027e+003,3.703805e-003
1.187955e+003,3.724855e-003
1.189884e+003,3.734516e-003
1.191812e+003,3.785685e-003
1.193740e+003,3.842173e-003
1.195669e+003,3.942910e-003
1.197598e+003,4.050656e-003
1.199526e+003,4.234025e-003
1.201455e+003,4.454957e-003
1.203383e+003,4.717882e-003
1.205312e+003,4.939666e-003
1.207240e+003,5.202492e-003
1.209168e+003,5.398592e-003
1.211097e+003,5.552144e-003
1.213026e+003,5.677479e-003
1.214954e+003,5.799829e-003
1.216883e+003,5.876870e-003
1.218811e+003,5.986557e-003
1.220740e+003,6.069882e-003
1.222668e+003,6.200443e-003
1.224596e+003,6.322783e-003
1.226525e+003,6.488452e-003
1.228453e+003,6.601610e-003
1.230382e+003,6.758991e-003
1.232311e+003,6.886211e-003
1.234239e+003,7.024955e-003
1.236167e+003,7.142645e-003
1.238096e+003,7.234376e-003
1.240025e+003,7.251140e-003
1.241953e+003,7.278430e-003
1.243882e+003,7.256903e-003
1.245810e+003,7.197386e-003
1.247739e+003,7.035381e-003
1.249667e+003,6.864623e-003
1.251595e+003,6.650873e-003
1.253524e+003,6.447201e-003
1.255453e+003,6.201820e-003
1.257381e+003,5.967675e-003
1.259310e+003,5.704550e-003
1.261238e+003,5.482221e-003
1.263167e+003,5.181800e-003
1.265095e+003,4.920852e-003
1.267023e+003,4.694790e-003
1.268952e+003,4.603722e-003
1.270880e+003,4.565489e-003
1.272809e+003,4.543322e-003
1.274738e+003,4.480824e-003
1.276666e+003,4.494831e-003
1.278594e+003,4.508131e-003
1.280523e+003,4.596330e-003
1.282451e+003,4.663373e-003
1.284380e+003,4.777655e-003
1.286308e+003,4.852114e-003
1.288237e+003,5.018118e-003
1.290166e+003,5.159975e-003
1.292094e+003,5.384266e-003
1.294022e+003,5.620026e-003
1.295951e+003,5.888434e-003
1.297879e+003,6.064445e-003
1.299808e+003,6.189812e-003
1.301736e+003,6.225825e-003
1.303665e+003,6.301882e-003
1.305594e+003,6.276299e-003
1.307522e+003,6.213150e-003
1.309450e+003,6.066747e-003
1.311379e+003,5.892887e-003
1.313307e+003,5.631207e-003
1.315236e+003,5.403870e-003
1.317164e+003,5.101879e-003
1.319093e+003,4.846642e-003
1.321021e+003,4.552415e-003
1.322950e+003,4.406650e-003
1.324878e+003,4.252673e-003
1.326807e+003,4.213732e-003
1.328735e+003,4.142020e-003
1.330664e+003,4.161682e-003
1.332592e+003,4.261774e-003
1.334521e+003,4.507783e-003
1.336449e+003,4.770142e-003
1.338378e+003,5.196973e-003
1.340306e+003,5.559626e-003
1.342235e+003,5.874427e-003
1.344163e+003,6.169287e-003
1.346092e+003,6.607049e-003
1.348021e+003,7.040465e-003
1.349949e+003,7.532961e-003
1.351877e+003,7.745387e-003
1.353806e+003,7.752946e-003
1.355734e+003,7.574306e-003
1.357663e+003,7.535510e-003
1.359591e+003,7.669891e-003
1.361520e+003,8.158266e-003
1.363448e+003,8.741437e-003
1.365377e+003,9.369051e-003
1.367305e+003,9.782494e-003
1.369234e+003,9.665016e-003
1.371162e+003,8.842464e-003
1.373091e+003,7.923665e-003
1.375019e+003,7.051929e-003
1.376948e+003,6.652256e-003
1.378876e+003,5.957510e-003
1.380805e+003,5.161380e-003
1.382733e+003,4.519110e-003
1.384662e+003,4.290817e-003
1.386590e+003,4.119641e-003
1.388519e+003,4.055582e-003
1.390447e+003,3.957483e-003
1.392376e+003,4.070020e-003
1.394304e+003,4.052652e-003
1.396233e+003,4.145866e-003
1.398161e+003,4.088489e-003
1.400090e+003,4.214081e-003
1.402018e+003,4.180538e-003
1.403947e+003,4.331764e-003
1.405875e+003,4.371200e-003
1.407804e+003,4.570354e-003
1.409732e+003,4.656218e-003
1.411661e+003,4.918758e-003
1.413589e+003,5.014998e-003
1.415518e+003,5.298075e-003
1.417446e+003,5.367700e-003
1.419375e+003,5.897557e-003
1.421303e+003,6.217542e-003
1.423232e+003,6.904494e-003
1.425160e+003,7.765807e-003
1.427089e+003,8.984514e-003
1.429017e+003,1.043597e-002
1.430946e+003,1.255746e-002
1.432874e+003,1.408432e-002
1.434803e+003,1.556724e-002
1.436731e+003,1.707536e-002
1.438660e+003,1.859396e-002
1.440588e+003,1.943787e-002
1.442517e+003,2.065751e-002
1.444445e+003,2.151277e-002
1.446374e+003,2.286770e-002
1.448302e+003,2.472512e-002
1.450231e+003,2.775973e-002
1.452159e+003,3.242535e-002
1.454088e+003,3.907863e-002
1.456016e+003,4.726160e-002
1.457945e+003,7.956360e-002
1.459873e+003,1.425724e-001
1.461802e+003,1.874331e-001
1.463730e+003,1.584971e-001
1.465659e+003,9.991562e-002
1.467587e+003,9.256712e-002
1.469516e+003,1.037188e-001
1.471444e+003,1.394361e-001
1.473373e+003,1.351511e-001
1.475301e+003,6.923349e-002
1.477230e+003,2.650208e-002
1.479158e+003,1.492889e-002
1.481087e+003,1.023187e-002
1.483015e+003,8.173215e-003
1.484944e+003,6.649122e-003
1.486872e+003,6.355294e-003
1.488801e+003,5.394153e-003
1.490729e+003,5.337940e-003
1.492658e+003,4.686894e-003
1.494586e+003,4.785473e-003
1.496515e+003,4.242659e-003
1.498443e+003,4.344992e-003
1.500372e+003,3.874126e-003
1.502300e+003,3.902661e-003
1.504229e+003,3.552150e-003
1.506157e+003,3.911584e-003
1.508086e+003,3.383872e-003
1.510014e+003,3.554691e-003
1.511943e+003,3.287788e-003
1.513871e+003,3.543880e-003
1.515800e+003,3.484620e-003
1.517728e+003,3.680289e-003
1.519657e+003,3.349262e-003
1.521585e+003,3.500648e-003
1.523514e+003,3.318936e-003
1.525442e+003,3.545684e-003
1.527371e+003,3.348444e-003
1.529299e+003,3.493395e-003
1.531228e+003,3.381292e-003
1.533156e+003,3.663834e-003
1.535085e+003,3.432711e-003
1.537013e+003,3.521560e-003
1.538942e+003,3.405574e-003
1.540870e+003,3.765335e-003
1.542799e+003,3.447905e-003
1.544727e+003,3.540492e-003
1.546656e+003,3.320094e-003
1.548584e+003,3.437074e-003
1.550513e+003,3.304408e-003
1.552441e+003,3.310586e-003
1.554370e+003,3.045047e-003
1.556298e+003,3.103937e-003
1.558227e+003,2.792147e-003
1.560155e+003,2.819935e-003
1.562084e+003,2.660726e-003
1.564012e+003,2.703347e-003
1.565941e+003,2.574935e-003
1.567869e+003,2.677250e-003
1.569798e+003,2.545584e-003
1.571726e+003,2.590780e-003
1.573655e+003,2.505159e-003
1.575583e+003,2.631661e-003
1.577512e+003,2.510044e-003
1.579440e+003,2.551420e-003
1.581369e+003,2.518621e-003
1.583297e+003,2.636313e-003
1.585226e+003,2.602151e-003
1.587154e+003,2.652210e-003
1.589083e+003,2.608898e-003
1.591011e+003,2.640611e-003
1.592940e+003,2.550248e-003
1.594868e+003,2.573473e-003
1.596797e+003,2.525931e-003
1.598725e+003,2.575748e-003
1.600654e+003,2.509721e-003
1.602582e+003,2.560134e-003
1.604511e+003,2.545658e-003
1.606439e+003,2.670290e-003
1.608368e+003,2.664199e-003
1.610296e+003,2.761569e-003
1.612225e+003,2.752113e-003
1.614153e+003,2.844037e-003
1.616082e+003,2.873698e-003
1.618010e+003,3.083202e-003
1.619939e+003,3.149829e-003
1.621867e+003,3.363878e-003
1.623796e+003,3.466503e-003
1.625724e+003,3.622260e-003
1.627653e+003,3.686357e-003
1.629581e+003,3.823562e-003
1.631510e+003,3.878343e-003
1.633438e+003,4.018082e-003
1.635367e+003,4.150644e-003
1.637295e+003,4.491009e-003
1.639224e+003,4.648227e-003
1.641152e+003,4.815264e-003
1.643081e+003,4.721629e-003
1.645009e+003,4.705724e-003
1.646938e+003,4.514105e-003
1.648866e+003,4.298906e-003
1.650795e+003,4.065485e-003
1.652723e+003,4.139793e-003
1.654652e+003,4.065594e-003
1.656580e+003,4.051053e-003
1.658509e+003,3.966867e-003
1.660437e+003,3.993657e-003
1.662366e+003,3.936014e-003
1.664294e+003,3.751305e-003
1.666223e+003,3.490430e-003
1.668151e+003,3.445611e-003
1.670080e+003,3.314406e-003
1.672008e+003,3.248001e-003
1.673937e+003,3.100474e-003
1.675865e+003,3.002307e-003
1.677794e+003,2.841651e-003
1.679722e+003,2.840678e-003
1.681651e+003,2.661303e-003
1.683579e+003,2.669022e-003
1.685508e+003,2.219995e-003
1.687436e+003,2.200529e-003
1.689365e+003,2.053316e-003
1.691293e+003,1.929631e-003
1.693222e+003,1.787230e-003
1.695150e+003,1.769532e-003
1.697079e+003,1.532970e-003
1.699007e+003,1.537645e-003
1.700936e+003,1.167707e-003
1.702864e+003,1.181641e-003
1.704793e+003,1.041346e-003
1.706721e+003,1.056710e-003
1.708650e+003,1.042846e-003
1.710578e+003,1.091430e-003
1.712507e+003,1.109502e-003
1.714435e+003,1.267057e-003
1.716364e+003,1.167735e-003
1.718292e+003,1.042595e-003
1.720221e+003,8.909982e-004
1.722149e+003,9.603221e-004
1.724078e+003,1.000621e-003
1.726006e+003,1.144826e-003
1.727935e+003,1.243855e-003
1.729863e+003,1.504888e-003
1.731792e+003,1.565218e-003
1.733720e+003,1.784530e-003
1.735649e+003,1.708457e-003
1.737577e+003,1.815343e-003
1.739506e+003,1.936979e-003
1.741434e+003,2.150562e-003
1.743363e+003,2.211656e-003
1.745291e+003,2.239015e-003
1.747220e+003,2.166603e-003
1.749148e+003,2.050020e-003
1.751077e+003,1.632895e-003
1.753005e+003,1.279234e-003
1.754934e+003,9.699548e-004
1.756862e+003,6.875349e-004
1.758791e+003,3.438555e-004
1.760719e+003,2.707522e-004
1.762648e+003,9.706616e-005
1.764576e+003,4.812889e-005
1.766505e+003,-6.828737e-005
1.768433e+003,-9.495486e-005
1.770362e+003,-1.853248e-004
1.772290e+003,-1.258804e-004
1.774219e+003,-2.589626e-004
1.776147e+003,-2.789591e-004
1.778076e+003,-3.043404e-004
1.780004e+003,-1.804689e-004
1.781933e+003,-3.561564e-004
1.783861e+003,-3.496073e-004
1.785790e+003,-4.287083e-004
1.787718e+003,-4.289392e-004
1.789646e+003,-4.875250e-004
1.791575e+003,-3.789384e-004
1.793504e+003,-4.660301e-004
1.795432e+003,-4.698886e-004
1.797361e+003,-6.603310e-004
1.799289e+003,-6.695772e-004
1.801218e+003,-6.226581e-004
1.803146e+003,-4.699361e-004
1.805074e+003,-5.875425e-004
1.807003e+003,-5.603610e-004
1.808932e+003,-6.123837e-004
1.810860e+003,-7.155193e-004
1.812789e+003,-9.284522e-004
1.814717e+003,-1.102468e-003
1.816646e+003,-1.241966e-003
1.818574e+003,-7.684464e-004
1.820502e+003,-6.215936e-004
1.822431e+003,-6.799186e-004
1.824360e+003,-8.343952e-004
1.826288e+003,-6.959820e-004
1.828217e+003,-7.118508e-004
1.830145e+003,-7.694559e-004
1.832073e+003,-1.168755e-003
1.834002e+003,-1.217736e-003
1.835931e+003,-1.346888e-003
1.837859e+003,-1.350778e-003
1.839788e+003,-1.435093e-003
1.841716e+003,-1.220444e-003
1.843645e+003,-1.240022e-003
1.845573e+003,-1.331177e-003
1.847501e+003,-1.395318e-003
1.849430e+003,-1.305575e-003
1.851359e+003,-1.443809e-003
1.853287e+003,-1.374100e-003
1.855216e+003,-1.341463e-003
1.857144e+003,-1.290975e-003
1.859073e+003,-1.405690e-003
1.861001e+003,-1.325776e-003
1.862929e+003,-1.540978e-003
1.864858e+003,-1.529498e-003
1.866787e+003,-1.628558e-003
1.868715e+003,-1.528737e-003
1.870644e+003,-1.616375e-003
1.872572e+003,-1.478589e-003
1.874500e+003,-1.569053e-003
1.876429e+003,-1.601775e-003
1.878357e+003,-1.710885e-003
1.880286e+003,-1.436355e-003
1.882215e+003,-1.425163e-003
1.884143e+003,-1.294776e-003
1.886072e+003,-1.197960e-003
1.888000e+003,-8.191019e-004
1.889928e+003,-8.168453e-004
1.891857e+003,-6.149709e-004
1.893785e+003,-6.923275e-004
1.895714e+003,-5.308073e-004
1.897643e+003,-5.556056e-004
1.899571e+003,-2.937401e-004
1.901500e+003,-2.889354e-004
1.903428e+003,-2.841335e-004
1.905356e+003,-2.793362e-004
1.907285e+003,-2.745427e-004
1.909213e+003,-2.697548e-004
1.911142e+003,-2.649697e-004
1.913071e+003,-2.601910e-004
1.914999e+003,-2.554161e-004
1.916927e+003,-2.506441e-004
1.918856e+003,-2.458794e-004
1.920784e+003,-2.411166e-004
1.922713e+003,-2.363557e-004
1.924641e+003,-2.316013e-004
1.926570e+003,-2.268534e-004
1.928499e+003,-2.221074e-004
1.930427e+003,-2.173660e-004
1.932355e+003,-2.126293e-004
1.934284e+003,-2.078982e-004
1.936212e+003,-2.031690e-004
1.938141e+003,-1.984462e-004
1.940070e+003,-1.937272e-004
1.941998e+003,-1.890110e-004
1.943927e+003,-1.843013e-004
1.945855e+003,-1.795953e-004
1.947783e+003,-1.748912e-004
1.949712e+003,-1.701917e-004
1.951640e+003,-1.654988e-004
1.953569e+003,-1.608096e-004
1.955498e+003,-1.561251e-004
1.957426e+003,-1.514433e-004
1.959354e+003,-1.467671e-004
1.961283e+003,-1.420956e-004
1.963211e+003,-1.374278e-004
1.965140e+003,-1.327638e-004
1.967068e+003,-1.281034e-004
1.968997e+003,-1.234477e-004
1.970926e+003,-1.187986e-004
1.972854e+003,-1.141513e-004
1.974782e+003,-1.095105e-004
1.976711e+003,-1.048706e-004
1.978639e+003,-1.002401e-004
1.980568e+003,-9.560958e-005
1.982496e+003,-9.098463e-005
1.984425e+003,-8.636527e-005
1.986354e+003,-8.174777e-005
1.988282e+003,-7.713679e-005
1.990210e+003,-7.252768e-005
1.992139e+003,-6.792415e-005
1.994067e+003,-6.332435e-005
1.995996e+003,-5.872920e-005
1.997924e+003,-5.413871e-005
1.999853e+003,-4.955381e-005
2.001781e+003,-4.497170e-005
2.003710e+003,-4.039425e-005
2.005638e+003,-3.582053e-005
2.007567e+003,-3.125146e-005
2.009495e+003,-2.668519e-005
2.011424e+003,-2.212450e-005
2.013352e+003,-1.757033e-005
2.015281e+003,-1.301803e-005
2.017209e+003,-8.469447e-006
2.019138e+003,-3.926456e-006
2.021066e+003,6.109476e-007
2.022995e+003,5.145557e-006
2.024923e+003,9.675510e-006
2.026852e+003,1.420267e-005
2.028781e+003,1.872424e-005
2.030709e+003,2.324022e-005
2.032637e+003,2.775528e-005
2.034566e+003,3.226474e-005
2.036494e+003,3.676862e-005
2.038423e+003,4.126877e-005
2.040351e+003,4.576333e-005
2.042280e+003,5.025603e-005
2.044208e+003,5.474314e-005
2.046137e+003,5.922467e-005
2.048065e+003,6.370433e-005
2.049994e+003,6.817933e-005
2.051922e+003,7.265061e-005
2.053851e+003,7.711630e-005
2.055779e+003,8.157641e-005
2.057708e+003,8.603558e-005
2.059636e+003,9.048916e-005
2.061565e+003,9.493623e-005
2.063493e+003,9.937957e-005
2.065422e+003,1.038201e-004
2.067350e+003,1.082560e-004
2.069279e+003,1.126872e-004
2.071207e+003,1.171138e-004
2.073136e+003,1.215357e-004
2.075064e+003,1.259567e-004
2.076993e+003,1.303721e-004
2.078921e+003,1.347810e-004
2.080850e+003,1.391862e-004
2.082778e+003,1.435885e-004
2.084707e+003,1.479853e-004
2.086635e+003,1.523765e-004
2.088564e+003,1.567639e-004
2.090492e+003,1.611486e-004
2.092421e+003,1.655277e-004
2.094349e+003,1.699077e-004
2.096278e+003,1.742784e-004
2.098206e+003,1.786426e-004
2.100135e+003,1.830067e-004
2.102063e+003,1.873644e-004
2.103992e+003,1.917183e-004
2.105920e+003,1.960676e-004
2.107849e+003,2.004141e-004
2.109777e+003,2.047531e-004
2.111706e+003,2.090912e-004
2.113634e+003,2.134219e-004
2.115563e+003,2.177507e-004
2.117491e+003,2.220748e-004
2.119420e+003,2.263952e-004
2.121348e+003,2.307110e-004
2.123277e+003,2.350230e-004
2.125205e+003,2.393294e-004
2.127134e+003,2.436321e-004
2.129062e+003,2.479292e-004
2.130991e+003,2.522226e-004
2.132919e+003,2.565114e-004
2.134848e+003,2.607973e-004
2.136776e+003,2.650805e-004
2.138705e+003,2.693571e-004
2.140633e+003,2.736282e-004
2.142562e+003,2.778964e-004
2.144490e+003,2.821591e-004
2.146419e+003,2.864189e-004
2.148347e+003,2.906751e-004
2.150276e+003,2.949238e-004
2.152204e+003,2.991706e-004
2.154133e+003,3.034128e-004
2.156061e+003,3.076512e-004
2.157990e+003,3.118841e-004
2.159918e+003,3.161132e-004
2.161847e+003,3.203396e-004
2.163775e+003,3.245622e-004
2.165704e+003,3.287774e-004
2.167632e+003,3.329888e-004
2.169561e+003,3.371965e-004
2.171489e+003,3.414005e-004
2.173418e+003,3.455980e-004
2.175346e+003,3.497945e-004
2.177275e+003,3.539845e-004
2.179203e+003,3.581727e-004
2.181132e+003,3.623534e-004
2.183060e+003,3.665322e-004
2.184989e+003,3.707055e-004
2.186917e+003,3.748741e-004
2.188846e+003,3.790390e-004
2.190774e+003,3.832001e-004
2.192703e+003,3.873538e-004
2.194631e+003,3.915075e-004
2.196560e+003,3.956556e-004
2.198488e+003,3.997963e-004
2.200417e+003,4.039351e-004
2.202345e+003,4.080702e-004
2.204274e+003,4.122024e-004
2.206202e+003,4.163273e-004
2.208131e+003,4.204493e-004
2.210059e+003,4.245676e-004
2.211988e+003,4.286813e-004
2.213916e+003,4.327903e-004
2.215845e+003,4.368955e-004
2.217773e+003,4.409924e-004
2.219702e+003,4.450902e-004
2.221630e+003,4.491825e-004
2.223559e+003,4.532710e-004
2.225487e+003,4.573539e-004
2.227416e+003,4.614312e-004
2.229344e+003,4.655067e-004
2.231273e+003,4.695747e-004
2.233201e+003,4.736409e-004
2.235130e+003,4.777033e-004
2.237058e+003,4.817611e-004
2.238987e+003,4.858132e-004
2.240915e+003,4.898636e-004
2.242844e+003,4.939064e-004
2.244772e+003,4.979465e-004
2.246701e+003,5.019847e-004
2.248629e+003,5.060136e-004
2.250558e+003,5.100425e-004
2.252486e+003,5.140640e-004
2.254415e+003,5.180836e-004
2.256343e+003,5.220976e-004
2.258272e+003,5.261078e-004
2.260200e+003,5.301144e-004
2.262129e+003,5.341144e-004
2.264057e+003,5.381107e-004
2.265986e+003,5.421061e-004
2.267914e+003,5.460940e-004
2.269843e+003,5.500792e-004
2.271771e+003,5.540587e-004
2.273700e+003,5.580336e-004
2.275628e+003,5.620047e-004
2.277557e+003,5.659712e-004
2.279485e+003,5.699331e-004
2.281414e+003,5.738921e-004
2.283342e+003,5.778465e-004
2.285271e+003,5.817963e-004
2.287199e+003,5.857414e-004
2.289128e+003,5.896818e-004
2.291056e+003,5.936194e-004
2.292985e+003,5.975533e-004
2.294913e+003,6.014807e-004
2.296842e+003,6.054044e-004
2.298770e+003,6.093252e-004
2.300699e+003,6.132396e-004
2.302627e+003,6.171493e-004
2.304556e+003,6.210571e-004
2.306484e+003,6.249584e-004
2.308413e+003,6.288588e-004
2.310341e+003,6.327527e-004
2.312270e+003,6.366437e-004
2.314198e+003,6.405283e-004
2.316127e+003,6.444100e-004
2.318055e+003,6.482853e-004
2.319984e+003,6.521586e-004
2.321912e+003,6.560236e-004
2.323841e+003,6.598877e-004
2.325769e+003,6.637471e-004
2.327698e+003,6.676018e-004
2.329626e+003,6.714528e-004
2.331555e+003,6.753039e-004
2.333483e+003,6.791446e-004
2.335412e+003,6.829826e-004
2.337340e+003,6.868159e-004
2.339269e+003,6.906446e-004
2.341197e+003,6.944695e-004
2.343126e+003,6.982917e-004
2.345054e+003,7.021083e-004
2.346983e+003,7.059192e-004
2.348911e+003,7.097255e-004
2.350840e+003,7.135328e-004
2.352768e+003,7.173307e-004
2.354697e+003,7.211240e-004
2.356625e+003,7.249163e-004
2.358554e+003,7.287031e-004
2.360482e+003,7.324852e-004
2.362411e+003,7.362617e-004
2.364339e+003,7.400345e-004
2.366268e+003,7.438036e-004
2.368196e+003,7.475698e-004
2.370125e+003,7.513305e-004
2.372053e+003,7.550865e-004
2.373982e+003,7.588370e-004
2.375910e+003,7.625874e-004
2.377839e+003,7.663304e-004
2.379767e+003,7.700678e-004
2.381696e+003,7.738043e-004
2.383624e+003,7.775351e-004
2.385553e+003,7.812604e-004
2.387481e+003,7.849811e-004
2.389410e+003,7.886980e-004
2.391338e+003,7.924112e-004
2.393267e+003,7.961225e-004
2.395195e+003,7.998273e-004
2.397124e+003,8.035284e-004
2.399052e+003,8.072229e-004
2.400981e+003,8.369489e-004
2.402909e+003,8.442765e-004
2.404838e+003,9.068940e-004
2.406766e+003,1.147332e-003
2.408695e+003,1.317542e-003
2.410623e+003,1.219904e-003
2.412552e+003,1.217465e-003
2.414480e+003,1.319834e-003
2.416409e+003,1.514975e-003
2.418337e+003,1.586000e-003
2.420266e+003,1.551796e-003
2.422194e+003,1.387350e-003
2.424123e+003,1.372572e-003
2.426051e+003,1.275738e-003
2.427979e+003,1.210395e-003
2.429908e+003,1.175109e-003
2.431837e+003,1.148580e-003
2.433765e+003,1.083133e-003
2.435694e+003,1.193472e-003
2.437622e+003,1.270628e-003
2.439551e+003,1.284868e-003
2.441479e+003,1.307501e-003
2.443407e+003,1.309572e-003
2.445336e+003,1.266272e-003
2.447265e+003,1.530780e-003
2.449193e+003,1.684514e-003
2.451122e+003,1.705775e-003
2.453050e+003,1.758887e-003
2.454979e+003,1.835589e-003
2.456907e+003,1.762180e-003
2.458836e+003,1.684795e-003
2.460764e+003,1.654573e-003
2.462693e+003,1.700182e-003
2.464621e+003,1.542509e-003
2.466550e+003,1.479693e-003
2.468478e+003,1.493635e-003
2.470406e+003,1.608652e-003
2.472335e+003,1.800129e-003
2.474264e+003,2.003339e-003
2.476192e+003,1.976440e-003
2.478121e+003,1.956381e-003
2.480049e+003,1.985817e-003
2.481978e+003,2.037766e-003
2.483906e+003,1.863919e-003
2.485835e+003,1.794052e-003
2.487763e+003,1.790255e-003
2.489692e+003,2.030404e-003
2.491620e+003,2.042166e-003
2.493549e+003,2.057282e-003
2.495477e+003,2.201885e-003
2.497406e+003,2.205626e-003
2.499334e+003,2.153726e-003
2.501263e+003,2.242468e-003
2.503191e+003,2.264815e-003
2.505120e+003,2.176539e-003
2.507048e+003,2.184756e-003
2.508977e+003,2.257291e-003
2.510905e+003,2.172563e-003
2.512833e+003,2.369410e-003
2.514762e+003,2.541838e-003
2.516691e+003,2.737685e-003
2.518619e+003,2.769078e-003
2.520548e+003,2.880329e-003
2.522476e+003,3.166315e-003
2.524405e+003,3.299710e-003
2.526333e+003,3.087249e-003
2.528261e+003,3.037695e-003
2.530190e+003,3.143281e-003
2.532119e+003,3.319380e-003
2.534047e+003,3.301371e-003
2.535976e+003,3.195944e-003
2.537904e+003,3.207033e-003
2.539833e+003,3.320778e-003
2.541761e+003,3.405420e-003
2.543689e+003,3.716087e-003
2.545618e+003,3.944119e-003
2.547547e+003,3.974059e-003
2.549475e+003,3.998111e-003
2.551404e+003,4.140755e-003
2.553332e+003,4.345098e-003
2.555260e+003,4.495615e-003
2.557189e+003,4.455023e-003
2.559117e+003,4.409165e-003
2.561046e+003,4.547387e-003
2.562975e+003,4.730251e-003
2.564903e+003,4.787502e-003
2.566832e+003,4.949814e-003
2.568760e+003,5.031385e-003
2.570688e+003,5.162961e-003
2.572617e+003,5.334130e-003
2.574546e+003,5.615570e-003
2.576474e+003,5.875943e-003
2.578403e+003,5.911769e-003
2.580331e+003,5.948571e-003
2.582260e+003,6.202538e-003
2.584188e+003,6.504342e-003
2.586116e+003,6.700041e-003
2.588045e+003,6.824519e-003
2.589974e+003,7.030052e-003
2.591902e+003,7.315078e-003
2.593831e+003,7.591299e-003
2.595759e+003,7.831568e-003
2.597688e+003,8.086915e-003
2.599616e+003,8.203667e-003
2.601544e+003,8.367025e-003
2.603473e+003,8.623420e-003
2.605402e+003,8.836885e-003
2.607330e+003,9.102747e-003
2.609259e+003,9.407681e-003
2.611187e+003,9.636828e-003
2.613115e+003,9.957515e-003
2.615044e+003,1.023647e-002
2.616972e+003,1.058847e-002
2.618901e+003,1.101104e-002
2.620830e+003,1.135171e-002
2.622758e+003,1.167308e-002
2.624687e+003,1.220550e-002
2.626615e+003,1.279292e-002
2.628543e+003,1.323614e-002
2.630472e+003,1.358730e-002
2.632400e+003,1.389690e-002
2.634329e+003,1.414139e-002
2.636258e+003,1.422680e-002
2.638186e+003,1.410410e-002
2.640115e+003,1.403965e-002
2.642043e+003,1.403050e-002
2.643971e+003,1.408088e-002
2.645900e+003,1.411017e-002
2.647828e+003,1.412707e-002
2.649757e+003,1.424455e-002
2.651686e+003,1.444375e-002
2.653614e+003,1.465229e-002
2.655542e+003,1.484369e-002
2.657471e+003,1.491766e-002
2.659399e+003,1.493855e-002
2.661328e+003,1.485688e-002
2.663256e+003,1.457503e-002
2.665185e+003,1.426043e-002
2.667114e+003,1.400358e-002
2.669042e+003,1.372825e-002
2.670970e+003,1.348996e-002
2.672899e+003,1.325109e-002
2.674827e+003,1.304502e-002
2.676756e+003,1.291144e-002
2.678685e+003,1.280568e-002
2.680613e+003,1.272683e-002
2.682542e+003,1.273059e-002
2.684470e+003,1.270503e-002
2.686398e+003,1.269369e-002
2.688327e+003,1.268533e-002
2.690255e+003,1.263798e-002
2.692184e+003,1.263105e-002
2.694113e+003,1.272477e-002
2.696041e+003,1.290383e-002
2.697969e+003,1.308503e-002
2.699898e+003,1.327255e-002
2.701826e+003,1.347551e-002
2.703755e+003,1.364281e-002
2.705683e+003,1.385475e-002
2.707612e+003,1.410260e-002
2.709541e+003,1.423145e-002
2.711469e+003,1.434928e-002
2.713397e+003,1.450842e-002
2.715326e+003,1.467909e-002
2.717254e+003,1.488628e-002
2.719183e+003,1.509890e-002
2.721111e+003,1.536393e-002
2.723040e+003,1.566790e-002
2.724969e+003,1.593171e-002
2.726897e+003,1.622598e-002
2.728825e+003,1.652233e-002
2.730754e+003,1.680659e-002
2.732682e+003,1.715408e-002
2.734611e+003,1.747144e-002
2.736539e+003,1.771978e-002
2.738468e+003,1.797885e-002
2.740396e+003,1.811864e-002
2.742325e+003,1.813577e-002
2.744253e+003,1.820310e-002
2.746182e+003,1.830481e-002
2.748110e+003,1.841257e-002
2.750039e+003,1.857943e-002
2.751967e+003,1.885728e-002
2.753896e+003,1.919409e-002
2.755824e+003,1.955720e-002
2.757753e+003,2.005515e-002
2.759681e+003,2.048059e-002
2.761610e+003,2.083788e-002
2.763538e+003,2.129856e-002
2.765467e+003,2.187369e-002
2.767395e+003,2.253856e-002
2.769324e+003,2.313366e-002
2.771252e+003,2.372302e-002
2.773181e+003,2.444984e-002
2.775109e+003,2.525029e-002
2.777038e+003,2.611391e-002
2.778966e+003,2.711331e-002
2.780895e+003,2.824519e-002
2.782823e+003,2.944794e-002
2.784752e+003,3.078342e-002
2.786680e+003,3.224057e-002
2.788609e+003,3.378160e-002
2.790537e+003,3.534371e-002
2.792466e+003,3.702432e-002
2.794394e+003,3.871862e-002
2.796323e+003,4.037866e-002
2.798251e+003,4.213863e-002
2.800180e+003,4.397091e-002
2.802108e+003,4.597937e-002
2.804037e+003,4.817569e-002
2.805965e+003,5.055167e-002
2.807894e+003,5.322950e-002
2.809822e+003,5.627518e-002
2.811751e+003,5.975035e-002
2.813679e+003,6.382896e-002
2.815608e+003,6.849979e-002
2.817536e+003,7.390996e-002
2.819465e+003,8.026312e-002
2.821393e+003,8.782421e-002
2.823322e+003,9.698820e-002
2.825250e+003,1.082862e-001
2.827179e+003,1.223308e-001
2.829107e+003,1.399205e-001
2.831036e+003,1.623446e-001
2.832964e+003,1.917000e-001
2.834893e+003,2.313930e-001
2.836821e+003,2.859523e-001
2.838750e+003,3.627775e-001
2.840678e+003,4.741264e-001
2.842607e+003,6.337528e-001
2.844535e+003,8.382940e-001
2.846464e+003,1.010177e+000
2.848392e+003,9.799030e-001
2.850321e+003,7.516950e-001
2.852249e+003,5.239649e-001
2.854178e+003,3.749404e-001
2.856106e+003,2.810351e-001
2.858035e+003,2.176896e-001
2.859963e+003,1.743447e-001
2.861892e+003,1.455059e-001
2.863820e+003,1.272277e-001
2.865749e+003,1.168518e-001
2.867677e+003,1.126076e-001
2.869606e+003,1.133511e-001
2.871534e+003,1.185710e-001
2.873463e+003,1.284539e-001
2.875391e+003,1.434320e-001
2.877320e+003,1.632065e-001
2.879248e+003,1.867672e-001
2.881177e+003,2.128115e-001
2.883105e+003,2.398615e-001
2.885034e+003,2.673353e-001
2.886962e+003,2.949551e-001
2.888891e+003,3.224639e-001
2.890819e+003,3.496464e-001
2.892748e+003,3.764486e-001
2.894676e+003,4.029370e-001
2.896605e+003,4.297388e-001
2.898533e+003,4.578966e-001
2.900462e+003,4.896509e-001
2.902390e+003,5.286550e-001
2.904319e+003,5.801120e-001
2.906247e+003,6.497849e-001
2.908176e+003,7.420692e-001
2.910104e+003,8.549010e-001
2.912033e+003,9.687200e-001
2.913961e+003,1.035899e+000
2.915890e+003,1.008484e+000
2.917818e+003,8.945178e-001
2.919747e+003,7.485316e-001
2.921675e+003,6.121363e-001
2.923604e+003,4.997271e-001
2.925532e+003,4.117593e-001
2.927461e+003,3.424796e-001
2.929389e+003,2.857028e-001
2.931318e+003,2.378264e-001
2.933246e+003,1.972925e-001
2.935175e+003,1.632130e-001
2.937103e+003,1.346391e-001
2.939032e+003,1.107674e-001
2.940960e+003,9.089535e-002
2.942889e+003,7.484612e-002
2.944817e+003,6.230211e-002
2.946746e+003,5.280688e-002
2.948674e+003,4.571865e-002
2.950603e+003,4.042189e-002
2.952531e+003,3.624234e-002
2.954460e+003,3.256069e-002
2.956388e+003,2.927905e-002
2.958317e+003,2.634752e-002
2.960245e+003,2.367019e-002
2.962174e+003,2.108805e-002
2.964102e+003,1.873465e-002
2.966031e+003,1.664431e-002
2.967959e+003,1.470630e-002
2.969888e+003,1.306729e-002
2.971816e+003,1.165635e-002
2.973745e+003,1.040439e-002
2.975673e+003,9.356929e-003
2.977602e+003,8.499979e-003
2.979530e+003,7.666840e-003
2.981459e+003,6.938315e-003
2.983387e+003,6.326066e-003
2.985316e+003,5.819689e-003
2.987244e+003,5.406147e-003
2.989173e+003,5.023729e-003
2.991101e+003,4.674036e-003
2.993030e+003,4.325260e-003
2.994958e+003,4.125252e-003
2.996887e+003,3.985742e-003
2.998815e+003,3.857838e-003
3.000744e+003,3.750697e-003
3.002672e+003,3.704939e-003
3.004601e+003,3.641913e-003
3.006529e+003,3.499307e-003
3.008458e+003,3.373554e-003
3.010386e+003,3.287053e-003
3.012315e+003,3.157763e-003
3.014243e+003,3.019147e-003
3.016172e+003,2.926338e-003
3.018100e+003,2.936080e-003
3.020029e+003,2.934666e-003
3.021957e+003,2.916344e-003
3.023886e+003,2.917876e-003
3.025814e+003,2.931081e-003
3.027743e+003,2.821105e-003
3.029671e+003,2.745569e-003
3.031600e+003,2.657749e-003
3.033528e+003,2.557810e-003
3.035457e+003,2.398996e-003
3.037385e+003,2.264420e-003
3.039314e+003,2.167637e-003
3.041242e+003,2.041807e-003
3.043171e+003,1.865298e-003
3.045099e+003,1.645695e-003
3.047028e+003,1.503801e-003
3.048956e+003,1.449501e-003
3.050885e+003,1.334028e-003
3.052813e+003,1.170354e-003
3.054742e+003,1.008481e-003
3.056670e+003,9.504426e-004
3.058599e+003,9.777434e-004
3.060527e+003,9.628907e-004
3.062456e+003,8.960050e-004
3.064384e+003,9.300187e-004
3.066313e+003,9.195078e-004
3.068241e+003,8.850340e-004
3.070170e+003,7.592700e-004
3.072098e+003,8.046068e-004
3.074027e+003,9.326246e-004
3.075955e+003,8.721408e-004
3.077884e+003,7.258411e-004
3.079812e+003,6.115511e-004
3.081741e+003,5.444176e-004
3.083669e+003,5.252287e-004
3.085598e+003,5.274713e-004
3.087526e+003,4.349537e-004
3.089455e+003,3.043003e-004
3.091383e+003,1.702700e-004
3.093312e+003,-1.268648e-005
3.095240e+003,-1.703929e-004
3.097169e+003,-4.655141e-004
3.099097e+003,-6.839093e-004
3.101026e+003,-8.045267e-004
3.102954e+003,-9.456277e-004
3.104883e+003,-1.123341e-003
3.106811e+003,-1.285963e-003
3.108740e+003,-1.295200e-003
3.110668e+003,-1.363579e-003
3.112597e+003,-1.508968e-003
3.114525e+003,-1.572279e-003
3.116454e+003,-1.545852e-003
3.118382e+003,-1.552640e-003
3.120311e+003,-1.565233e-003
3.122239e+003,-1.463326e-003
3.124168e+003,-1.369743e-003
3.126096e+003,-1.485400e-003
3.128025e+003,-1.610979e-003
3.129953e+003,-1.585284e-003
3.131882e+003,-1.587434e-003
3.133810e+003,-1.588255e-003
3.135739e+003,-1.602475e-003
3.137667e+003,-1.620904e-003
3.139596e+003,-1.590839e-003
3.141524e+003,-1.479516e-003
3.143453e+003,-1.432516e-003
3.145381e+003,-1.422277e-003
3.147310e+003,-1.356507e-003
3.149238e+003,-1.395604e-003
3.151167e+003,-1.470605e-003
3.153095e+003,-1.404850e-003
3.155024e+003,-1.339117e-003
3.156952e+003,-1.214309e-003
3.158881e+003,-1.154140e-003
3.160809e+003,-1.222230e-003
3.162738e+003,-1.310101e-003
3.164666e+003,-1.388889e-003
3.166594e+003,-1.371959e-003
3.168523e+003,-1.280712e-003
3.170452e+003,-1.197623e-003
3.172380e+003,-1.086906e-003
3.174309e+003,-9.820499e-004
3.176237e+003,-9.116642e-004
3.178166e+003,-9.889193e-004
3.180094e+003,-9.733308e-004
3.182022e+003,-8.754097e-004
3.183951e+003,-7.975157e-004
3.185880e+003,-7.233731e-004
3.187808e+003,-7.347297e-004
3.189737e+003,-7.187296e-004
3.191665e+003,-6.857403e-004
3.193594e+003,-5.965494e-004
3.195522e+003,-4.801378e-004
3.197450e+003,-3.923755e-004
3.199379e+003,-3.866665e-004
3.201308e+003,-4.252456e-004
3.203236e+003,-4.569758e-004
3.205165e+003,-3.976487e-004
3.207093e+003,-2.991054e-004
3.209021e+003,-2.946928e-004
3.210950e+003,-3.812313e-004
3.212878e+003,-3.164727e-004
3.214807e+003,-1.297183e-004
3.216736e+003,-5.464442e-005
3.218664e+003,-5.880184e-005
3.220593e+003,-4.719198e-005
3.222521e+003,1.407415e-005
3.224449e+003,6.794371e-005
3.226378e+003,9.544194e-005
3.228307e+003,1.155958e-004
3.230235e+003,1.550689e-004
3.232164e+003,1.102854e-004
3.234092e+003,7.146038e-005
3.236021e+003,8.255430e-005
3.237949e+003,1.573991e-004
3.239877e+003,2.796147e-004
3.241806e+003,3.864300e-004
3.243735e+003,4.410520e-004
3.245663e+003,4.508048e-004
3.247592e+003,5.517658e-004
3.249520e+003,6.260052e-004
3.251448e+003,6.137937e-004
3.253377e+003,5.990174e-004
3.255305e+003,6.603356e-004
3.257234e+003,8.710958e-004
3.259163e+003,1.036135e-003
3.261091e+003,1.026675e-003
3.263020e+003,1.014106e-003
3.264948e+003,1.027545e-003
3.266876e+003,1.067577e-003
3.268805e+003,1.152819e-003
3.270733e+003,1.266269e-003
3.272662e+003,1.417074e-003
3.274591e+003,1.389911e-003
3.276519e+003,1.370743e-003
3.278448e+003,1.406824e-003
3.280376e+003,1.406608e-003
3.282304e+003,1.394162e-003
3.284233e+003,1.483647e-003
3.286161e+003,1.597410e-003
3.288090e+003,1.641139e-003
3.290019e+003,1.581375e-003
3.291947e+003,1.523582e-003
3.293875e+003,1.624817e-003
3.295804e+003,1.676191e-003
3.297732e+003,1.648843e-003
3.299661e+003,1.622429e-003
3.301589e+003,1.581738e-003
3.303518e+003,1.594655e-003
3.305447e+003,1.623034e-003
3.307375e+003,1.724619e-003
3.309303e+003,1.876626e-003
3.311232e+003,1.708565e-003
3.313160e+003,1.544653e-003
3.315089e+003,1.525400e-003
3.317018e+003,1.561409e-003
3.318946e+003,1.648001e-003
3.320875e+003,1.623774e-003
3.322803e+003,1.603425e-003
3.324731e+003,1.598047e-003
3.326660e+003,1.716925e-003
3.328588e+003,1.772521e-003
3.330517e+003,1.691349e-003
3.332446e+003,1.581335e-003
3.334374e+003,1.552705e-003
3.336302e+003,1.647461e-003
3.338231e+003,1.709929e-003
3.340159e+003,1.715586e-003
3.342088e+003,1.724312e-003
3.344016e+003,1.696533e-003
3.345945e+003,1.643244e-003
3.347874e+003,1.681149e-003
3.349802e+003,1.807120e-003
3.351730e+003,1.785779e-003
3.353659e+003,1.717610e-003
3.355587e+003,1.661971e-003
3.357516e+003,1.579715e-003
3.359444e+003,1.542160e-003
3.361373e+003,1.560800e-003
3.363302e+003,1.558134e-003
3.365230e+003,1.602648e-003
3.367158e+003,1.717422e-003
3.369087e+003,1.729146e-003
3.371015e+003,1.664534e-003
3.372944e+003,1.634242e-003
3.374872e+003,1.582842e-003
3.376801e+003,1.573764e-003
3.378729e+003,1.623303e-003
3.380658e+003,1.540208e-003
3.382586e+003,1.537822e-003
3.384515e+003,1.567509e-003
3.386443e+003,1.448929e-003
3.388372e+003,1.352696e-003
3.390300e+003,1.381874e-003
3.392229e+003,1.355324e-003
3.394157e+003,1.301907e-003
3.396086e+003,1.304243e-003
3.398014e+003,1.297362e-003
3.399943e+003,1.320133e-003
3.401871e+003,1.263449e-003
3.403800e+003,1.191910e-003
3.405728e+003,1.245812e-003
3.407657e+003,1.297209e-003
3.409585e+003,1.247950e-003
3.411514e+003,1.177460e-003
3.413442e+003,1.141351e-003
3.415371e+003,1.157196e-003
3.417299e+003,1.218388e-003
3.419228e+003,1.233399e-003
3.421156e+003,1.224838e-003
3.423085e+003,1.309773e-003
3.425013e+003,1.281656e-003
3.426942e+003,1.136495e-003
3.428870e+003,1.068141e-003
3.430799e+003,1.123341e-003
3.432727e+003,1.159202e-003
3.434656e+003,1.129227e-003
3.436584e+003,1.200158e-003
3.438513e+003,1.231961e-003
3.440441e+003,1.204554e-003
3.442370e+003,1.183864e-003
3.444298e+003,1.031376e-003
3.446227e+003,9.248853e-004
3.448155e+003,8.528586e-004
3.450084e+003,8.643810e-004
3.452012e+003,8.354280e-004
3.453941e+003,8.240417e-004
3.455869e+003,8.816198e-004
3.457798e+003,9.645633e-004
3.459726e+003,9.347983e-004
3.461655e+003,7.996112e-004
3.463583e+003,6.435793e-004
3.465512e+003,6.099641e-004
3.467440e+003,6.147046e-004
3.469369e+003,5.145203e-004
3.471297e+003,5.406383e-004
3.473226e+003,7.438678e-004
3.475154e+003,7.720683e-004
3.477083e+003,6.116536e-004
3.479011e+003,5.977619e-004
3.480940e+003,6.420668e-004
3.482868e+003,5.614012e-004
3.484797e+003,5.409662e-004
3.486725e+003,5.256329e-004
3.488654e+003,3.720801e-004
3.490582e+003,3.533252e-004
3.492511e+003,3.921501e-004
3.494439e+003,3.949516e-004
3.496368e+003,3.802851e-004
3.498296e+003,2.293158e-004
3.500225e+003,3.733076e-004
3.502153e+003,6.337985e-004
3.504082e+003,5.196556e-004
3.506010e+003,2.787579e-004
3.507939e+003,2.895165e-004
3.509867e+003,3.603455e-004
3.511796e+003,2.929457e-004
3.513724e+003,1.216363e-004
3.515653e+003,1.046564e-004
3.517581e+003,1.100544e-004
3.519510e+003,1.072995e-004
3.521438e+003,2.495367e-004
3.523367e+003,2.127979e-004
3.525295e+003,-1.771189e-005
3.527224e+003,-1.605786e-005
3.529152e+003,-4.610047e-006
3.531081e+003,-1.205374e-004
3.533009e+003,-3.229752e-004
3.534938e+003,-3.608428e-004
3.536866e+003,-3.116932e-004
3.538795e+003,-3.032759e-004
3.540723e+003,-2.617873e-004
3.542652e+003,-1.896098e-004
3.544580e+003,-7.904321e-005
3.546509e+003,-1.937915e-004
3.548437e+003,-5.869884e-004
3.550366e+003,-6.470680e-004
3.552294e+003,-3.898703e-004
3.554223e+003,-3.174208e-004
3.556151e+003,-3.901180e-004
3.558080e+003,-4.454721e-004
3.560008e+003,-4.222114e-004
3.561937e+003,-3.580004e-004
3.563865e+003,-3.214069e-004
3.565794e+003,-1.169108e-004
3.567722e+003,-2.044253e-004
3.569651e+003,-5.429070e-004
3.571579e+003,-6.893612e-004
3.573508e+003,-7.173587e-004
3.575436e+003,-6.400160e-004
3.577365e+003,-5.220659e-004
3.579293e+003,-4.823804e-004
3.581222e+003,-5.434137e-004
3.583150e+003,-4.772674e-004
3.585079e+003,-1.914836e-004
3.587007e+003,2.045278e-004
3.588936e+003,-4.380010e-005
3.590864e+003,-2.135821e-004
3.592793e+003,-9.264052e-005
3.594721e+003,1.837369e-004
3.596650e+003,4.813708e-004
3.598578e+003,8.811895e-004
3.600507e+003,1.375435e-003
3.602435e+003,1.451286e-003
3.604364e+003,1.333909e-003
3.606292e+003,1.592975e-003
3.608221e+003,1.783477e-003
3.610149e+003,1.308780e-003
3.612078e+003,1.078477e-003
3.614006e+003,7.401668e-004
3.615935e+003,3.406294e-004
3.617863e+003,2.891626e-004
3.619792e+003,2.330281e-004
3.621720e+003,1.443122e-004
3.623649e+003,1.218859e-004
3.625577e+003,-7.909164e-005
3.627506e+003,4.249066e-005
3.629434e+003,2.616402e-004
3.631363e+003,-3.340095e-005
3.633291e+003,-2.536196e-004
3.635220e+003,-3.280733e-004
3.637148e+003,-1.259316e-004
3.639077e+003,7.169694e-005
3.641005e+003,3.357958e-004
3.642934e+003,3.844835e-004
3.644862e+003,5.981214e-004
3.646791e+003,7.769801e-004
3.648719e+003,5.436148e-004
3.650648e+003,3.738273e-004
3.652576e+003,-2.028346e-004
3.654505e+003,-1.111086e-004
3.656433e+003,-5.975179e-005
3.658362e+003,-1.369957e-004
3.660290e+003,-2.735890e-004
3.662219e+003,-3.493447e-004
3.664147e+003,-1.112707e-004
3.666076e+003,5.430169e-005
3.668004e+003,4.076641e-004
3.669933e+003,7.280335e-004
3.671861e+003,-8.413754e-005
3.673790e+003,-1.538135e-004
3.675718e+003,-5.360879e-005
3.677647e+003,-1.375154e-004
3.679575e+003,-2.555046e-004
3.681504e+003,-4.317816e-004
3.683432e+003,-2.678037e-004
3.685361e+003,-1.083296e-004
3.687289e+003,2.289433e-004
3.689218e+003,3.982913e-004
3.691146e+003,2.024099e-004
3.693075e+003,-9.698793e-006
3.695003e+003,9.448081e-005
3.696932e+003,-8.640811e-006
3.698860e+003,-1.319181e-004
3.700789e+003,3.591739e-005
3.702717e+003,1.940262e-004
3.704646e+003,1.555774e-004
3.706574e+003,2.320856e-004
3.708503e+003,4.794728e-004
3.710431e+003,4.745517e-004
3.712360e+003,1.822524e-004
3.714288e+003,1.110565e-004
3.716217e+003,1.900364e-004
3.718145e+003,2.504066e-004
3.720074e+003,3.311280e-004
3.722002e+003,4.279818e-004
3.723931e+003,5.633868e-004
3.725859e+003,7.707588e-004
3.727788e+003,5.859490e-004
3.729716e+003,6.362349e-004
3.731645e+003,7.894747e-004
3.733573e+003,1.174567e-003
3.735502e+003,9.800121e-004
3.737430e+003,4.502404e-004
3.739359e+003,6.680544e-004
3.741287e+003,7.651057e-004
3.743216e+003,1.077408e-003
3.745144e+003,6.800368e-004
3.747073e+003,3.748778e-004
3.749001e+003,3.463086e-004
3.750930e+003,4.670620e-004
3.752858e+003,4.681740e-004
3.754787e+003,2.563708e-004
3.756715e+003,2.460796e-004
3.758644e+003,6.572828e-004
3.760572e+003,8.075219e-004
3.762501e+003,7.121842e-004
3.764429e+003,8.531343e-004
3.766358e+003,7.311348e-004
3.768286e+003,8.309912e-004
3.770215e+003,9.151902e-004
3.772143e+003,8.864459e-004
3.774072e+003,1.060786e-003
3.776000e+003,1.184355e-003
3.777929e+003,1.323614e-003
3.779857e+003,1.317371e-003
3.781786e+003,1.233868e-003
3.783714e+003,1.162522e-003
3.785643e+003,1.044463e-003
3.787571e+003,1.156511e-003
3.789500e+003,1.356367e-003
3.791428e+003,1.362622e-003
3.793357e+003,1.395538e-003
3.795285e+003,1.799822e-003
3.797214e+003,1.715066e-003
3.799142e+003,1.606379e-003
3.801071e+003,1.915488e-003
3.802999e+003,1.503548e-003
3.804927e+003,1.461506e-003
3.806856e+003,1.712361e-003
3.808785e+003,1.747450e-003
3.810713e+003,1.813969e-003
3.812642e+003,1.884546e-003
3.814570e+003,2.279136e-003
3.816499e+003,2.044007e-003
3.818427e+003,1.805050e-003
3.820355e+003,1.907233e-003
3.822284e+003,1.717215e-003
3.824213e+003,1.727551e-003
3.826141e+003,1.910526e-003
3.828070e+003,1.903322e-003
3.829998e+003,2.030982e-003
3.831927e+003,1.962552e-003
3.833855e+003,1.875877e-003
3.835783e+003,1.954164e-003
3.837712e+003,2.063278e-003
3.839641e+003,1.928553e-003
3.841569e+003,1.807142e-003
3.843498e+003,1.896974e-003
3.845426e+003,1.800567e-003
3.847354e+003,1.929859e-003
3.849283e+003,2.074519e-003
3.851211e+003,2.084075e-003
3.853140e+003,2.152354e-003
3.855069e+003,2.065763e-003
3.856997e+003,2.014907e-003
3.858926e+003,2.043750e-003
3.860854e+003,2.205815e-003
3.862782e+003,2.338875e-003
3.864711e+003,2.526181e-003
3.866640e+003,2.222734e-003
3.868568e+003,2.415085e-003
3.870497e+003,2.282044e-003
3.872425e+003,2.431178e-003
3.874354e+003,2.503673e-003
3.876282e+003,2.323173e-003
3.878210e+003,2.434362e-003
3.880139e+003,2.768174e-003
3.882068e+003,2.532516e-003
3.883996e+003,2.415305e-003
3.885925e+003,2.360128e-003
3.887853e+003,2.217038e-003
3.889781e+003,2.488917e-003
3.891710e+003,2.716294e-003
3.893638e+003,2.543326e-003
3.895567e+003,2.456715e-003
3.897496e+003,2.672549e-003
3.899424e+003,2.788216e-003
3.901353e+003,2.537459e-003
3.903281e+003,2.457177e-003
3.905209e+003,2.430333e-003
3.907138e+003,2.306085e-003
3.909066e+003,2.213042e-003
3.910995e+003,2.408477e-003
3.912924e+003,2.619229e-003
3.914852e+003,2.715969e-003
3.916781e+003,2.647515e-003
3.918709e+003,2.642060e-003
3.920637e+003,2.507709e-003
3.922566e+003,2.617272e-003
3.924494e+003,2.740555e-003
3.926423e+003,2.487235e-003
3.928352e+003,2.442742e-003
3.930280e+003,2.512878e-003
3.932208e+003,2.515685e-003
3.934137e+003,2.333963e-003
3.936065e+003,2.232533e-003
3.937994e+003,2.352661e-003
3.939922e+003,2.490180e-003
3.941851e+003,2.540162e-003
3.943780e+003,2.540395e-003
3.945708e+003,2.474286e-003
3.947636e+003,2.334902e-003
3.949565e+003,2.217216e-003
3.951493e+003,2.109244e-003
3.953422e+003,2.065301e-003
3.955351e+003,2.108358e-003
3.957279e+003,2.121435e-003
3.959208e+003,2.242517e-003
3.961136e+003,2.274191e-003
3.963064e+003,2.102539e-003
3.964993e+003,2.019545e-003
3.966921e+003,2.108619e-003
3.968850e+003,2.279820e-003
3.970779e+003,2.316909e-003
3.972707e+003,2.244107e-003
3.974635e+003,2.220893e-003
3.976564e+003,2.341758e-003
3.978492e+003,2.391301e-003
3.980421e+003,2.366293e-003
3.982349e+003,2.342168e-003
3.984278e+003,2.374837e-003
3.986207e+003,2.367636e-003
3.988135e+003,2.298469e-003
3.990063e+003,2.367828e-003
3.991992e+003,2.415583e-003
3.993920e+003,2.463248e-003
3.995849e+003,2.426265e-003
3.997777e+003,2.267372e-003
3.999706e+003,2.255373e-003
4.001635e+003,0.000000e+000
