3.991992e+002,0.000000e+000
4.011277e+002,0.000000e+000
4.030562e+002,0.000000e+000
4.049846e+002,0.000000e+000
4.069131e+002,0.000000e+000
4.088416e+002,0.000000e+000
4.107701e+002,0.000000e+000
4.126986e+002,0.000000e+000
4.146271e+002,0.000000e+000
4.165556e+002,0.000000e+000
4.184841e+002,0.000000e+000
4.204126e+002,0.000000e+000
4.223411e+002,0.000000e+000
4.242697e+002,0.000000e+000
4.261982e+002,0.000000e+000
4.281266e+002,0.000000e+000
4.300551e+002,0.000000e+000
4.319836e+002,0.000000e+000
4.339121e+002,0.000000e+000
4.358406e+002,0.000000e+000
4.377691e+002,0.000000e+000
4.396976e+002,0.000000e+000
4.416261e+002,0.000000e+000
4.435546e+002,0.000000e+000
4.454831e+002,0.000000e+000
4.474116e+002,0.000000e+000
4.493401e+002,0.000000e+000
4.512686e+002,0.000000e+000
4.531971e+002,0.000000e+000
4.551256e+002,0.000000e+000
4.570541e+002,0.000000e+000
4.589826e+002,0.000000e+000
4.609111e+002,0.000000e+000
4.628396e+002,0.000000e+000
4.647681e+002,0.000000e+000
4.666966e+002,0.000000e+000
4.686251e+002,0.000000e+000
4.705536e+002,0.000000e+000
4.724821e+002,0.000000e+000
4.744106e+002,0.000000e+000
4.763391e+002,0.000000e+000
4.782676e+002,0.000000e+000
4.801961e+002,0.000000e+000
4.821246e+002,0.000000e+000
4.840531e+002,0.000000e+000
4.859816e+002,0.000000e+000
4.879101e+002,0.000000e+000
4.898386e+002,0.000000e+000
4.917671e+002,0.000000e+000
4.936956e+002,0.000000e+000
4.956241e+002,0.000000e+000
4.975526e+002,0.000000e+000
4.994811e+002,0.000000e+000
5.014096e+002,0.000000e+000
5.033381e+002,0.000000e+000
5.052666e+002,0.000000e+000
5.071951e+002,0.000000e+000
5.091236e+002,0.000000e+000
5.110521e+002,0.000000e+000
5.129806e+002,0.000000e+000
5.149091e+002,0.000000e+000
5.168376e+002,0.000000e+000
5.187661e+002,0.000000e+000
5.206946e+002,0.000000e+000
5.226230e+002,0.000000e+000
5.245516e+002,8.240156e-005
5.264800e+002,-5.372521e-005
5.284086e+002,-1.958162e-004
5.303370e+002,-1.635216e-004
5.322656e+002,1.260703e-004
5.341940e+002,2.674349e-004
5.361226e+002,2.415320e-004
5.380510e+002,1.049479e-004
5.399796e+002,-6.612670e-005
5.419081e+002,-9.543076e-005
5.438365e+002,2.526306e-005
5.457650e+002,7.775612e-006
5.476935e+002,5.570427e-005
5.496221e+002,1.478251e-004
5.515505e+002,2.133837e-004
5.534790e+002,2.464084e-004
5.554075e+002,3.881799e-004
5.573361e+002,2.601622e-004
5.592645e+002,1.236517e-004
5.611931e+002,1.264662e-004
5.631215e+002,2.338802e-004
5.650500e+002,2.651569e-004
5.669785e+002,2.313564e-004
5.689070e+002,1.605023e-004
5.708355e+002,3.847722e-004
5.727640e+002,5.467050e-004
5.746925e+002,5.941326e-004
5.766210e+002,6.254725e-004
5.785495e+002,6.679995e-004
5.804780e+002,7.391535e-004
5.824065e+002,9.439513e-004
5.843350e+002,9.856718e-004
5.862635e+002,1.007238e-003
5.881920e+002,9.560864e-004
5.901205e+002,8.679945e-004
5.920490e+002,7.756846e-004
5.939775e+002,8.281013e-004
5.959060e+002,9.369869e-004
5.978345e+002,1.012110e-003
5.997630e+002,1.034381e-003
6.016915e+002,1.133377e-003
6.036200e+002,1.177141e-003
6.055485e+002,1.229175e-003
6.074770e+002,1.182562e-003
6.094055e+002,1.190607e-003
6.113340e+002,1.186324e-003
6.132625e+002,1.042158e-003
6.151910e+002,8.821134e-004
6.171195e+002,8.643847e-004
6.190480e+002,9.751413e-004
6.209765e+002,1.097230e-003
6.229050e+002,1.061071e-003
6.248335e+002,1.140736e-003
6.267620e+002,1.233461e-003
6.286905e+002,1.296868e-003
6.306190e+002,1.301121e-003
6.325475e+002,1.417616e-003
6.344760e+002,1.472697e-003
6.364045e+002,1.562415e-003
6.383330e+002,1.653880e-003
6.402615e+002,1.737299e-003
6.421899e+002,1.696900e-003
6.441185e+002,1.774954e-003
6.460470e+002,1.890193e-003
6.479755e+002,1.949468e-003
6.499039e+002,1.898583e-003
6.518325e+002,1.926839e-003
6.537610e+002,1.965683e-003
6.556895e+002,2.163840e-003
6.576179e+002,2.387045e-003
6.595464e+002,2.625640e-003
6.614750e+002,2.639621e-003
6.634034e+002,2.704821e-003
6.653319e+002,2.821955e-003
6.672604e+002,3.160001e-003
6.691890e+002,3.409570e-003
6.711174e+002,3.653542e-003
6.730460e+002,3.906811e-003
6.749745e+002,4.271989e-003
6.769030e+002,4.605947e-003
6.788314e+002,5.157707e-003
6.807599e+002,5.600981e-003
6.826885e+002,6.073974e-003
6.846169e+002,6.426077e-003
6.865454e+002,6.901665e-003
6.884739e+002,7.340966e-003
6.904025e+002,7.817607e-003
6.923309e+002,8.342220e-003
6.942594e+002,9.062629e-003
6.961879e+002,9.662438e-003
6.981165e+002,1.052752e-002
7.000449e+002,1.149080e-002
7.019734e+002,1.282871e-002
7.039019e+002,1.444209e-002
7.058304e+002,1.681158e-002
7.077589e+002,1.992986e-002
7.096874e+002,2.474023e-002
7.116159e+002,3.250076e-002
7.135444e+002,4.738376e-002
7.154729e+002,7.514301e-002
7.174014e+002,1.161471e-001
7.193299e+002,1.304174e-001
7.212584e+002,9.082893e-002
7.231869e+002,5.798575e-002
7.251154e+002,4.901624e-002
7.270439e+002,5.678677e-002
7.289724e+002,8.055821e-002
7.309009e+002,8.361422e-002
7.328294e+002,5.050392e-002
7.347579e+002,2.613445e-002
7.366864e+002,1.734520e-002
7.386149e+002,1.371294e-002
7.405434e+002,1.149209e-002
7.424719e+002,1.012055e-002
7.444004e+002,8.945819e-003
7.463289e+002,8.079365e-003
7.482574e+002,7.305799e-003
7.501859e+002,6.758332e-003
7.521144e+002,6.206375e-003
7.540428e+002,5.791292e-003
7.559714e+002,5.443169e-003
7.578999e+002,5.288243e-003
7.598284e+002,5.103150e-003
7.617568e+002,4.970128e-003
7.636854e+002,4.836645e-003
7.656139e+002,4.735472e-003
7.675424e+002,4.524635e-003
7.694709e+002,4.259791e-003
7.713994e+002,3.986150e-003
7.733279e+002,3.705911e-003
7.752563e+002,3.507480e-003
7.771849e+002,3.456783e-003
7.791134e+002,3.314607e-003
7.810419e+002,3.134543e-003
7.829703e+002,3.015101e-003
7.848989e+002,2.959047e-003
7.868274e+002,2.872005e-003
7.887559e+002,2.875678e-003
7.906843e+002,2.793698e-003
7.926129e+002,2.761049e-003
7.945414e+002,2.822302e-003
7.964698e+002,2.848975e-003
7.983983e+002,2.908740e-003
8.003268e+002,2.983134e-003
8.022554e+002,3.015794e-003
8.041838e+002,3.057599e-003
8.061123e+002,3.122048e-003
8.080408e+002,3.123241e-003
8.099694e+002,3.138689e-003
8.118978e+002,3.206069e-003
8.138263e+002,3.268754e-003
8.157548e+002,3.283957e-003
8.176833e+002,3.321661e-003
8.196118e+002,3.383471e-003
8.215403e+002,3.383111e-003
8.234689e+002,3.420712e-003
8.253973e+002,3.399575e-003
8.273258e+002,3.401853e-003
8.292543e+002,3.509693e-003
8.311829e+002,3.626710e-003
8.331113e+002,3.681678e-003
8.350398e+002,3.765181e-003
8.369683e+002,3.906552e-003
8.388969e+002,4.034232e-003
8.408253e+002,4.171930e-003
8.427538e+002,4.265087e-003
8.446823e+002,4.356885e-003
8.466108e+002,4.503362e-003
8.485393e+002,4.602950e-003
8.504678e+002,4.674310e-003
8.523963e+002,4.766267e-003
8.543248e+002,4.832854e-003
8.562533e+002,4.792571e-003
8.581818e+002,4.751435e-003
8.601103e+002,4.820928e-003
8.620388e+002,4.836319e-003
8.639673e+002,4.806837e-003
8.658958e+002,4.886353e-003
8.678243e+002,4.907509e-003
8.697528e+002,4.922591e-003
8.716813e+002,4.989715e-003
8.736098e+002,4.951609e-003
8.755383e+002,4.979480e-003
8.774668e+002,4.992638e-003
8.793953e+002,4.945626e-003
8.813238e+002,4.960034e-003
8.832523e+002,5.112596e-003
8.851808e+002,5.239075e-003
8.871093e+002,5.299786e-003
8.890378e+002,5.344993e-003
8.909663e+002,5.344436e-003
8.928948e+002,5.273879e-003
8.948232e+002,5.344169e-003
8.967518e+002,5.407309e-003
8.986803e+002,5.465662e-003
9.006088e+002,5.634353e-003
9.025372e+002,6.049730e-003
9.044658e+002,6.787613e-003
9.063943e+002,7.806607e-003
9.083228e+002,8.389898e-003
9.102512e+002,7.882684e-003
9.121797e+002,6.892102e-003
9.141083e+002,6.153049e-003
9.160367e+002,5.672149e-003
9.179653e+002,5.373739e-003
9.198937e+002,5.230015e-003
9.218223e+002,5.178967e-003
9.237507e+002,5.135903e-003
9.256793e+002,5.101230e-003
9.276077e+002,5.096540e-003
9.295363e+002,5.200420e-003
9.314647e+002,5.301483e-003
9.333932e+002,5.441381e-003
9.353217e+002,5.595099e-003
9.372502e+002,5.771803e-003
9.391787e+002,5.953277e-003
9.411072e+002,6.145824e-003
9.430358e+002,6.293930e-003
9.449642e+002,6.502504e-003
9.468928e+002,6.691214e-003
9.488212e+002,6.885095e-003
9.507498e+002,7.040164e-003
9.526782e+002,7.274440e-003
9.546068e+002,7.545738e-003
9.565352e+002,7.883452e-003
9.584637e+002,8.222843e-003
9.603922e+002,8.519735e-003
9.623207e+002,8.712357e-003
9.642492e+002,8.881714e-003
9.661777e+002,9.012362e-003
9.681062e+002,9.058716e-003
9.700347e+002,8.965785e-003
9.719632e+002,8.796077e-003
9.738917e+002,8.617358e-003
9.758202e+002,8.482715e-003
9.777487e+002,8.412667e-003
9.796772e+002,8.386847e-003
9.816057e+002,8.414423e-003
9.835342e+002,8.601643e-003
9.854627e+002,8.824930e-003
9.873912e+002,9.110594e-003
9.893197e+002,9.312304e-003
9.912482e+002,9.348851e-003
9.931767e+002,9.237347e-003
9.951052e+002,9.126199e-003
9.970337e+002,9.080414e-003
9.989622e+002,9.066971e-003
1.000891e+003,9.091884e-003
1.002819e+003,9.153135e-003
1.004748e+003,9.222396e-003
1.006676e+003,9.383202e-003
1.008605e+003,9.541264e-003
1.010533e+003,9.736551e-003
1.012462e+003,9.922169e-003
1.014390e+003,1.010148e-002
1.016319e+003,1.022354e-002
1.018247e+003,1.036416e-002
1.020176e+003,1.056531e-002
1.022104e+003,1.093976e-002
1.024033e+003,1.122952e-002
1.025961e+003,1.143607e-002
1.027890e+003,1.161784e-002
1.029818e+003,1.184746e-002
1.031747e+003,1.190595e-002
1.033675e+003,1.185535e-002
1.035604e+003,1.179421e-002
1.037532e+003,1.176240e-002
1.039461e+003,1.165357e-002
1.041389e+003,1.158150e-002
1.043318e+003,1.157725e-002
1.045246e+003,1.167050e-002
1.047175e+003,1.196447e-002
1.049103e+003,1.255962e-002
1.051032e+003,1.307514e-002
1.052960e+003,1.337317e-002
1.054889e+003,1.373471e-002
1.056817e+003,1.421146e-002
1.058746e+003,1.460982e-002
1.060674e+003,1.500414e-002
1.062603e+003,1.530429e-002
1.064531e+003,1.557147e-002
1.066460e+003,1.578811e-002
1.068388e+003,1.605269e-002
1.070317e+003,1.651814e-002
1.072245e+003,1.728441e-002
1.074174e+003,1.830258e-002
1.076102e+003,1.959761e-002
1.078031e+003,2.115540e-002
1.079959e+003,2.281613e-002
1.081888e+003,2.425577e-002
1.083816e+003,2.541583e-002
1.085745e+003,2.640177e-002
1.087673e+003,2.745204e-002
1.089602e+003,2.865632e-002
1.091530e+003,2.986890e-002
1.093459e+003,3.075038e-002
1.095387e+003,3.114814e-002
1.097316e+003,3.100010e-002
1.099244e+003,3.046032e-002
1.101173e+003,2.971947e-002
1.103101e+003,2.904482e-002
1.105030e+003,2.848452e-002
1.106958e+003,2.820913e-002
1.108887e+003,2.836558e-002
1.110815e+003,2.911387e-002
1.112744e+003,3.029049e-002
1.114672e+003,3.165321e-002
1.116601e+003,3.279763e-002
1.118529e+003,3.343803e-002
1.120458e+003,3.323460e-002
1.122386e+003,3.225487e-002
1.124315e+003,3.083087e-002
1.126243e+003,2.964018e-002
1.128172e+003,2.923786e-002
1.130100e+003,2.996200e-002
1.132029e+003,3.195586e-002
1.133957e+003,3.503584e-002
1.135885e+003,3.861618e-002
1.137814e+003,4.231938e-002
1.139743e+003,4.563374e-002
1.141671e+003,4.820675e-002
1.143600e+003,5.003900e-002
1.145528e+003,5.146982e-002
1.147457e+003,5.283067e-002
1.149385e+003,5.449749e-002
1.151314e+003,5.639506e-002
1.153242e+003,5.836276e-002
1.155171e+003,6.017229e-002
1.157099e+003,6.175875e-002
1.159028e+003,6.304000e-002
1.160956e+003,6.383622e-002
1.162885e+003,6.396615e-002
1.164813e+003,6.349106e-002
1.166742e+003,6.247612e-002
1.168670e+003,6.093051e-002
1.170599e+003,5.896778e-002
1.172527e+003,5.686508e-002
1.174456e+003,5.476648e-002
1.176384e+003,5.260684e-002
1.178313e+003,5.024355e-002
1.180241e+003,4.804366e-002
1.182170e+003,4.608646e-002
1.184098e+003,4.433546e-002
1.186027e+003,4.272246e-002
1.187955e+003,4.118451e-002
1.189884e+003,3.967230e-002
1.191812e+003,3.824128e-002
1.193740e+003,3.679878e-002
1.195669e+003,3.543777e-002
1.197598e+003,3.423620e-002
1.199526e+003,3.327551e-002
1.201455e+003,3.250618e-002
1.203383e+003,3.202512e-002
1.205312e+003,3.176174e-002
1.207240e+003,3.169862e-002
1.209168e+003,3.161513e-002
1.211097e+003,3.151634e-002
1.213026e+003,3.137310e-002
1.214954e+003,3.130359e-002
1.216883e+003,3.135367e-002
1.218811e+003,3.162834e-002
1.220740e+003,3.202765e-002
1.222668e+003,3.258248e-002
1.224596e+003,3.323546e-002
1.226525e+003,3.394960e-002
1.228453e+003,3.468660e-002
1.230382e+003,3.541908e-002
1.232311e+003,3.599951e-002
1.234239e+003,3.651684e-002
1.236167e+003,3.692527e-002
1.238096e+003,3.713016e-002
1.240025e+003,3.698400e-002
1.241953e+003,3.650663e-002
1.243882e+003,3.558420e-002
1.245810e+003,3.431996e-002
1.247739e+003,3.287894e-002
1.249667e+003,3.150386e-002
1.251595e+003,3.036652e-002
1.253524e+003,2.956153e-002
1.255453e+003,2.888963e-002
1.257381e+003,2.821140e-002
1.259310e+003,2.733395e-002
1.261238e+003,2.630797e-002
1.263167e+003,2.522846e-002
1.265095e+003,2.429752e-002
1.267023e+003,2.355840e-002
1.268952e+003,2.316409e-002
1.270880e+003,2.301588e-002
1.272809e+003,2.310700e-002
1.274738e+003,2.330793e-002
1.276666e+003,2.358836e-002
1.278594e+003,2.370279e-002
1.280523e+003,2.356496e-002
1.282451e+003,2.306177e-002
1.284380e+003,2.236719e-002
1.286308e+003,2.164293e-002
1.288237e+003,2.119461e-002
1.290166e+003,2.103092e-002
1.292094e+003,2.117242e-002
1.294022e+003,2.138278e-002
1.295951e+003,2.162134e-002
1.297879e+003,2.173692e-002
1.299808e+003,2.180250e-002
1.301736e+003,2.172302e-002
1.303665e+003,2.158263e-002
1.305594e+003,2.132227e-002
1.307522e+003,2.113283e-002
1.309450e+003,2.090570e-002
1.311379e+003,2.077165e-002
1.313307e+003,2.059413e-002
1.315236e+003,2.036531e-002
1.317164e+003,2.006228e-002
1.319093e+003,1.970472e-002
1.321021e+003,1.910817e-002
1.322950e+003,1.853232e-002
1.324878e+003,1.794267e-002
1.326807e+003,1.737870e-002
1.328735e+003,1.686368e-002
1.330664e+003,1.666348e-002
1.332592e+003,1.670598e-002
1.334521e+003,1.712172e-002
1.336449e+003,1.782249e-002
1.338378e+003,1.891194e-002
1.340306e+003,1.982869e-002
1.342235e+003,2.031848e-002
1.344163e+003,2.089445e-002
1.346092e+003,2.175430e-002
1.348021e+003,2.259060e-002
1.349949e+003,2.325804e-002
1.351877e+003,2.354921e-002
1.353806e+003,2.369284e-002
1.355734e+003,2.366866e-002
1.357663e+003,2.373049e-002
1.359591e+003,2.406033e-002
1.361520e+003,2.488411e-002
1.363448e+003,2.559159e-002
1.365377e+003,2.598717e-002
1.367305e+003,2.643486e-002
1.369234e+003,2.645005e-002
1.371162e+003,2.592992e-002
1.373091e+003,2.586031e-002
1.375019e+003,2.642395e-002
1.376948e+003,2.668967e-002
1.378876e+003,2.532199e-002
1.380805e+003,2.243022e-002
1.382733e+003,1.952801e-002
1.384662e+003,1.759298e-002
1.386590e+003,1.625637e-002
1.388519e+003,1.486578e-002
1.390447e+003,1.372839e-002
1.392376e+003,1.331480e-002
1.394304e+003,1.331310e-002
1.396233e+003,1.351763e-002
1.398161e+003,1.372985e-002
1.400090e+003,1.401090e-002
1.402018e+003,1.394445e-002
1.403947e+003,1.404677e-002
1.405875e+003,1.333233e-002
1.407804e+003,1.290342e-002
1.409732e+003,1.320796e-002
1.411661e+003,1.447663e-002
1.413589e+003,1.591981e-002
1.415518e+003,1.758728e-002
1.417446e+003,1.866107e-002
1.419375e+003,1.879157e-002
1.421303e+003,1.794117e-002
1.423232e+003,1.805589e-002
1.425160e+003,1.853716e-002
1.427089e+003,2.001476e-002
1.429017e+003,2.257494e-002
1.430946e+003,2.619442e-002
1.432874e+003,2.905591e-002
1.434803e+003,3.186430e-002
1.436731e+003,3.505912e-002
1.438660e+003,3.738269e-002
1.440588e+003,3.868446e-002
1.442517e+003,4.054354e-002
1.444445e+003,4.207915e-002
1.446374e+003,4.420459e-002
1.448302e+003,4.724525e-002
1.450231e+003,5.179686e-002
1.452159e+003,5.898752e-002
1.454088e+003,6.837038e-002
1.456016e+003,7.937233e-002
1.457945e+003,1.108542e-001
1.459873e+003,1.660207e-001
1.461802e+003,2.058470e-001
1.463730e+003,1.837464e-001
1.465659e+003,1.315710e-001
1.467587e+003,1.210966e-001
1.469516e+003,1.239410e-001
1.471444e+003,1.476838e-001
1.473373e+003,1.364051e-001
1.475301e+003,7.546803e-002
1.477230e+003,3.409863e-002
1.479158e+003,2.182357e-002
1.481087e+003,1.629760e-002
1.483015e+003,1.355631e-002
1.484944e+003,1.167507e-002
1.486872e+003,1.138907e-002
1.488801e+003,1.051616e-002
1.490729e+003,9.967182e-003
1.492658e+003,8.560602e-003
1.494586e+003,8.579820e-003
1.496515e+003,8.148305e-003
1.498443e+003,7.960558e-003
1.500372e+003,6.897762e-003
1.502300e+003,6.559685e-003
1.504229e+003,6.162159e-003
1.506157e+003,7.636245e-003
1.508086e+003,7.091116e-003
1.510014e+003,6.370306e-003
1.511943e+003,5.495273e-003
1.513871e+003,5.557220e-003
1.515800e+003,5.699843e-003
1.517728e+003,5.825832e-003
1.519657e+003,5.630210e-003
1.521585e+003,6.325435e-003
1.523514e+003,5.459029e-003
1.525442e+003,5.469177e-003
1.527371e+003,4.924141e-003
1.529299e+003,4.632521e-003
1.531228e+003,4.512269e-003
1.533156e+003,5.072534e-003
1.535085e+003,4.391134e-003
1.537013e+003,4.475053e-003
1.538942e+003,5.138408e-003
1.540870e+003,6.110523e-003
1.542799e+003,5.198278e-003
1.544727e+003,4.899021e-003
1.546656e+003,3.984611e-003
1.548584e+003,4.095010e-003
1.550513e+003,4.023459e-003
1.552441e+003,3.982738e-003
1.554370e+003,4.033200e-003
1.556298e+003,4.422810e-003
1.558227e+003,5.303860e-003
1.560155e+003,4.675217e-003
1.562084e+003,3.637295e-003
1.564012e+003,3.574394e-003
1.565941e+003,3.333595e-003
1.567869e+003,3.586728e-003
1.569798e+003,3.610913e-003
1.571726e+003,3.183402e-003
1.573655e+003,3.056865e-003
1.575583e+003,3.535122e-003
1.577512e+003,3.306497e-003
1.579440e+003,3.079087e-003
1.581369e+003,2.990283e-003
1.583297e+003,3.127422e-003
1.585226e+003,3.141779e-003
1.587154e+003,3.225278e-003
1.589083e+003,3.218047e-003
1.591011e+003,3.264315e-003
1.592940e+003,3.222093e-003
1.594868e+003,3.319398e-003
1.596797e+003,3.201928e-003
1.598725e+003,3.177296e-003
1.600654e+003,3.195070e-003
1.602582e+003,3.302477e-003
1.604511e+003,3.176000e-003
1.606439e+003,3.286891e-003
1.608368e+003,3.319144e-003
1.610296e+003,3.312103e-003
1.612225e+003,3.205273e-003
1.614153e+003,3.458712e-003
1.616082e+003,3.916904e-003
1.618010e+003,3.848501e-003
1.619939e+003,3.613155e-003
1.621867e+003,3.969844e-003
1.623796e+003,3.991943e-003
1.625724e+003,3.901709e-003
1.627653e+003,3.994331e-003
1.629581e+003,3.898382e-003
1.631510e+003,3.821813e-003
1.633438e+003,4.195418e-003
1.635367e+003,5.021039e-003
1.637295e+003,5.288143e-003
1.639224e+003,4.998304e-003
1.641152e+003,4.968174e-003
1.643081e+003,5.038228e-003
1.645009e+003,5.609747e-003
1.646938e+003,6.456170e-003
1.648866e+003,6.162956e-003
1.650795e+003,6.050855e-003
1.652723e+003,7.115684e-003
1.654652e+003,6.841891e-003
1.656580e+003,6.060801e-003
1.658509e+003,5.404152e-003
1.660437e+003,5.250305e-003
1.662366e+003,5.207106e-003
1.664294e+003,4.763037e-003
1.666223e+003,4.529025e-003
1.668151e+003,4.926924e-003
1.670080e+003,5.215559e-003
1.672008e+003,4.924763e-003
1.673937e+003,4.869651e-003
1.675865e+003,4.903715e-003
1.677794e+003,4.806351e-003
1.679722e+003,5.146056e-003
1.681651e+003,5.370304e-003
1.683579e+003,6.032877e-003
1.685508e+003,5.833410e-003
1.687436e+003,5.852766e-003
1.689365e+003,5.909149e-003
1.691293e+003,5.937509e-003
1.693222e+003,6.176569e-003
1.695150e+003,7.241566e-003
1.697079e+003,8.239128e-003
1.699007e+003,8.752715e-003
1.700936e+003,9.135209e-003
1.702864e+003,9.366889e-003
1.704793e+003,9.912718e-003
1.706721e+003,1.038271e-002
1.708650e+003,1.060098e-002
1.710578e+003,1.101897e-002
1.712507e+003,1.164963e-002
1.714435e+003,1.291569e-002
1.716364e+003,1.460289e-002
1.718292e+003,1.621967e-002
1.720221e+003,1.701406e-002
1.722149e+003,1.859369e-002
1.724078e+003,2.146814e-002
1.726006e+003,2.531749e-002
1.727935e+003,3.087502e-002
1.729863e+003,3.981220e-002
1.731792e+003,4.927176e-002
1.733720e+003,6.616746e-002
1.735649e+003,8.854911e-002
1.737577e+003,1.008332e-001
1.739506e+003,1.213018e-001
1.741434e+003,1.390778e-001
1.743363e+003,1.502410e-001
1.745291e+003,1.544249e-001
1.747220e+003,1.512814e-001
1.749148e+003,1.389448e-001
1.751077e+003,1.192048e-001
1.753005e+003,9.758544e-002
1.754934e+003,8.155136e-002
1.756862e+003,6.212068e-002
1.758791e+003,4.697396e-002
1.760719e+003,3.673911e-002
1.762648e+003,2.655095e-002
1.764576e+003,2.055006e-002
1.766505e+003,1.699197e-002
1.768433e+003,1.385691e-002
1.770362e+003,1.223189e-002
1.772290e+003,1.069097e-002
1.774219e+003,8.935384e-003
1.776147e+003,7.867888e-003
1.778076e+003,7.086776e-003
1.780004e+003,6.582528e-003
1.781933e+003,5.837899e-003
1.783861e+003,5.448569e-003
1.785790e+003,4.943810e-003
1.787718e+003,4.468750e-003
1.789646e+003,4.390471e-003
1.791575e+003,4.592426e-003
1.793504e+003,4.218377e-003
1.795432e+003,3.882904e-003
1.797361e+003,3.472548e-003
1.799289e+003,3.346488e-003
1.801218e+003,3.287509e-003
1.803146e+003,2.976168e-003
1.805074e+003,2.558533e-003
1.807003e+003,2.450708e-003
1.808932e+003,2.346985e-003
1.810860e+003,2.337676e-003
1.812789e+003,1.991130e-003
1.814717e+003,1.563795e-003
1.816646e+003,1.327340e-003
1.818574e+003,1.530457e-003
1.820502e+003,1.594391e-003
1.822431e+003,1.692135e-003
1.824360e+003,1.702107e-003
1.826288e+003,1.441017e-003
1.828217e+003,1.418337e-003
1.830145e+003,1.407169e-003
1.832073e+003,8.477159e-004
1.834002e+003,6.525666e-004
1.835931e+003,4.804619e-004
1.837859e+003,4.365891e-004
1.839788e+003,1.357757e-004
1.841716e+003,2.815537e-004
1.843645e+003,5.596466e-004
1.845573e+003,6.588474e-004
1.847501e+003,4.001856e-004
1.849430e+003,2.276860e-004
1.851359e+003,3.604218e-005
1.853287e+003,-7.633120e-006
1.855216e+003,-1.879223e-004
1.857144e+003,-1.480095e-004
1.859073e+003,-2.439581e-004
1.861001e+003,-1.215450e-004
1.862929e+003,-2.608895e-004
1.864858e+003,-2.286173e-004
1.866787e+003,2.137944e-005
1.868715e+003,4.706532e-004
1.870644e+003,-1.024716e-004
1.872572e+003,-3.151186e-004
1.874500e+003,-4.039183e-004
1.876429e+003,-3.241897e-004
1.878357e+003,-4.232973e-004
1.880286e+003,-3.731586e-004
1.882215e+003,-5.208477e-004
1.884143e+003,-4.971065e-004
1.886072e+003,-4.819520e-004
1.888000e+003,-7.376820e-005
1.889928e+003,-7.230788e-005
1.891857e+003,6.286055e-005
1.893785e+003,1.707338e-004
1.895714e+003,3.375970e-004
1.897643e+003,-7.358193e-005
1.899571e+003,-2.033748e-004
1.901500e+003,-2.014823e-004
1.903428e+003,-1.996048e-004
1.905356e+003,-1.977310e-004
1.907285e+003,-1.958609e-004
1.909213e+003,-1.940019e-004
1.911142e+003,-1.921505e-004
1.913071e+003,-1.903065e-004
1.914999e+003,-1.884736e-004
1.916927e+003,-1.866482e-004
1.918856e+003,-1.848228e-004
1.920784e+003,-1.830123e-004
1.922713e+003,-1.812093e-004
1.924641e+003,-1.794100e-004
1.926570e+003,-1.776181e-004
1.928499e+003,-1.758412e-004
1.930427e+003,-1.740642e-004
1.932355e+003,-1.722984e-004
1.934284e+003,-1.705438e-004
1.936212e+003,-1.687855e-004
1.938141e+003,-1.670457e-004
1.940070e+003,-1.653098e-004
1.941998e+003,-1.635812e-004
1.943927e+003,-1.618639e-004
1.945855e+003,-1.601465e-004
1.947783e+003,-1.584440e-004
1.949712e+003,-1.567453e-004
1.951640e+003,-1.550578e-004
1.953569e+003,-1.533777e-004
1.955498e+003,-1.517013e-004
1.957426e+003,-1.500361e-004
1.959354e+003,-1.483820e-004
1.961283e+003,-1.467317e-004
1.963211e+003,-1.450814e-004
1.965140e+003,-1.434498e-004
1.967068e+003,-1.418218e-004
1.968997e+003,-1.402013e-004
1.970926e+003,-1.385882e-004
1.972854e+003,-1.369826e-004
1.974782e+003,-1.353882e-004
1.976711e+003,-1.337975e-004
1.978639e+003,-1.322180e-004
1.980568e+003,-1.306459e-004
1.982496e+003,-1.290813e-004
1.984425e+003,-1.275204e-004
1.986354e+003,-1.259670e-004
1.988282e+003,-1.244247e-004
1.990210e+003,-1.228899e-004
1.992139e+003,-1.213625e-004
1.994067e+003,-1.198426e-004
1.995996e+003,-1.183301e-004
1.997924e+003,-1.168326e-004
1.999853e+003,-1.153275e-004
2.001781e+003,-1.138449e-004
2.003710e+003,-1.123622e-004
2.005638e+003,-1.108907e-004
2.007567e+003,-1.094192e-004
2.009495e+003,-1.079626e-004
2.011424e+003,-1.065135e-004
2.013352e+003,-1.050681e-004
2.015281e+003,-1.036376e-004
2.017209e+003,-1.022108e-004
2.019138e+003,-1.007952e-004
2.021066e+003,-9.937957e-005
2.022995e+003,-9.797513e-005
2.024923e+003,-9.657815e-005
2.026852e+003,-9.519234e-005
2.028781e+003,-9.380654e-005
2.030709e+003,-9.243563e-005
2.032637e+003,-9.107217e-005
2.034566e+003,-8.970872e-005
2.036494e+003,-8.836389e-005
2.038423e+003,-8.701906e-005
2.040351e+003,-8.568540e-005
2.042280e+003,-8.435547e-005
2.044208e+003,-8.304045e-005
2.046137e+003,-8.172914e-005
2.048065e+003,-8.042529e-005
2.049994e+003,-7.912889e-005
2.051922e+003,-7.783994e-005
2.053851e+003,-7.655472e-005
2.055779e+003,-7.528439e-005
2.057708e+003,-7.402524e-005
2.059636e+003,-7.276237e-005
2.061565e+003,-7.151812e-005
2.063493e+003,-7.027388e-005
2.065422e+003,-6.904081e-005
2.067350e+003,-6.781518e-005
2.069279e+003,-6.658956e-005
2.071207e+003,-6.537884e-005
2.073136e+003,-6.417558e-005
2.075064e+003,-6.298348e-005
2.076993e+003,-6.179512e-005
2.078921e+003,-6.061792e-005
2.080850e+003,-5.944446e-005
2.082778e+003,-5.827844e-005
2.084707e+003,-5.711615e-005
2.086635e+003,-5.596876e-005
2.088564e+003,-5.482510e-005
2.090492e+003,-5.368888e-005
2.092421e+003,-5.256757e-005
2.094349e+003,-5.144626e-005
2.096278e+003,-5.033985e-005
2.098206e+003,-4.923344e-005
2.100135e+003,-4.813820e-005
2.102063e+003,-4.705042e-005
2.103992e+003,-4.597008e-005
2.105920e+003,-4.489720e-005
2.107849e+003,-4.383549e-005
2.109777e+003,-4.277751e-005
2.111706e+003,-4.172698e-005
2.113634e+003,-4.068390e-005
2.115563e+003,-3.964454e-005
2.117491e+003,-3.862754e-005
2.119420e+003,-3.760681e-005
2.121348e+003,-3.659725e-005
2.123277e+003,-3.559515e-005
2.125205e+003,-3.459677e-005
2.127134e+003,-3.361329e-005
2.129062e+003,-3.262982e-005
2.130991e+003,-3.165752e-005
2.132919e+003,-3.068894e-005
2.134848e+003,-2.973899e-005
2.136776e+003,-2.878532e-005
2.138705e+003,-2.785027e-005
2.140633e+003,-2.691522e-005
2.142562e+003,-2.598390e-005
2.144490e+003,-2.506748e-005
2.146419e+003,-2.415851e-005
2.148347e+003,-2.325699e-005
2.150276e+003,-2.235919e-005
2.152204e+003,-2.147257e-005
2.154133e+003,-2.059340e-005
2.156061e+003,-1.971796e-005
2.157990e+003,-1.885742e-005
2.159918e+003,-1.800060e-005
2.161847e+003,-1.715124e-005
2.163775e+003,-1.631305e-005
2.165704e+003,-1.547858e-005
2.167632e+003,-1.465529e-005
2.169561e+003,-1.383945e-005
2.171489e+003,-1.302361e-005
2.173418e+003,-1.221895e-005
2.175346e+003,-1.142174e-005
2.177275e+003,-1.063943e-005
2.179203e+003,-9.860843e-006
2.181132e+003,-9.085983e-006
2.183060e+003,-8.329749e-006
2.184989e+003,-7.569790e-006
2.186917e+003,-6.817281e-006
2.188846e+003,-6.079674e-006
2.190774e+003,-5.345792e-006
2.192703e+003,-4.623085e-006
2.194631e+003,-3.904104e-006
2.196560e+003,-3.192574e-006
2.198488e+003,-2.495944e-006
2.200417e+003,-1.791865e-006
2.202345e+003,-1.106411e-006
2.204274e+003,-4.284084e-007
2.206202e+003,2.458692e-007
2.208131e+003,9.089708e-007
2.210059e+003,1.560897e-006
2.211988e+003,2.209097e-006
2.213916e+003,2.849847e-006
2.215845e+003,3.475696e-006
2.217773e+003,4.108995e-006
2.219702e+003,4.727393e-006
2.221630e+003,5.334616e-006
2.223559e+003,5.938113e-006
2.225487e+003,6.534159e-006
2.227416e+003,7.119030e-006
2.229344e+003,7.700175e-006
2.231273e+003,8.273870e-006
2.233201e+003,8.836389e-006
2.235130e+003,9.391457e-006
2.237058e+003,9.935349e-006
2.238987e+003,1.047924e-005
2.240915e+003,1.100451e-005
2.242844e+003,1.152977e-005
2.244772e+003,1.205131e-005
2.246701e+003,1.256168e-005
2.248629e+003,1.306459e-005
2.250558e+003,1.356006e-005
2.252486e+003,1.404434e-005
2.254415e+003,1.452491e-005
2.256343e+003,1.499429e-005
2.258272e+003,1.545250e-005
2.260200e+003,1.590326e-005
2.262129e+003,1.636147e-005
2.264057e+003,1.680106e-005
2.265986e+003,1.722947e-005
2.267914e+003,1.765415e-005
2.269843e+003,1.807511e-005
2.271771e+003,1.848117e-005
2.273700e+003,1.888350e-005
2.275628e+003,1.927838e-005
2.277557e+003,1.966208e-005
2.279485e+003,2.004579e-005
2.281414e+003,2.041459e-005
2.283342e+003,2.077594e-005
2.285271e+003,2.112985e-005
2.287199e+003,2.147630e-005
2.289128e+003,2.182275e-005
2.291056e+003,2.215430e-005
2.292985e+003,2.247468e-005
2.294913e+003,2.279505e-005
2.296842e+003,2.309680e-005
2.298770e+003,2.340227e-005
2.300699e+003,2.369657e-005
2.302627e+003,2.398342e-005
2.304556e+003,2.426654e-005
2.306484e+003,2.453849e-005
2.308413e+003,2.479553e-005
2.310341e+003,2.504885e-005
2.312270e+003,2.529845e-005
2.314198e+003,2.554059e-005
2.316127e+003,2.576783e-005
2.318055e+003,2.598763e-005
2.319984e+003,2.620742e-005
2.321912e+003,2.641603e-005
2.323841e+003,2.662092e-005
2.325769e+003,2.681091e-005
2.327698e+003,2.699718e-005
2.329626e+003,2.717599e-005
2.331555e+003,2.734736e-005
2.333483e+003,2.751127e-005
2.335412e+003,2.766028e-005
2.337340e+003,2.781302e-005
2.339269e+003,2.795085e-005
2.341197e+003,2.808124e-005
2.343126e+003,2.820417e-005
2.345054e+003,2.831966e-005
2.346983e+003,2.843142e-005
2.348911e+003,2.853572e-005
2.350840e+003,2.862886e-005
2.352768e+003,2.871081e-005
2.354697e+003,2.879277e-005
2.356625e+003,2.885610e-005
2.358554e+003,2.891570e-005
2.360482e+003,2.897158e-005
2.362411e+003,2.902001e-005
2.364339e+003,2.906099e-005
2.366268e+003,2.909452e-005
2.368196e+003,2.911687e-005
2.370125e+003,2.913550e-005
2.372053e+003,2.913922e-005
2.373982e+003,2.914295e-005
2.375910e+003,2.913922e-005
2.377839e+003,2.911687e-005
2.379767e+003,2.909824e-005
2.381696e+003,2.906471e-005
2.383624e+003,2.902746e-005
2.385553e+003,2.897903e-005
2.387481e+003,2.893060e-005
2.389410e+003,2.886355e-005
2.391338e+003,2.880394e-005
2.393267e+003,2.872944e-005
2.395195e+003,2.864003e-005
2.397124e+003,2.854690e-005
2.399052e+003,2.844632e-005
2.400981e+003,-2.706796e-005
2.402909e+003,-2.548099e-006
2.404838e+003,4.984066e-005
2.406766e+003,3.208295e-004
2.408695e+003,6.434619e-004
2.410623e+003,6.547868e-004
2.412552e+003,6.370060e-004
2.414480e+003,5.547963e-004
2.416409e+003,5.595163e-004
2.418337e+003,6.170794e-004
2.420266e+003,5.496703e-004
2.422194e+003,4.244484e-004
2.424123e+003,4.527532e-004
2.426051e+003,3.835186e-004
2.427979e+003,4.740506e-004
2.429908e+003,4.390031e-004
2.431837e+003,4.863590e-004
2.433765e+003,5.114302e-004
2.435694e+003,4.779883e-004
2.437622e+003,5.369708e-004
2.439551e+003,6.043315e-004
2.441479e+003,5.244687e-004
2.443407e+003,5.129427e-004
2.445336e+003,5.468391e-004
2.447265e+003,5.440377e-004
2.449193e+003,5.882792e-004
2.451122e+003,6.990694e-004
2.453050e+003,7.617101e-004
2.454979e+003,8.585900e-004
2.456907e+003,8.161850e-004
2.458836e+003,7.530637e-004
2.460764e+003,6.131157e-004
2.462693e+003,4.913174e-004
2.464621e+003,4.952326e-004
2.466550e+003,6.952100e-004
2.468478e+003,7.379726e-004
2.470406e+003,8.994006e-004
2.472335e+003,8.603893e-004
2.474264e+003,7.408895e-004
2.476192e+003,8.569770e-004
2.478121e+003,1.132406e-003
2.480049e+003,1.043081e-003
2.481978e+003,9.183101e-004
2.483906e+003,9.329505e-004
2.485835e+003,1.045834e-003
2.487763e+003,9.782277e-004
2.489692e+003,9.224415e-004
2.491620e+003,1.042735e-003
2.493549e+003,1.101952e-003
2.495477e+003,1.072340e-003
2.497406e+003,1.077157e-003
2.499334e+003,1.201048e-003
2.501263e+003,1.504589e-003
2.503191e+003,1.484793e-003
2.505120e+003,1.267597e-003
2.507048e+003,1.220524e-003
2.508977e+003,1.350731e-003
2.510905e+003,1.398452e-003
2.512833e+003,1.503281e-003
2.514762e+003,1.693115e-003
2.516691e+003,1.734637e-003
2.518619e+003,1.682997e-003
2.520548e+003,1.990531e-003
2.522476e+003,2.226584e-003
2.524405e+003,2.439894e-003
2.526333e+003,2.402805e-003
2.528261e+003,2.246726e-003
2.530190e+003,2.187092e-003
2.532119e+003,2.420772e-003
2.534047e+003,2.501480e-003
2.535976e+003,2.403356e-003
2.537904e+003,2.400130e-003
2.539833e+003,2.434477e-003
2.541761e+003,2.469838e-003
2.543689e+003,2.772171e-003
2.545618e+003,2.957527e-003
2.547547e+003,3.033467e-003
2.549475e+003,3.217030e-003
2.551404e+003,3.248487e-003
2.553332e+003,3.321171e-003
2.555260e+003,3.497291e-003
2.557189e+003,3.500380e-003
2.559117e+003,3.497858e-003
2.561046e+003,3.548212e-003
2.562975e+003,3.635813e-003
2.564903e+003,3.650568e-003
2.566832e+003,3.805317e-003
2.568760e+003,3.895801e-003
2.570688e+003,4.009582e-003
2.572617e+003,4.122540e-003
2.574546e+003,4.213650e-003
2.576474e+003,4.287481e-003
2.578403e+003,4.425123e-003
2.580331e+003,4.573494e-003
2.582260e+003,4.836615e-003
2.584188e+003,5.094253e-003
2.586116e+003,5.344477e-003
2.588045e+003,5.324941e-003
2.589974e+003,5.435355e-003
2.591902e+003,5.821988e-003
2.593831e+003,6.164290e-003
2.595759e+003,6.301858e-003
2.597688e+003,6.354969e-003
2.599616e+003,6.438859e-003
2.601544e+003,6.733418e-003
2.603473e+003,7.078517e-003
2.605402e+003,7.358402e-003
2.607330e+003,7.573783e-003
2.609259e+003,7.728856e-003
2.611187e+003,7.961370e-003
2.613115e+003,8.275371e-003
2.615044e+003,8.566707e-003
2.616972e+003,8.985072e-003
2.618901e+003,9.376738e-003
2.620830e+003,9.635400e-003
2.622758e+003,9.932730e-003
2.624687e+003,1.034560e-002
2.626615e+003,1.071232e-002
2.628543e+003,1.113636e-002
2.630472e+003,1.157995e-002
2.632400e+003,1.191996e-002
2.634329e+003,1.210936e-002
2.636258e+003,1.221573e-002
2.638186e+003,1.222046e-002
2.640115e+003,1.214251e-002
2.642043e+003,1.206904e-002
2.643971e+003,1.200193e-002
2.645900e+003,1.206068e-002
2.647828e+003,1.214769e-002
2.649757e+003,1.219945e-002
2.651686e+003,1.229847e-002
2.653614e+003,1.246457e-002
2.655542e+003,1.269159e-002
2.657471e+003,1.288730e-002
2.659399e+003,1.294476e-002
2.661328e+003,1.279367e-002
2.663256e+003,1.250088e-002
2.665185e+003,1.221183e-002
2.667114e+003,1.200884e-002
2.669042e+003,1.185230e-002
2.670970e+003,1.166936e-002
2.672899e+003,1.147223e-002
2.674827e+003,1.131293e-002
2.676756e+003,1.122835e-002
2.678685e+003,1.113120e-002
2.680613e+003,1.099008e-002
2.682542e+003,1.084471e-002
2.684470e+003,1.076809e-002
2.686398e+003,1.073316e-002
2.688327e+003,1.059236e-002
2.690255e+003,1.045034e-002
2.692184e+003,1.033401e-002
2.694113e+003,1.027630e-002
2.696041e+003,1.027940e-002
2.697969e+003,1.033118e-002
2.699898e+003,1.044969e-002
2.701826e+003,1.057969e-002
2.703755e+003,1.077072e-002
2.705683e+003,1.095426e-002
2.707612e+003,1.109003e-002
2.709541e+003,1.116446e-002
2.711469e+003,1.124646e-002
2.713397e+003,1.140523e-002
2.715326e+003,1.161527e-002
2.717254e+003,1.183828e-002
2.719183e+003,1.196535e-002
2.721111e+003,1.212290e-002
2.723040e+003,1.239402e-002
2.724969e+003,1.268322e-002
2.726897e+003,1.297766e-002
2.728825e+003,1.323248e-002
2.730754e+003,1.344747e-002
2.732682e+003,1.371014e-002
2.734611e+003,1.390424e-002
2.736539e+003,1.399908e-002
2.738468e+003,1.409845e-002
2.740396e+003,1.417989e-002
2.742325e+003,1.422523e-002
2.744253e+003,1.420082e-002
2.746182e+003,1.417733e-002
2.748110e+003,1.421857e-002
2.750039e+003,1.432430e-002
2.751967e+003,1.449537e-002
2.753896e+003,1.465923e-002
2.755824e+003,1.485118e-002
2.757753e+003,1.520393e-002
2.759681e+003,1.558073e-002
2.761610e+003,1.588692e-002
2.763538e+003,1.633276e-002
2.765467e+003,1.680727e-002
2.767395e+003,1.723900e-002
2.769324e+003,1.769815e-002
2.771252e+003,1.820412e-002
2.773181e+003,1.883471e-002
2.775109e+003,1.961492e-002
2.777038e+003,2.039020e-002
2.778966e+003,2.124478e-002
2.780895e+003,2.229870e-002
2.782823e+003,2.339607e-002
2.784752e+003,2.466991e-002
2.786680e+003,2.614294e-002
2.788609e+003,2.761105e-002
2.790537e+003,2.902513e-002
2.792466e+003,3.056217e-002
2.794394e+003,3.223653e-002
2.796323e+003,3.393786e-002
2.798251e+003,3.569587e-002
2.800180e+003,3.753466e-002
2.802108e+003,3.954443e-002
2.804037e+003,4.175424e-002
2.805965e+003,4.414457e-002
2.807894e+003,4.686482e-002
2.809822e+003,4.998275e-002
2.811751e+003,5.355134e-002
2.813679e+003,5.766011e-002
2.815608e+003,6.251956e-002
2.817536e+003,6.826690e-002
2.819465e+003,7.507942e-002
2.821393e+003,8.319248e-002
2.823322e+003,9.313826e-002
2.825250e+003,1.055152e-001
2.827179e+003,1.209939e-001
2.829107e+003,1.404651e-001
2.831036e+003,1.650392e-001
2.832964e+003,1.966618e-001
2.834893e+003,2.388277e-001
2.836821e+003,2.959327e-001
2.838750e+003,3.750343e-001
2.840678e+003,4.876175e-001
2.842607e+003,6.452298e-001
2.844535e+003,8.416477e-001
2.846464e+003,1.007265e+000
2.848392e+003,1.003293e+000
2.850321e+003,8.298608e-001
2.852249e+003,6.396953e-001
2.854178e+003,5.003451e-001
2.856106e+003,4.008509e-001
2.858035e+003,3.259780e-001
2.859963e+003,2.692277e-001
2.861892e+003,2.275374e-001
2.863820e+003,1.984857e-001
2.865749e+003,1.801282e-001
2.867677e+003,1.706067e-001
2.869606e+003,1.678193e-001
2.871534e+003,1.693099e-001
2.873463e+003,1.739212e-001
2.875391e+003,1.827509e-001
2.877320e+003,1.971021e-001
2.879248e+003,2.166679e-001
2.881177e+003,2.399350e-001
2.883105e+003,2.655970e-001
2.885034e+003,2.929076e-001
2.886962e+003,3.214038e-001
2.888891e+003,3.507881e-001
2.890819e+003,3.805228e-001
2.892748e+003,4.103663e-001
2.894676e+003,4.403724e-001
2.896605e+003,4.710252e-001
2.898533e+003,5.034189e-001
2.900462e+003,5.398028e-001
2.902390e+003,5.836045e-001
2.904319e+003,6.393547e-001
2.906247e+003,7.124199e-001
2.908176e+003,8.071771e-001
2.910104e+003,9.234171e-001
2.912033e+003,1.046648e+000
2.913961e+003,1.133389e+000
2.915890e+003,1.129574e+000
2.917818e+003,1.034947e+000
2.919747e+003,9.035474e-001
2.921675e+003,7.765768e-001
2.923604e+003,6.677778e-001
2.925532e+003,5.785442e-001
2.927461e+003,5.046207e-001
2.929389e+003,4.408088e-001
2.931318e+003,3.843707e-001
2.933246e+003,3.343562e-001
2.935175e+003,2.903993e-001
2.937103e+003,2.522629e-001
2.939032e+003,2.195525e-001
2.940960e+003,1.919102e-001
2.942889e+003,1.691958e-001
2.944817e+003,1.512410e-001
2.946746e+003,1.377879e-001
2.948674e+003,1.283182e-001
2.950603e+003,1.216590e-001
2.952531e+003,1.162402e-001
2.954460e+003,1.106677e-001
2.956388e+003,1.044891e-001
2.958317e+003,9.767744e-002
2.960245e+003,9.035340e-002
2.962174e+003,8.258716e-002
2.964102e+003,7.479116e-002
2.966031e+003,6.722441e-002
2.967959e+003,6.025835e-002
2.969888e+003,5.403513e-002
2.971816e+003,4.853554e-002
2.973745e+003,4.384521e-002
2.975673e+003,3.985766e-002
2.977602e+003,3.639084e-002
2.979530e+003,3.345285e-002
2.981459e+003,3.093861e-002
2.983387e+003,2.889947e-002
2.985316e+003,2.723118e-002
2.987244e+003,2.596812e-002
2.989173e+003,2.517152e-002
2.991101e+003,2.499171e-002
2.993030e+003,2.549006e-002
2.994958e+003,2.661172e-002
2.996887e+003,2.837607e-002
2.998815e+003,3.057439e-002
3.000744e+003,3.273097e-002
3.002672e+003,3.434935e-002
3.004601e+003,3.503865e-002
3.006529e+003,3.467445e-002
3.008458e+003,3.318601e-002
3.010386e+003,3.083004e-002
3.012315e+003,2.789573e-002
3.014243e+003,2.483582e-002
3.016172e+003,2.181426e-002
3.018100e+003,1.920881e-002
3.020029e+003,1.709481e-002
3.021957e+003,1.523804e-002
3.023886e+003,1.378204e-002
3.025814e+003,1.275686e-002
3.027743e+003,1.192303e-002
3.029671e+003,1.126476e-002
3.031600e+003,1.062485e-002
3.033528e+003,1.002682e-002
3.035457e+003,9.503998e-003
3.037385e+003,9.032667e-003
3.039314e+003,8.631237e-003
3.041242e+003,8.228887e-003
3.043171e+003,7.880267e-003
3.045099e+003,7.500924e-003
3.047028e+003,7.193230e-003
3.048956e+003,6.965037e-003
3.050885e+003,6.697875e-003
3.052813e+003,6.458923e-003
3.054742e+003,6.279528e-003
3.056670e+003,6.196935e-003
3.058599e+003,6.085359e-003
3.060527e+003,5.929928e-003
3.062456e+003,5.830761e-003
3.064384e+003,5.866896e-003
3.066313e+003,5.814843e-003
3.068241e+003,5.601682e-003
3.070170e+003,5.407527e-003
3.072098e+003,5.296461e-003
3.074027e+003,5.100716e-003
3.075955e+003,4.925635e-003
3.077884e+003,4.744340e-003
3.079812e+003,4.664004e-003
3.081741e+003,4.528131e-003
3.083669e+003,4.243605e-003
3.085598e+003,4.025213e-003
3.087526e+003,3.868219e-003
3.089455e+003,3.686547e-003
3.091383e+003,3.476162e-003
3.093312e+003,3.161147e-003
3.095240e+003,2.920441e-003
3.097169e+003,2.750199e-003
3.099097e+003,2.621114e-003
3.101026e+003,2.390157e-003
3.102954e+003,2.064202e-003
3.104883e+003,1.700722e-003
3.106811e+003,1.503006e-003
3.108740e+003,1.427971e-003
3.110668e+003,1.399931e-003
3.112597e+003,1.351219e-003
3.114525e+003,1.302328e-003
3.116454e+003,1.221891e-003
3.118382e+003,1.073498e-003
3.120311e+003,8.582063e-004
3.122239e+003,8.246116e-004
3.124168e+003,8.677281e-004
3.126096e+003,8.341856e-004
3.128025e+003,6.960630e-004
3.129953e+003,5.764738e-004
3.131882e+003,5.512722e-004
3.133810e+003,6.244369e-004
3.135739e+003,5.331784e-004
3.137667e+003,4.369020e-004
3.139596e+003,4.094653e-004
3.141524e+003,4.794300e-004
3.143453e+003,5.190484e-004
3.145381e+003,4.936755e-004
3.147310e+003,4.452206e-004
3.149238e+003,3.955066e-004
3.151167e+003,3.138110e-004
3.153095e+003,2.526790e-004
3.155024e+003,1.983717e-004
3.156952e+003,1.871437e-004
3.158881e+003,2.294704e-004
3.160809e+003,2.136305e-004
3.162738e+003,2.280474e-004
3.164666e+003,2.286434e-004
3.166594e+003,2.213418e-004
3.168523e+003,2.600700e-004
3.170452e+003,3.139153e-004
3.172380e+003,2.726167e-004
3.174309e+003,2.136528e-004
3.176237e+003,3.566965e-004
3.178166e+003,4.895553e-004
3.180094e+003,4.350170e-004
3.182022e+003,3.863499e-004
3.183951e+003,3.926381e-004
3.185880e+003,3.828034e-004
3.187808e+003,3.156662e-004
3.189737e+003,2.872795e-004
3.191665e+003,2.013892e-004
3.193594e+003,1.455322e-004
3.195522e+003,2.668500e-004
3.197450e+003,3.759116e-004
3.199379e+003,3.124923e-004
3.201308e+003,2.115592e-004
3.203236e+003,1.082942e-004
3.205165e+003,4.270673e-005
3.207093e+003,1.511425e-004
3.209021e+003,3.110394e-004
3.210950e+003,2.586916e-004
3.212878e+003,1.494288e-004
3.214807e+003,1.349449e-004
3.216736e+003,1.871809e-004
3.218664e+003,2.088621e-004
3.220593e+003,1.379550e-004
3.222521e+003,8.898973e-005
3.224449e+003,1.514778e-004
3.226378e+003,1.139790e-004
3.228307e+003,6.299466e-005
3.230235e+003,-3.851950e-006
3.232164e+003,-5.553663e-005
3.234092e+003,-1.216307e-004
3.236021e+003,-5.627424e-005
3.237949e+003,-9.225309e-005
3.239877e+003,-8.186698e-005
3.241806e+003,4.254282e-005
3.243735e+003,1.225546e-004
3.245663e+003,-1.068413e-005
3.247592e+003,-1.032054e-004
3.249520e+003,-4.062802e-005
3.251448e+003,2.135336e-005
3.253377e+003,1.420900e-004
3.255305e+003,1.358166e-004
3.257234e+003,6.669760e-005
3.259163e+003,-3.562123e-005
3.261091e+003,-9.179860e-005
3.263020e+003,-8.828193e-005
3.264948e+003,-3.822148e-005
3.266876e+003,3.628433e-006
3.268805e+003,1.671910e-004
3.270733e+003,3.254265e-004
3.272662e+003,3.823191e-004
3.274591e+003,3.455430e-004
3.276519e+003,3.117919e-004
3.278448e+003,2.533123e-004
3.280376e+003,1.962408e-004
3.282304e+003,1.717880e-004
3.284233e+003,1.474246e-004
3.286161e+003,1.030639e-004
3.288090e+003,6.070733e-005
3.290019e+003,7.171184e-005
3.291947e+003,6.125867e-005
3.293875e+003,-4.393607e-005
3.295804e+003,5.215406e-007
3.297732e+003,1.950040e-004
3.299661e+003,6.838143e-005
3.301589e+003,-6.214529e-005
3.303518e+003,-7.599592e-007
3.305447e+003,-3.162771e-005
3.307375e+003,-4.979223e-005
3.309303e+003,2.592802e-005
3.311232e+003,1.190826e-004
3.313160e+003,6.751716e-005
3.315089e+003,2.888590e-005
3.317018e+003,-4.628301e-005
3.318946e+003,-4.507601e-005
3.320875e+003,1.735985e-006
3.322803e+003,-2.577901e-006
3.324731e+003,-9.544194e-006
3.326660e+003,3.633648e-005
3.328588e+003,7.175654e-005
3.330517e+003,-2.393126e-005
3.332446e+003,-5.903095e-005
3.334374e+003,5.804002e-005
3.336302e+003,1.502559e-004
3.338231e+003,6.259233e-005
3.340159e+003,-1.118332e-004
3.342088e+003,-1.394600e-004
3.344016e+003,-5.029142e-005
3.345945e+003,-1.151860e-005
3.347874e+003,3.356487e-005
3.349802e+003,-2.302229e-006
3.351730e+003,-7.670373e-005
3.353659e+003,-1.082569e-004
3.355587e+003,-8.245558e-005
3.357516e+003,-8.343160e-005
3.359444e+003,4.681945e-005
3.361373e+003,1.058728e-004
3.363302e+003,1.061559e-004
3.365230e+003,2.395660e-004
3.367158e+003,2.623573e-004
3.369087e+003,1.096055e-004
3.371015e+003,-7.150322e-005
3.372944e+003,-1.109987e-004
3.374872e+003,-8.602440e-005
3.376801e+003,-6.736070e-005
3.378729e+003,-3.002584e-005
3.380658e+003,5.468726e-006
3.382586e+003,1.963228e-005
3.384515e+003,8.806586e-006
3.386443e+003,-7.876009e-005
3.388372e+003,-1.425520e-004
3.390300e+003,-2.834946e-005
3.392229e+003,1.228228e-004
3.394157e+003,3.157556e-005
3.396086e+003,7.548183e-005
3.398014e+003,1.192018e-004
3.399943e+003,1.068413e-005
3.401871e+003,-9.193271e-005
3.403800e+003,-1.427159e-004
3.405728e+003,-6.581843e-005
3.407657e+003,-5.400181e-005
3.409585e+003,-1.349002e-004
3.411514e+003,-8.191168e-005
3.413442e+003,-7.624179e-005
3.415371e+003,-1.967624e-004
3.417299e+003,-1.726449e-004
3.419228e+003,1.100823e-004
3.421156e+003,3.286079e-004
3.423085e+003,1.968369e-004
3.425013e+003,-8.985400e-006
3.426942e+003,-1.385808e-005
3.428870e+003,8.873641e-006
3.430799e+003,1.852959e-005
3.432727e+003,5.521625e-005
3.434656e+003,4.488230e-005
3.436584e+003,1.119301e-004
3.438513e+003,4.576147e-005
3.440441e+003,2.057478e-004
3.442370e+003,5.164668e-004
3.444298e+003,5.980283e-004
3.446227e+003,7.306561e-004
3.448155e+003,5.553365e-004
3.450084e+003,3.481060e-004
3.452012e+003,3.787056e-004
3.453941e+003,6.160140e-004
3.455869e+003,6.983802e-004
3.457798e+003,6.377473e-004
3.459726e+003,7.193759e-004
3.461655e+003,9.130985e-004
3.463583e+003,9.306371e-004
3.465512e+003,1.041450e-003
3.467440e+003,1.024641e-003
3.469369e+003,1.017570e-003
3.471297e+003,1.010478e-003
3.473226e+003,9.656325e-004
3.475154e+003,8.958876e-004
3.477083e+003,8.125454e-004
3.479011e+003,9.483248e-004
3.480940e+003,9.926483e-004
3.482868e+003,8.925125e-004
3.484797e+003,8.031577e-004
3.486725e+003,8.831695e-004
3.488654e+003,7.773563e-004
3.490582e+003,5.043373e-004
3.492511e+003,3.475323e-004
3.494439e+003,3.942102e-004
3.496368e+003,4.580468e-004
3.498296e+003,3.775731e-004
3.500225e+003,4.885867e-004
3.502153e+003,9.547621e-004
3.504082e+003,8.395985e-004
3.506010e+003,3.912151e-004
3.507939e+003,4.809275e-004
3.509867e+003,5.192086e-004
3.511796e+003,2.776608e-004
3.513724e+003,1.495108e-004
3.515653e+003,3.235042e-005
3.517581e+003,1.467764e-006
3.519510e+003,-5.119294e-005
3.521438e+003,1.829043e-004
3.523367e+003,5.541444e-004
3.525295e+003,5.355850e-004
3.527224e+003,6.647930e-004
3.529152e+003,5.965158e-004
3.531081e+003,1.544729e-004
3.533009e+003,-1.979396e-004
3.534938e+003,1.297966e-004
3.536866e+003,3.045052e-004
3.538795e+003,1.232326e-005
3.540723e+003,-1.739785e-004
3.542652e+003,5.366653e-005
3.544580e+003,7.368550e-004
3.546509e+003,8.986294e-004
3.548437e+003,2.369508e-004
3.550366e+003,1.426339e-004
3.552294e+003,2.352372e-004
3.554223e+003,-2.515316e-004
3.556151e+003,-4.414991e-004
3.558080e+003,-3.893450e-004
3.560008e+003,-3.191158e-004
3.561937e+003,-3.618896e-004
3.563865e+003,2.343059e-004
3.565794e+003,1.642786e-003
3.567722e+003,1.746215e-003
3.569651e+003,6.090030e-004
3.571579e+003,-1.087710e-004
3.573508e+003,-4.394874e-004
3.575436e+003,-5.866885e-004
3.577365e+003,-4.271418e-004
3.579293e+003,-3.811568e-004
3.581222e+003,-7.918254e-004
3.583150e+003,-9.693429e-004
3.585079e+003,-2.287403e-004
3.587007e+003,1.457311e-003
3.588936e+003,9.379536e-004
3.590864e+003,1.888573e-004
3.592793e+003,3.413484e-004
3.594721e+003,8.608252e-004
3.596650e+003,1.018643e-003
3.598578e+003,1.414746e-003
3.600507e+003,1.538329e-003
3.602435e+003,1.013234e-003
3.604364e+003,7.367879e-004
3.606292e+003,1.367748e-003
3.608221e+003,2.043270e-003
3.610149e+003,1.729608e-003
3.612078e+003,1.958676e-003
3.614006e+003,1.579970e-003
3.615935e+003,1.086928e-003
3.617863e+003,1.647830e-003
3.619792e+003,1.719721e-003
3.621720e+003,5.167127e-004
3.623649e+003,-2.243742e-004
3.625577e+003,-1.217574e-004
3.627506e+003,1.442164e-003
3.629434e+003,2.245575e-003
3.631363e+003,9.143725e-004
3.633291e+003,2.569482e-004
3.635220e+003,-4.749522e-004
3.637148e+003,-4.547015e-004
3.639077e+003,-1.796037e-004
3.641005e+003,2.909452e-005
3.642934e+003,-2.345666e-004
3.644862e+003,9.032339e-005
3.646791e+003,1.460314e-003
3.648719e+003,3.484398e-003
3.650648e+003,2.842113e-003
3.652576e+003,6.419942e-004
3.654505e+003,4.935339e-004
3.656433e+003,3.981218e-004
3.658362e+003,-6.654859e-005
3.660290e+003,-3.122315e-004
3.662219e+003,-6.856993e-004
3.664147e+003,-8.835793e-004
3.666076e+003,-7.992089e-004
3.668004e+003,1.633018e-004
3.669933e+003,8.550212e-004
3.671861e+003,-2.744049e-004
3.673790e+003,6.778389e-004
3.675718e+003,1.781844e-003
3.677647e+003,1.285374e-003
3.679575e+003,6.039143e-004
3.681504e+003,-3.574044e-004
3.683432e+003,-8.123294e-004
3.685361e+003,-7.944778e-004
3.687289e+003,3.302842e-004
3.689218e+003,1.539305e-003
3.691146e+003,1.109898e-003
3.693075e+003,-2.127811e-004
3.695003e+003,-6.593764e-004
3.696932e+003,-9.888560e-004
3.698860e+003,-9.627044e-004
3.700789e+003,-2.070591e-004
3.702717e+003,-3.268570e-005
3.704646e+003,-4.422367e-004
3.706574e+003,-5.372986e-004
3.708503e+003,9.714812e-005
3.710431e+003,1.665018e-003
3.712360e+003,1.789294e-003
3.714288e+003,3.760681e-004
3.716217e+003,-2.576858e-004
3.718145e+003,-1.826510e-004
3.720074e+003,1.134053e-004
3.722002e+003,4.980788e-004
3.723931e+003,7.773265e-004
3.725859e+003,1.049533e-003
3.727788e+003,-4.649162e-006
3.729716e+003,-1.069978e-004
3.731645e+003,5.052388e-004
3.733573e+003,1.949601e-003
3.735502e+003,3.263041e-003
3.737430e+003,1.631968e-003
3.739359e+003,5.987883e-004
3.741287e+003,2.693161e-004
3.743216e+003,1.471132e-003
3.745144e+003,1.851790e-003
3.747073e+003,1.611255e-003
3.749001e+003,2.454378e-003
3.750930e+003,3.620043e-003
3.752858e+003,1.777358e-003
3.754787e+003,5.480647e-004
3.756715e+003,5.844906e-004
3.758644e+003,1.029305e-003
3.760572e+003,4.514009e-004
3.762501e+003,-2.681762e-004
3.764429e+003,2.765656e-005
3.766358e+003,-1.412407e-004
3.768286e+003,3.254488e-004
3.770215e+003,3.016591e-004
3.772143e+003,-3.915206e-004
3.774072e+003,-7.577762e-004
3.776000e+003,-7.252917e-004
3.777929e+003,4.412979e-005
3.779857e+003,3.544986e-004
3.781786e+003,2.773106e-005
3.783714e+003,2.527460e-004
3.785643e+003,8.665025e-006
3.787571e+003,-4.576668e-004
3.789500e+003,-7.732660e-004
3.791428e+003,-7.335767e-004
3.793357e+003,-5.877316e-004
3.795285e+003,1.013055e-004
3.797214e+003,2.646670e-004
3.799142e+003,6.656721e-004
3.801071e+003,2.245165e-003
3.802999e+003,1.231797e-003
3.804927e+003,8.978322e-004
3.806856e+003,9.744093e-004
3.808785e+003,1.508072e-004
3.810713e+003,-1.597926e-004
3.812642e+003,-2.671257e-004
3.814570e+003,5.390942e-004
3.816499e+003,7.900894e-004
3.818427e+003,1.261972e-003
3.820355e+003,2.730928e-003
3.822284e+003,1.789607e-003
3.824213e+003,1.127504e-003
3.826141e+003,9.057671e-004
3.828070e+003,3.242269e-004
3.829998e+003,5.200952e-004
3.831927e+003,8.243844e-004
3.833855e+003,1.214541e-003
3.835783e+003,1.733147e-003
3.837712e+003,2.341561e-003
3.839641e+003,2.218515e-003
3.841569e+003,1.573958e-003
3.843498e+003,1.246519e-003
3.845426e+003,3.828481e-004
3.847354e+003,8.797646e-005
3.849283e+003,1.886711e-004
3.851211e+003,1.241930e-003
3.853140e+003,3.229916e-003
3.855069e+003,2.622858e-003
3.856997e+003,1.303636e-003
3.858926e+003,1.501217e-004
3.860854e+003,3.869832e-004
3.862782e+003,1.396514e-003
3.864711e+003,1.849703e-003
3.866640e+003,1.046613e-003
3.868568e+003,2.038218e-003
3.870497e+003,2.001427e-003
3.872425e+003,1.910090e-003
3.874354e+003,1.399115e-003
3.876282e+003,3.247410e-004
3.878210e+003,6.290227e-004
3.880139e+003,1.600474e-003
3.882068e+003,1.266979e-003
3.883996e+003,1.771718e-003
3.885925e+003,1.485869e-003
3.887853e+003,2.462268e-004
3.889781e+003,7.455051e-004
3.891710e+003,1.451649e-003
3.893638e+003,8.287057e-004
3.895567e+003,3.947541e-004
3.897496e+003,8.748099e-004
3.899424e+003,1.481391e-003
3.901353e+003,2.021082e-003
3.903281e+003,2.729669e-003
3.905209e+003,2.121985e-003
3.907138e+003,8.975491e-004
3.909066e+003,2.561435e-004
3.910995e+003,8.170307e-005
3.912924e+003,-4.493445e-005
3.914852e+003,5.000010e-004
3.916781e+003,9.686276e-004
3.918709e+003,8.013397e-004
3.920637e+003,3.917664e-004
3.922566e+003,6.239042e-004
3.924494e+003,8.604079e-004
3.926423e+003,2.653226e-004
3.928352e+003,4.046783e-004
3.930280e+003,8.037165e-004
3.932208e+003,9.432286e-004
3.934137e+003,4.646108e-004
3.936065e+003,1.279488e-004
3.937994e+003,-9.482354e-005
3.939922e+003,1.138076e-004
3.941851e+003,7.788762e-004
3.943780e+003,6.402507e-004
3.945708e+003,4.588664e-004
3.947636e+003,7.944107e-004
3.949565e+003,6.004348e-004
3.951493e+003,1.849160e-004
3.953422e+003,-2.102554e-005
3.955351e+003,-1.097247e-004
3.957279e+003,-1.746118e-004
3.959208e+003,5.643070e-005
3.961136e+003,3.353208e-004
3.963064e+003,7.729977e-005
3.964993e+003,-2.113432e-004
3.966921e+003,-1.612902e-004
3.968850e+003,-1.169890e-004
3.970779e+003,-2.266392e-004
3.972707e+003,-1.231506e-004
3.974635e+003,5.608052e-005
3.976564e+003,-1.100451e-005
3.978492e+003,-2.230555e-004
3.980421e+003,-2.940595e-004
3.982349e+003,-1.960471e-004
3.984278e+003,-1.282170e-004
3.986207e+003,-3.004596e-004
3.988135e+003,-2.902299e-004
3.990063e+003,-2.238899e-004
3.991992e+003,-2.630949e-004
3.993920e+003,-2.640784e-004
3.995849e+003,-3.924072e-004
3.997777e+003,-5.776286e-004
3.999706e+003,-5.251765e-004
4.001635e+003,0.000000e+000
