3.991992e+002,0.000000e+000
4.011277e+002,0.000000e+000
4.030562e+002,0.000000e+000
4.049846e+002,0.000000e+000
4.069131e+002,0.000000e+000
4.088416e+002,0.000000e+000
4.107701e+002,0.000000e+000
4.126986e+002,0.000000e+000
4.146271e+002,0.000000e+000
4.165556e+002,0.000000e+000
4.184841e+002,0.000000e+000
4.204126e+002,0.000000e+000
4.223411e+002,0.000000e+000
4.242697e+002,0.000000e+000
4.261982e+002,0.000000e+000
4.281266e+002,0.000000e+000
4.300551e+002,0.000000e+000
4.319836e+002,0.000000e+000
4.339121e+002,0.000000e+000
4.358406e+002,0.000000e+000
4.377691e+002,0.000000e+000
4.396976e+002,0.000000e+000
4.416261e+002,0.000000e+000
4.435546e+002,0.000000e+000
4.454831e+002,0.000000e+000
4.474116e+002,0.000000e+000
4.493401e+002,0.000000e+000
4.512686e+002,0.000000e+000
4.531971e+002,0.000000e+000
4.551256e+002,0.000000e+000
4.570541e+002,0.000000e+000
4.589826e+002,0.000000e+000
4.609111e+002,0.000000e+000
4.628396e+002,0.000000e+000
4.647681e+002,0.000000e+000
4.666966e+002,0.000000e+000
4.686251e+002,0.000000e+000
4.705536e+002,0.000000e+000
4.724821e+002,0.000000e+000
4.744106e+002,0.000000e+000
4.763391e+002,0.000000e+000
4.782676e+002,0.000000e+000
4.801961e+002,0.000000e+000
4.821246e+002,0.000000e+000
4.840531e+002,0.000000e+000
4.859816e+002,0.000000e+000
4.879101e+002,0.000000e+000
4.898386e+002,0.000000e+000
4.917671e+002,0.000000e+000
4.936956e+002,0.000000e+000
4.956241e+002,0.000000e+000
4.975526e+002,0.000000e+000
4.994811e+002,0.000000e+000
5.014096e+002,0.000000e+000
5.033381e+002,0.000000e+000
5.052666e+002,0.000000e+000
5.071951e+002,0.000000e+000
5.091236e+002,0.000000e+000
5.110521e+002,0.000000e+000
5.129806e+002,0.000000e+000
5.149091e+002,0.000000e+000
5.168376e+002,0.000000e+000
5.187661e+002,0.000000e+000
5.206946e+002,0.000000e+000
5.226230e+002,0.000000e+000
5.245516e+002,-1.007803e-004
5.264800e+002,-7.872097e-005
5.284086e+002,-1.044990e-005
5.303370e+002,-7.997360e-005
5.322656e+002,-1.139450e-004
5.341940e+002,-7.720198e-005
5.361226e+002,-1.244904e-004
5.380510e+002,-1.005665e-004
5.399796e+002,-7.310277e-005
5.419081e+002,-4.380103e-005
5.438365e+002,1.041298e-004
5.457650e+002,2.639927e-005
5.476935e+002,-6.295415e-005
5.496221e+002,2.028001e-005
5.515505e+002,8.005323e-005
5.534790e+002,7.394841e-005
5.554075e+002,1.169886e-004
5.573361e+002,1.520929e-004
5.592645e+002,1.882599e-004
5.611931e+002,1.059850e-004
5.631215e+002,1.037256e-004
5.650500e+002,1.992793e-004
5.669785e+002,3.246632e-004
5.689070e+002,4.026573e-004
5.708355e+002,4.073819e-004
5.727640e+002,5.212440e-004
5.746925e+002,7.389719e-004
5.766210e+002,7.867566e-004
5.785495e+002,7.987139e-004
5.804780e+002,9.016786e-004
5.824065e+002,1.073819e-003
5.843350e+002,1.095629e-003
5.862635e+002,1.205118e-003
5.881920e+002,1.118587e-003
5.901205e+002,1.049956e-003
5.920490e+002,1.067433e-003
5.939775e+002,1.052549e-003
5.959060e+002,1.095600e-003
5.978345e+002,1.297725e-003
5.997630e+002,1.338306e-003
6.016915e+002,1.293298e-003
6.036200e+002,1.302331e-003
6.055485e+002,1.390696e-003
6.074770e+002,1.352373e-003
6.094055e+002,1.260034e-003
6.113340e+002,1.191949e-003
6.132625e+002,1.124698e-003
6.151910e+002,9.982581e-004
6.171195e+002,1.009754e-003
6.190480e+002,1.064750e-003
6.209765e+002,1.086815e-003
6.229050e+002,1.132815e-003
6.248335e+002,1.206488e-003
6.267620e+002,1.249779e-003
6.286905e+002,1.364470e-003
6.306190e+002,1.383998e-003
6.325475e+002,1.443954e-003
6.344760e+002,1.474676e-003
6.364045e+002,1.570000e-003
6.383330e+002,1.639487e-003
6.402615e+002,1.684208e-003
6.421899e+002,1.672626e-003
6.441185e+002,1.795627e-003
6.460470e+002,1.916998e-003
6.479755e+002,2.024758e-003
6.499039e+002,2.074237e-003
6.518325e+002,2.079776e-003
6.537610e+002,2.076893e-003
6.556895e+002,2.252043e-003
6.576179e+002,2.465327e-003
6.595464e+002,2.573451e-003
6.614750e+002,2.564915e-003
6.634034e+002,2.784484e-003
6.653319e+002,2.903206e-003
6.672604e+002,3.061537e-003
6.691890e+002,3.343049e-003
6.711174e+002,3.659662e-003
6.730460e+002,3.882987e-003
6.749745e+002,4.227063e-003
6.769030e+002,4.560980e-003
6.788314e+002,5.000595e-003
6.807599e+002,5.372659e-003
6.826885e+002,5.805381e-003
6.846169e+002,6.239276e-003
6.865454e+002,6.705421e-003
6.884739e+002,7.081005e-003
6.904025e+002,7.579791e-003
6.923309e+002,8.062792e-003
6.942594e+002,8.667205e-003
6.961879e+002,9.246390e-003
6.981165e+002,1.015170e-002
7.000449e+002,1.110437e-002
7.019734e+002,1.236706e-002
7.039019e+002,1.392393e-002
7.058304e+002,1.617386e-002
7.077589e+002,1.904403e-002
7.096874e+002,2.350152e-002
7.116159e+002,3.048955e-002
7.135444e+002,4.368778e-002
7.154729e+002,6.907536e-002
7.174014e+002,1.085047e-001
7.193299e+002,1.229521e-001
7.212584e+002,8.523680e-002
7.231869e+002,5.414347e-002
7.251154e+002,4.634659e-002
7.270439e+002,5.525321e-002
7.289724e+002,8.101050e-002
7.309009e+002,8.567467e-002
7.328294e+002,5.120692e-002
7.347579e+002,2.547102e-002
7.366864e+002,1.639355e-002
7.386149e+002,1.279155e-002
7.405434e+002,1.058043e-002
7.424719e+002,9.190689e-003
7.444004e+002,8.111227e-003
7.463289e+002,7.327516e-003
7.482574e+002,6.624096e-003
7.501859e+002,6.107301e-003
7.521144e+002,5.610211e-003
7.540428e+002,5.299406e-003
7.559714e+002,4.945308e-003
7.578999e+002,4.708257e-003
7.598284e+002,4.508829e-003
7.617568e+002,4.416218e-003
7.636854e+002,4.298126e-003
7.656139e+002,4.212760e-003
7.675424e+002,4.031050e-003
7.694709e+002,3.827715e-003
7.713994e+002,3.591252e-003
7.733279e+002,3.390650e-003
7.752563e+002,3.173920e-003
7.771849e+002,3.015222e-003
7.791134e+002,2.901976e-003
7.810419e+002,2.908839e-003
7.829703e+002,2.802022e-003
7.848989e+002,2.697763e-003
7.868274e+002,2.660654e-003
7.887559e+002,2.726005e-003
7.906843e+002,2.790663e-003
7.926129e+002,2.782885e-003
7.945414e+002,2.784320e-003
7.964698e+002,2.837529e-003
7.983983e+002,2.839284e-003
8.003268e+002,2.887693e-003
8.022554e+002,2.974196e-003
8.041838e+002,3.061531e-003
8.061123e+002,3.040057e-003
8.080408e+002,3.084015e-003
8.099694e+002,3.094484e-003
8.118978e+002,3.092941e-003
8.138263e+002,3.143762e-003
8.157548e+002,3.173808e-003
8.176833e+002,3.153225e-003
8.196118e+002,3.208176e-003
8.215403e+002,3.208439e-003
8.234689e+002,3.193884e-003
8.253973e+002,3.211286e-003
8.273258e+002,3.217517e-003
8.292543e+002,3.306393e-003
8.311829e+002,3.383715e-003
8.331113e+002,3.385670e-003
8.350398e+002,3.440340e-003
8.369683e+002,3.505531e-003
8.388969e+002,3.649877e-003
8.408253e+002,3.781741e-003
8.427538e+002,3.888584e-003
8.446823e+002,4.004989e-003
8.466108e+002,4.068845e-003
8.485393e+002,4.109671e-003
8.504678e+002,4.176370e-003
8.523963e+002,4.297937e-003
8.543248e+002,4.340502e-003
8.562533e+002,4.303174e-003
8.581818e+002,4.315381e-003
8.601103e+002,4.383801e-003
8.620388e+002,4.410455e-003
8.639673e+002,4.396259e-003
8.658958e+002,4.415254e-003
8.678243e+002,4.491492e-003
8.697528e+002,4.554316e-003
8.716813e+002,4.543373e-003
8.736098e+002,4.529289e-003
8.755383e+002,4.552473e-003
8.774668e+002,4.553533e-003
8.793953e+002,4.569305e-003
8.813238e+002,4.583248e-003
8.832523e+002,4.671421e-003
8.851808e+002,4.790728e-003
8.871093e+002,4.872977e-003
8.890378e+002,4.900292e-003
8.909663e+002,4.967995e-003
8.928948e+002,5.022043e-003
8.948232e+002,5.011097e-003
8.967518e+002,4.901497e-003
8.986803e+002,5.001942e-003
9.006088e+002,5.329326e-003
9.025372e+002,5.748188e-003
9.044658e+002,6.441852e-003
9.063943e+002,7.448729e-003
9.083228e+002,8.014919e-003
9.102512e+002,7.492819e-003
9.121797e+002,6.512337e-003
9.141083e+002,5.741960e-003
9.160367e+002,5.265763e-003
9.179653e+002,5.000761e-003
9.198937e+002,4.804054e-003
9.218223e+002,4.757023e-003
9.237507e+002,4.750662e-003
9.256793e+002,4.766512e-003
9.276077e+002,4.833336e-003
9.295363e+002,4.835336e-003
9.314647e+002,4.875623e-003
9.333932e+002,5.129584e-003
9.353217e+002,5.402698e-003
9.372502e+002,5.518096e-003
9.391787e+002,5.617577e-003
9.411072e+002,5.821940e-003
9.430358e+002,6.056124e-003
9.449642e+002,6.292014e-003
9.468928e+002,6.442057e-003
9.488212e+002,6.627567e-003
9.507498e+002,6.829240e-003
9.526782e+002,7.061328e-003
9.546068e+002,7.281864e-003
9.565352e+002,7.575770e-003
9.584637e+002,7.859384e-003
9.603922e+002,8.182783e-003
9.623207e+002,8.446774e-003
9.642492e+002,8.615106e-003
9.661777e+002,8.757267e-003
9.681062e+002,8.715929e-003
9.700347e+002,8.625444e-003
9.719632e+002,8.480796e-003
9.738917e+002,8.250935e-003
9.758202e+002,8.150615e-003
9.777487e+002,8.075787e-003
9.796772e+002,8.038483e-003
9.816057e+002,8.133179e-003
9.835342e+002,8.311290e-003
9.854627e+002,8.542900e-003
9.873912e+002,8.807745e-003
9.893197e+002,9.003998e-003
9.912482e+002,9.099483e-003
9.931767e+002,9.019553e-003
9.951052e+002,8.878659e-003
9.970337e+002,8.802644e-003
9.989622e+002,8.823062e-003
1.000891e+003,8.866506e-003
1.002819e+003,8.951257e-003
1.004748e+003,9.077214e-003
1.006676e+003,9.272978e-003
1.008605e+003,9.460328e-003
1.010533e+003,9.679589e-003
1.012462e+003,9.902585e-003
1.014390e+003,1.016327e-002
1.016319e+003,1.048117e-002
1.018247e+003,1.077700e-002
1.020176e+003,1.098769e-002
1.022104e+003,1.118419e-002
1.024033e+003,1.136270e-002
1.025961e+003,1.154422e-002
1.027890e+003,1.165717e-002
1.029818e+003,1.175058e-002
1.031747e+003,1.182341e-002
1.033675e+003,1.186185e-002
1.035604e+003,1.179961e-002
1.037532e+003,1.172830e-002
1.039461e+003,1.161459e-002
1.041389e+003,1.150475e-002
1.043318e+003,1.148064e-002
1.045246e+003,1.164669e-002
1.047175e+003,1.193256e-002
1.049103e+003,1.236930e-002
1.051032e+003,1.279508e-002
1.052960e+003,1.312588e-002
1.054889e+003,1.341816e-002
1.056817e+003,1.382576e-002
1.058746e+003,1.422509e-002
1.060674e+003,1.460252e-002
1.062603e+003,1.490756e-002
1.064531e+003,1.513438e-002
1.066460e+003,1.531246e-002
1.068388e+003,1.557546e-002
1.070317e+003,1.593120e-002
1.072245e+003,1.657177e-002
1.074174e+003,1.751060e-002
1.076102e+003,1.874859e-002
1.078031e+003,2.016671e-002
1.079959e+003,2.166484e-002
1.081888e+003,2.296756e-002
1.083816e+003,2.398411e-002
1.085745e+003,2.482562e-002
1.087673e+003,2.573883e-002
1.089602e+003,2.681375e-002
1.091530e+003,2.790423e-002
1.093459e+003,2.871368e-002
1.095387e+003,2.913696e-002
1.097316e+003,2.911762e-002
1.099244e+003,2.878987e-002
1.101173e+003,2.820148e-002
1.103101e+003,2.747686e-002
1.105030e+003,2.682739e-002
1.106958e+003,2.651750e-002
1.108887e+003,2.670052e-002
1.110815e+003,2.744807e-002
1.112744e+003,2.859914e-002
1.114672e+003,2.983748e-002
1.116601e+003,3.078471e-002
1.118529e+003,3.114933e-002
1.120458e+003,3.076103e-002
1.122386e+003,2.971139e-002
1.124315e+003,2.829621e-002
1.126243e+003,2.708774e-002
1.128172e+003,2.666800e-002
1.130100e+003,2.735298e-002
1.132029e+003,2.909844e-002
1.133957e+003,3.179603e-002
1.135885e+003,3.501961e-002
1.137814e+003,3.835195e-002
1.139743e+003,4.131620e-002
1.141671e+003,4.362143e-002
1.143600e+003,4.526454e-002
1.145528e+003,4.648945e-002
1.147457e+003,4.758335e-002
1.149385e+003,4.884292e-002
1.151314e+003,5.030572e-002
1.153242e+003,5.194424e-002
1.155171e+003,5.364310e-002
1.157099e+003,5.520164e-002
1.159028e+003,5.640610e-002
1.160956e+003,5.718014e-002
1.162885e+003,5.740182e-002
1.164813e+003,5.698247e-002
1.166742e+003,5.606420e-002
1.168670e+003,5.474121e-002
1.170599e+003,5.309402e-002
1.172527e+003,5.131277e-002
1.174456e+003,4.953380e-002
1.176384e+003,4.770484e-002
1.178313e+003,4.561148e-002
1.180241e+003,4.359786e-002
1.182170e+003,4.184262e-002
1.184098e+003,4.025800e-002
1.186027e+003,3.877416e-002
1.187955e+003,3.736486e-002
1.189884e+003,3.597520e-002
1.191812e+003,3.461780e-002
1.193740e+003,3.325344e-002
1.195669e+003,3.193798e-002
1.197598e+003,3.074216e-002
1.199526e+003,2.974384e-002
1.201455e+003,2.890824e-002
1.203383e+003,2.829184e-002
1.205312e+003,2.789955e-002
1.207240e+003,2.776488e-002
1.209168e+003,2.768758e-002
1.211097e+003,2.753058e-002
1.213026e+003,2.737201e-002
1.214954e+003,2.731738e-002
1.216883e+003,2.733655e-002
1.218811e+003,2.756683e-002
1.220740e+003,2.793818e-002
1.222668e+003,2.844207e-002
1.224596e+003,2.901886e-002
1.226525e+003,2.964117e-002
1.228453e+003,3.025527e-002
1.230382e+003,3.085353e-002
1.232311e+003,3.134102e-002
1.234239e+003,3.178333e-002
1.236167e+003,3.213878e-002
1.238096e+003,3.229962e-002
1.240025e+003,3.220443e-002
1.241953e+003,3.183256e-002
1.243882e+003,3.112102e-002
1.245810e+003,3.014971e-002
1.247739e+003,2.900838e-002
1.249667e+003,2.786533e-002
1.251595e+003,2.688602e-002
1.253524e+003,2.621572e-002
1.255453e+003,2.578382e-002
1.257381e+003,2.551338e-002
1.259310e+003,2.521116e-002
1.261238e+003,2.485742e-002
1.263167e+003,2.439983e-002
1.265095e+003,2.394934e-002
1.267023e+003,2.347085e-002
1.268952e+003,2.303255e-002
1.270880e+003,2.267848e-002
1.272809e+003,2.250797e-002
1.274738e+003,2.247807e-002
1.276666e+003,2.256550e-002
1.278594e+003,2.254852e-002
1.280523e+003,2.229557e-002
1.282451e+003,2.170957e-002
1.284380e+003,2.099255e-002
1.286308e+003,2.029137e-002
1.288237e+003,1.985727e-002
1.290166e+003,1.971500e-002
1.292094e+003,1.982462e-002
1.294022e+003,1.996457e-002
1.295951e+003,2.011162e-002
1.297879e+003,2.024434e-002
1.299808e+003,2.036136e-002
1.301736e+003,2.032429e-002
1.303665e+003,2.021887e-002
1.305594e+003,2.000285e-002
1.307522e+003,1.978853e-002
1.309450e+003,1.958259e-002
1.311379e+003,1.942052e-002
1.313307e+003,1.918823e-002
1.315236e+003,1.888749e-002
1.317164e+003,1.853311e-002
1.319093e+003,1.819650e-002
1.321021e+003,1.771758e-002
1.322950e+003,1.722319e-002
1.324878e+003,1.664737e-002
1.326807e+003,1.614651e-002
1.328735e+003,1.571446e-002
1.330664e+003,1.552423e-002
1.332592e+003,1.559637e-002
1.334521e+003,1.597571e-002
1.336449e+003,1.651550e-002
1.338378e+003,1.733828e-002
1.340306e+003,1.829699e-002
1.342235e+003,1.902079e-002
1.344163e+003,1.959624e-002
1.346092e+003,2.033205e-002
1.348021e+003,2.108698e-002
1.349949e+003,2.175162e-002
1.351877e+003,2.208726e-002
1.353806e+003,2.214840e-002
1.355734e+003,2.205347e-002
1.357663e+003,2.211624e-002
1.359591e+003,2.239405e-002
1.361520e+003,2.304329e-002
1.363448e+003,2.385417e-002
1.365377e+003,2.446550e-002
1.367305e+003,2.487452e-002
1.369234e+003,2.488947e-002
1.371162e+003,2.437899e-002
1.373091e+003,2.402103e-002
1.375019e+003,2.461459e-002
1.376948e+003,2.524373e-002
1.378876e+003,2.411807e-002
1.380805e+003,2.133526e-002
1.382733e+003,1.854590e-002
1.384662e+003,1.659751e-002
1.386590e+003,1.508053e-002
1.388519e+003,1.381751e-002
1.390447e+003,1.292331e-002
1.392376e+003,1.246719e-002
1.394304e+003,1.215535e-002
1.396233e+003,1.226618e-002
1.398161e+003,1.238825e-002
1.400090e+003,1.290507e-002
1.402018e+003,1.305435e-002
1.403947e+003,1.304752e-002
1.405875e+003,1.255356e-002
1.407804e+003,1.235507e-002
1.409732e+003,1.259711e-002
1.411661e+003,1.375185e-002
1.413589e+003,1.509408e-002
1.415518e+003,1.638891e-002
1.417446e+003,1.700446e-002
1.419375e+003,1.713522e-002
1.421303e+003,1.667056e-002
1.423232e+003,1.676132e-002
1.425160e+003,1.739441e-002
1.427089e+003,1.889650e-002
1.429017e+003,2.123421e-002
1.430946e+003,2.469388e-002
1.432874e+003,2.758668e-002
1.434803e+003,3.015079e-002
1.436731e+003,3.308086e-002
1.438660e+003,3.561791e-002
1.440588e+003,3.715038e-002
1.442517e+003,3.907103e-002
1.444445e+003,4.060419e-002
1.446374e+003,4.253456e-002
1.448302e+003,4.548729e-002
1.450231e+003,4.999095e-002
1.452159e+003,5.702786e-002
1.454088e+003,6.604600e-002
1.456016e+003,7.634725e-002
1.457945e+003,1.065527e-001
1.459873e+003,1.592841e-001
1.461802e+003,1.947175e-001
1.463730e+003,1.717188e-001
1.465659e+003,1.238629e-001
1.467587e+003,1.148594e-001
1.469516e+003,1.183703e-001
1.471444e+003,1.452454e-001
1.473373e+003,1.382452e-001
1.475301e+003,7.479182e-002
1.477230e+003,3.257738e-002
1.479158e+003,2.041119e-002
1.481087e+003,1.498605e-002
1.483015e+003,1.240075e-002
1.484944e+003,1.050722e-002
1.486872e+003,9.853273e-003
1.488801e+003,8.594818e-003
1.490729e+003,8.399724e-003
1.492658e+003,7.615188e-003
1.494586e+003,7.570392e-003
1.496515e+003,6.810500e-003
1.498443e+003,6.631610e-003
1.500372e+003,5.868610e-003
1.502300e+003,5.662472e-003
1.504229e+003,5.171560e-003
1.506157e+003,5.601805e-003
1.508086e+003,4.822425e-003
1.510014e+003,4.752015e-003
1.511943e+003,4.359010e-003
1.513871e+003,4.498312e-003
1.515800e+003,4.343163e-003
1.517728e+003,4.508049e-003
1.519657e+003,4.137751e-003
1.521585e+003,4.427879e-003
1.523514e+003,4.035398e-003
1.525442e+003,4.190207e-003
1.527371e+003,3.935828e-003
1.529299e+003,3.959724e-003
1.531228e+003,3.769811e-003
1.533156e+003,3.991918e-003
1.535085e+003,3.768166e-003
1.537013e+003,3.765853e-003
1.538942e+003,3.691388e-003
1.540870e+003,4.301365e-003
1.542799e+003,3.884479e-003
1.544727e+003,3.845840e-003
1.546656e+003,3.581976e-003
1.548584e+003,3.596853e-003
1.550513e+003,3.442151e-003
1.552441e+003,3.457292e-003
1.554370e+003,3.242091e-003
1.556298e+003,3.270616e-003
1.558227e+003,3.303083e-003
1.560155e+003,3.503076e-003
1.562084e+003,3.009675e-003
1.564012e+003,2.950540e-003
1.565941e+003,2.775305e-003
1.567869e+003,2.818432e-003
1.569798e+003,2.805521e-003
1.571726e+003,2.803398e-003
1.573655e+003,2.649715e-003
1.575583e+003,2.840189e-003
1.577512e+003,2.837121e-003
1.579440e+003,2.806051e-003
1.581369e+003,2.720099e-003
1.583297e+003,2.809170e-003
1.585226e+003,2.786010e-003
1.587154e+003,2.836058e-003
1.589083e+003,2.799731e-003
1.591011e+003,2.876015e-003
1.592940e+003,2.815370e-003
1.594868e+003,2.844527e-003
1.596797e+003,2.758733e-003
1.598725e+003,2.773762e-003
1.600654e+003,2.719219e-003
1.602582e+003,2.737493e-003
1.604511e+003,2.683045e-003
1.606439e+003,2.776878e-003
1.608368e+003,2.789577e-003
1.610296e+003,2.900739e-003
1.612225e+003,2.862551e-003
1.614153e+003,2.945925e-003
1.616082e+003,3.053460e-003
1.618010e+003,3.219415e-003
1.619939e+003,3.110304e-003
1.621867e+003,3.217598e-003
1.623796e+003,3.429741e-003
1.625724e+003,3.608563e-003
1.627653e+003,3.655539e-003
1.629581e+003,3.806596e-003
1.631510e+003,3.812641e-003
1.633438e+003,3.927346e-003
1.635367e+003,4.208707e-003
1.637295e+003,4.772088e-003
1.639224e+003,5.010149e-003
1.641152e+003,5.321924e-003
1.643081e+003,5.340765e-003
1.645009e+003,5.454375e-003
1.646938e+003,5.764100e-003
1.648866e+003,5.864609e-003
1.650795e+003,5.715759e-003
1.652723e+003,6.255365e-003
1.654652e+003,6.354095e-003
1.656580e+003,6.020783e-003
1.658509e+003,5.620566e-003
1.660437e+003,5.374489e-003
1.662366e+003,5.127566e-003
1.664294e+003,4.897929e-003
1.666223e+003,4.607632e-003
1.668151e+003,4.531206e-003
1.670080e+003,4.513937e-003
1.672008e+003,4.561441e-003
1.673937e+003,4.460908e-003
1.675865e+003,4.553462e-003
1.677794e+003,4.541455e-003
1.679722e+003,4.637571e-003
1.681651e+003,4.617314e-003
1.683579e+003,5.015907e-003
1.685508e+003,5.120354e-003
1.687436e+003,5.119536e-003
1.689365e+003,5.298278e-003
1.691293e+003,5.549611e-003
1.693222e+003,5.722825e-003
1.695150e+003,6.229574e-003
1.697079e+003,6.879685e-003
1.699007e+003,7.358157e-003
1.700936e+003,8.329313e-003
1.702864e+003,8.716460e-003
1.704793e+003,9.212052e-003
1.706721e+003,1.007698e-002
1.708650e+003,1.062538e-002
1.710578e+003,1.124821e-002
1.712507e+003,1.191090e-002
1.714435e+003,1.290711e-002
1.716364e+003,1.431697e-002
1.718292e+003,1.655759e-002
1.720221e+003,1.825345e-002
1.722149e+003,2.024645e-002
1.724078e+003,2.357531e-002
1.726006e+003,2.750091e-002
1.727935e+003,3.233642e-002
1.729863e+003,3.965612e-002
1.731792e+003,4.747554e-002
1.733720e+003,6.166043e-002
1.735649e+003,8.159238e-002
1.737577e+003,9.269771e-002
1.739506e+003,1.111003e-001
1.741434e+003,1.273875e-001
1.743363e+003,1.377819e-001
1.745291e+003,1.419311e-001
1.747220e+003,1.391417e-001
1.749148e+003,1.278940e-001
1.751077e+003,1.097888e-001
1.753005e+003,9.005351e-002
1.754934e+003,7.505239e-002
1.756862e+003,5.670806e-002
1.758791e+003,4.258991e-002
1.760719e+003,3.287951e-002
1.762648e+003,2.344073e-002
1.764576e+003,1.809122e-002
1.766505e+003,1.465945e-002
1.768433e+003,1.168026e-002
1.770362e+003,9.912875e-003
1.772290e+003,8.339828e-003
1.774219e+003,7.071825e-003
1.776147e+003,6.205426e-003
1.778076e+003,5.484165e-003
1.780004e+003,4.941215e-003
1.781933e+003,4.379497e-003
1.783861e+003,4.017278e-003
1.785790e+003,3.636686e-003
1.787718e+003,3.223750e-003
1.789646e+003,2.921173e-003
1.791575e+003,2.811814e-003
1.793504e+003,2.589769e-003
1.795432e+003,2.329525e-003
1.797361e+003,2.002239e-003
1.799289e+003,1.876273e-003
1.801218e+003,1.798443e-003
1.803146e+003,1.670068e-003
1.805074e+003,1.441565e-003
1.807003e+003,1.254002e-003
1.808932e+003,1.117339e-003
1.810860e+003,1.077799e-003
1.812789e+003,8.735701e-004
1.814717e+003,5.951835e-004
1.816646e+003,3.597693e-004
1.818574e+003,6.274572e-004
1.820502e+003,7.548331e-004
1.822431e+003,6.937532e-004
1.824360e+003,5.225865e-004
1.826288e+003,4.238306e-004
1.828217e+003,3.164896e-004
1.830145e+003,3.298633e-004
1.832073e+003,-4.397600e-005
1.834002e+003,-2.421043e-004
1.835931e+003,-3.752249e-004
1.837859e+003,-3.334574e-004
1.839788e+003,-5.332145e-004
1.841716e+003,-5.176364e-004
1.843645e+003,-5.126148e-004
1.845573e+003,-4.922362e-004
1.847501e+003,-6.340297e-004
1.849430e+003,-7.420832e-004
1.851359e+003,-8.042171e-004
1.853287e+003,-6.658617e-004
1.855216e+003,-7.133797e-004
1.857144e+003,-7.207477e-004
1.859073e+003,-8.242693e-004
1.861001e+003,-7.992863e-004
1.862929e+003,-1.052446e-003
1.864858e+003,-1.176335e-003
1.866787e+003,-1.383140e-003
1.868715e+003,-9.800092e-004
1.870644e+003,-8.143397e-004
1.872572e+003,-8.544318e-004
1.874500e+003,-1.111696e-003
1.876429e+003,-1.047434e-003
1.878357e+003,-1.181319e-003
1.880286e+003,-1.050244e-003
1.882215e+003,-1.054104e-003
1.884143e+003,-9.337465e-004
1.886072e+003,-7.588171e-004
1.888000e+003,-3.938394e-004
1.889928e+003,-3.251525e-004
1.891857e+003,-2.520670e-004
1.893785e+003,-3.161335e-004
1.895714e+003,9.482680e-005
1.897643e+003,1.370135e-004
1.899571e+003,-5.138235e-005
1.901500e+003,-5.064078e-005
1.903428e+003,-4.990585e-005
1.905356e+003,-4.917680e-005
1.907285e+003,-4.845433e-005
1.909213e+003,-4.773791e-005
1.911142e+003,-4.702859e-005
1.913071e+003,-4.632474e-005
1.914999e+003,-4.562788e-005
1.916927e+003,-4.493655e-005
1.918856e+003,-4.425191e-005
1.920784e+003,-4.357367e-005
1.922713e+003,-4.290103e-005
1.924641e+003,-4.223536e-005
1.926570e+003,-4.157581e-005
1.928499e+003,-4.092226e-005
1.930427e+003,-4.027522e-005
1.932355e+003,-3.963511e-005
1.934284e+003,-3.900082e-005
1.936212e+003,-3.837288e-005
1.938141e+003,-3.775093e-005
1.940070e+003,-3.713567e-005
1.941998e+003,-3.652635e-005
1.943927e+003,-3.592303e-005
1.945855e+003,-3.532629e-005
1.947783e+003,-3.473618e-005
1.949712e+003,-3.415201e-005
1.951640e+003,-3.357482e-005
1.953569e+003,-3.300322e-005
1.955498e+003,-3.243779e-005
1.957426e+003,-3.187964e-005
1.959354e+003,-3.132661e-005
1.961283e+003,-3.078015e-005
1.963211e+003,-3.024039e-005
1.965140e+003,-2.970651e-005
1.967068e+003,-2.917915e-005
1.968997e+003,-2.865779e-005
1.970926e+003,-2.814305e-005
1.972854e+003,-2.763479e-005
1.974782e+003,-2.713257e-005
1.976711e+003,-2.663687e-005
1.978639e+003,-2.614741e-005
1.980568e+003,-2.566422e-005
1.982496e+003,-2.518710e-005
1.984425e+003,-2.471620e-005
1.986354e+003,-2.425170e-005
1.988282e+003,-2.379325e-005
1.990210e+003,-2.334133e-005
1.992139e+003,-2.289604e-005
1.994067e+003,-2.245663e-005
1.995996e+003,-2.202380e-005
1.997924e+003,-2.159702e-005
1.999853e+003,-2.117688e-005
2.001781e+003,-2.076261e-005
2.003710e+003,-2.035493e-005
2.005638e+003,-1.995330e-005
2.007567e+003,-1.955783e-005
2.009495e+003,-1.916877e-005
2.011424e+003,-1.878623e-005
2.013352e+003,-1.840980e-005
2.015281e+003,-1.804030e-005
2.017209e+003,-1.767639e-005
2.019138e+003,-1.731899e-005
2.021066e+003,-1.696823e-005
2.022995e+003,-1.662289e-005
2.024923e+003,-1.628412e-005
2.026852e+003,-1.595187e-005
2.028781e+003,-1.562579e-005
2.030709e+003,-1.530611e-005
2.032637e+003,-1.499249e-005
2.034566e+003,-1.468533e-005
2.036494e+003,-1.438486e-005
2.038423e+003,-1.409033e-005
2.040351e+003,-1.380185e-005
2.042280e+003,-1.352042e-005
2.044208e+003,-1.324498e-005
2.046137e+003,-1.297513e-005
2.048065e+003,-1.271226e-005
2.049994e+003,-1.245545e-005
2.051922e+003,-1.220469e-005
2.053851e+003,-1.196063e-005
2.055779e+003,-1.172244e-005
2.057708e+003,-1.149124e-005
2.059636e+003,-1.126609e-005
2.061565e+003,-1.104700e-005
2.063493e+003,-1.083442e-005
2.065422e+003,-1.062785e-005
2.067350e+003,-1.042779e-005
2.069279e+003,-1.023413e-005
2.071207e+003,-1.004623e-005
2.073136e+003,-9.864860e-006
2.075064e+003,-9.689946e-006
2.076993e+003,-9.521144e-006
2.078921e+003,-9.358861e-006
2.080850e+003,-9.202573e-006
2.082778e+003,-9.053329e-006
2.084707e+003,-8.909905e-006
2.086635e+003,-8.772768e-006
2.088564e+003,-8.641684e-006
2.090492e+003,-8.517120e-006
2.092421e+003,-8.398609e-006
2.094349e+003,-8.286559e-006
2.096278e+003,-8.180621e-006
2.098206e+003,-8.081435e-006
2.100135e+003,-7.988536e-006
2.102063e+003,-7.901690e-006
2.103992e+003,-7.821363e-006
2.105920e+003,-7.747032e-006
2.107849e+003,-7.678755e-006
2.109777e+003,-7.617055e-006
2.111706e+003,-7.561408e-006
2.113634e+003,-7.512514e-006
2.115563e+003,-7.469440e-006
2.117491e+003,-7.432885e-006
2.119420e+003,-7.403258e-006
2.121348e+003,-7.378811e-006
2.123277e+003,-7.361348e-006
2.125205e+003,-7.350405e-006
2.127134e+003,-7.345050e-006
2.129062e+003,-7.346389e-006
2.130991e+003,-7.354072e-006
2.132919e+003,-7.367809e-006
2.134848e+003,-7.387600e-006
2.136776e+003,-7.413910e-006
2.138705e+003,-7.446739e-006
2.140633e+003,-7.486087e-006
2.142562e+003,-7.531256e-006
2.144490e+003,-7.583119e-006
2.146419e+003,-7.641036e-006
2.148347e+003,-7.705064e-006
2.150276e+003,-7.775612e-006
2.152204e+003,-7.852213e-006
2.154133e+003,-7.935334e-006
2.156061e+003,-8.024741e-006
2.157990e+003,-8.120434e-006
2.159918e+003,-8.222181e-006
2.161847e+003,-8.330448e-006
2.163775e+003,-8.445175e-006
2.165704e+003,-8.565548e-006
2.167632e+003,-8.693372e-006
2.169561e+003,-8.826260e-006
2.171489e+003,-8.966192e-006
2.173418e+003,-9.112409e-006
2.175346e+003,-9.264448e-006
2.177275e+003,-9.423005e-006
2.179203e+003,-9.587558e-006
2.181132e+003,-9.758689e-006
2.183060e+003,-9.936339e-006
2.184989e+003,-1.012004e-005
2.186917e+003,-1.031050e-005
2.188846e+003,-1.050718e-005
2.190774e+003,-1.070951e-005
2.192703e+003,-1.091836e-005
2.194631e+003,-1.113326e-005
2.196560e+003,-1.135468e-005
2.198488e+003,-1.158263e-005
2.200417e+003,-1.181685e-005
2.202345e+003,-1.205690e-005
2.204274e+003,-1.230382e-005
2.206202e+003,-1.255691e-005
2.208131e+003,-1.281605e-005
2.210059e+003,-1.308217e-005
2.211988e+003,-1.335389e-005
2.213916e+003,-1.363165e-005
2.215845e+003,-1.391640e-005
2.217773e+003,-1.420698e-005
2.219702e+003,-1.450384e-005
2.221630e+003,-1.480716e-005
2.223559e+003,-1.511659e-005
2.225487e+003,-1.543300e-005
2.227416e+003,-1.575495e-005
2.229344e+003,-1.608348e-005
2.231273e+003,-1.641875e-005
2.233201e+003,-1.675985e-005
2.235130e+003,-1.710700e-005
2.237058e+003,-1.746067e-005
2.238987e+003,-1.782039e-005
2.240915e+003,-1.818663e-005
2.242844e+003,-1.855893e-005
2.244772e+003,-1.893798e-005
2.246701e+003,-1.932372e-005
2.248629e+003,-1.971459e-005
2.250558e+003,-2.011249e-005
2.252486e+003,-2.051692e-005
2.254415e+003,-2.092693e-005
2.256343e+003,-2.134347e-005
2.258272e+003,-2.176646e-005
2.260200e+003,-2.219510e-005
2.262129e+003,-2.263102e-005
2.264057e+003,-2.307311e-005
2.265986e+003,-2.352125e-005
2.267914e+003,-2.397550e-005
2.269843e+003,-2.443581e-005
2.271771e+003,-2.490263e-005
2.273700e+003,-2.537598e-005
2.275628e+003,-2.585608e-005
2.277557e+003,-2.634153e-005
2.279485e+003,-2.683344e-005
2.281414e+003,-2.733193e-005
2.283342e+003,-2.783648e-005
2.285271e+003,-2.834795e-005
2.287199e+003,-2.886506e-005
2.289128e+003,-2.938899e-005
2.291056e+003,-2.991862e-005
2.292985e+003,-3.045483e-005
2.294913e+003,-3.099709e-005
2.296842e+003,-3.154634e-005
2.298770e+003,-3.210112e-005
2.300699e+003,-3.266241e-005
2.302627e+003,-3.323011e-005
2.304556e+003,-3.380398e-005
2.306484e+003,-3.438443e-005
2.308413e+003,-3.497093e-005
2.310341e+003,-3.556348e-005
2.312270e+003,-3.616256e-005
2.314198e+003,-3.676763e-005
2.316127e+003,-3.737933e-005
2.318055e+003,-3.799790e-005
2.319984e+003,-3.862235e-005
2.321912e+003,-3.925263e-005
2.323841e+003,-3.988936e-005
2.325769e+003,-4.053267e-005
2.327698e+003,-4.118250e-005
2.329626e+003,-4.183792e-005
2.331555e+003,-4.249986e-005
2.333483e+003,-4.316855e-005
2.335412e+003,-4.384303e-005
2.337340e+003,-4.452403e-005
2.339269e+003,-4.521111e-005
2.341197e+003,-4.590469e-005
2.343126e+003,-4.660437e-005
2.345054e+003,-4.731052e-005
2.346983e+003,-4.802298e-005
2.348911e+003,-4.874170e-005
2.350840e+003,-4.946697e-005
2.352768e+003,-5.019779e-005
2.354697e+003,-5.093514e-005
2.356625e+003,-5.167906e-005
2.358554e+003,-5.242944e-005
2.360482e+003,-5.318591e-005
2.362411e+003,-5.394840e-005
2.364339e+003,-5.471768e-005
2.366268e+003,-5.549274e-005
2.368196e+003,-5.627438e-005
2.370125e+003,-5.706248e-005
2.372053e+003,-5.785667e-005
2.373982e+003,-5.865688e-005
2.375910e+003,-5.946361e-005
2.377839e+003,-6.027712e-005
2.379767e+003,-6.109691e-005
2.381696e+003,-6.192230e-005
2.383624e+003,-6.275417e-005
2.385553e+003,-6.359213e-005
2.387481e+003,-6.443658e-005
2.389410e+003,-6.528758e-005
2.391338e+003,-6.614532e-005
2.393267e+003,-6.700840e-005
2.395195e+003,-6.787802e-005
2.397124e+003,-6.875416e-005
2.399052e+003,-6.963633e-005
2.400981e+003,-6.478059e-005
2.402909e+003,-6.542116e-005
2.404838e+003,-6.128883e-005
2.406766e+003,6.291555e-005
2.408695e+003,2.764540e-004
2.410623e+003,2.786869e-004
2.412552e+003,3.434731e-004
2.414480e+003,4.164451e-004
2.416409e+003,5.000277e-004
2.418337e+003,5.354555e-004
2.420266e+003,4.851230e-004
2.422194e+003,2.458721e-004
2.424123e+003,2.445745e-004
2.426051e+003,2.952316e-004
2.427979e+003,2.377609e-004
2.429908e+003,1.467604e-004
2.431837e+003,1.510688e-004
2.433765e+003,1.747418e-004
2.435694e+003,2.739526e-004
2.437622e+003,2.286408e-004
2.439551e+003,1.041508e-004
2.441479e+003,5.044858e-005
2.443407e+003,2.292183e-004
2.445336e+003,2.359882e-004
2.447265e+003,3.622078e-004
2.449193e+003,3.768736e-004
2.451122e+003,4.252046e-004
2.453050e+003,5.410467e-004
2.454979e+003,6.103354e-004
2.456907e+003,5.243296e-004
2.458836e+003,4.341105e-004
2.460764e+003,3.658617e-004
2.462693e+003,3.415153e-004
2.464621e+003,3.028209e-004
2.466550e+003,3.752067e-004
2.468478e+003,3.669913e-004
2.470406e+003,3.814455e-004
2.472335e+003,5.421817e-004
2.474264e+003,7.968297e-004
2.476192e+003,7.949570e-004
2.478121e+003,7.600266e-004
2.480049e+003,6.879338e-004
2.481978e+003,7.550176e-004
2.483906e+003,7.715267e-004
2.485835e+003,6.994937e-004
2.487763e+003,6.310581e-004
2.489692e+003,7.794470e-004
2.491620e+003,8.607915e-004
2.493549e+003,8.556471e-004
2.495477e+003,9.584408e-004
2.497406e+003,1.019135e-003
2.499334e+003,9.668065e-004
2.501263e+003,1.091071e-003
2.503191e+003,1.042765e-003
2.505120e+003,9.661200e-004
2.507048e+003,1.102788e-003
2.508977e+003,1.163076e-003
2.510905e+003,1.147797e-003
2.512833e+003,1.338454e-003
2.514762e+003,1.548542e-003
2.516691e+003,1.731577e-003
2.518619e+003,1.748414e-003
2.520548e+003,1.764013e-003
2.522476e+003,1.871920e-003
2.524405e+003,1.982257e-003
2.526333e+003,1.960795e-003
2.528261e+003,2.143482e-003
2.530190e+003,2.217045e-003
2.532119e+003,2.214517e-003
2.534047e+003,2.169218e-003
2.535976e+003,2.116263e-003
2.537904e+003,2.057572e-003
2.539833e+003,2.113748e-003
2.541761e+003,2.124248e-003
2.543689e+003,2.345210e-003
2.545618e+003,2.573559e-003
2.547547e+003,2.723223e-003
2.549475e+003,2.822034e-003
2.551404e+003,2.882919e-003
2.553332e+003,2.929124e-003
2.555260e+003,3.071189e-003
2.557189e+003,3.039393e-003
2.559117e+003,3.028293e-003
2.561046e+003,3.178394e-003
2.562975e+003,3.317654e-003
2.564903e+003,3.424807e-003
2.566832e+003,3.594513e-003
2.568760e+003,3.616185e-003
2.570688e+003,3.700543e-003
2.572617e+003,3.906526e-003
2.574546e+003,4.109161e-003
2.576474e+003,4.246369e-003
2.578403e+003,4.345520e-003
2.580331e+003,4.430989e-003
2.582260e+003,4.632431e-003
2.584188e+003,4.820346e-003
2.586116e+003,4.977907e-003
2.588045e+003,5.174059e-003
2.589974e+003,5.456700e-003
2.591902e+003,5.658305e-003
2.593831e+003,5.881059e-003
2.595759e+003,6.061179e-003
2.597688e+003,6.320459e-003
2.599616e+003,6.487607e-003
2.601544e+003,6.553961e-003
2.603473e+003,6.711117e-003
2.605402e+003,6.925334e-003
2.607330e+003,7.141719e-003
2.609259e+003,7.439232e-003
2.611187e+003,7.789619e-003
2.613115e+003,8.218954e-003
2.615044e+003,8.481210e-003
2.616972e+003,8.756743e-003
2.618901e+003,9.074379e-003
2.620830e+003,9.396141e-003
2.622758e+003,9.788506e-003
2.624687e+003,1.023177e-002
2.626615e+003,1.064569e-002
2.628543e+003,1.105418e-002
2.630472e+003,1.148102e-002
2.632400e+003,1.188154e-002
2.634329e+003,1.215700e-002
2.636258e+003,1.224778e-002
2.638186e+003,1.215687e-002
2.640115e+003,1.210154e-002
2.642043e+003,1.210912e-002
2.643971e+003,1.209562e-002
2.645900e+003,1.209510e-002
2.647828e+003,1.216543e-002
2.649757e+003,1.227811e-002
2.651686e+003,1.243944e-002
2.653614e+003,1.263062e-002
2.655542e+003,1.282618e-002
2.657471e+003,1.294480e-002
2.659399e+003,1.297096e-002
2.661328e+003,1.291025e-002
2.663256e+003,1.270083e-002
2.665185e+003,1.249550e-002
2.667114e+003,1.229597e-002
2.669042e+003,1.209393e-002
2.670970e+003,1.192042e-002
2.672899e+003,1.172376e-002
2.674827e+003,1.153730e-002
2.676756e+003,1.141546e-002
2.678685e+003,1.131200e-002
2.680613e+003,1.119331e-002
2.682542e+003,1.113638e-002
2.684470e+003,1.104469e-002
2.686398e+003,1.094395e-002
2.688327e+003,1.083317e-002
2.690255e+003,1.075255e-002
2.692184e+003,1.067910e-002
2.694113e+003,1.062922e-002
2.696041e+003,1.068026e-002
2.697969e+003,1.075230e-002
2.699898e+003,1.085486e-002
2.701826e+003,1.102183e-002
2.703755e+003,1.117203e-002
2.705683e+003,1.132290e-002
2.707612e+003,1.151023e-002
2.709541e+003,1.162382e-002
2.711469e+003,1.172068e-002
2.713397e+003,1.188908e-002
2.715326e+003,1.202570e-002
2.717254e+003,1.219128e-002
2.719183e+003,1.235144e-002
2.721111e+003,1.259433e-002
2.723040e+003,1.291615e-002
2.724969e+003,1.320698e-002
2.726897e+003,1.351198e-002
2.728825e+003,1.376723e-002
2.730754e+003,1.397625e-002
2.732682e+003,1.420346e-002
2.734611e+003,1.440605e-002
2.736539e+003,1.453070e-002
2.738468e+003,1.464615e-002
2.740396e+003,1.473168e-002
2.742325e+003,1.473991e-002
2.744253e+003,1.473662e-002
2.746182e+003,1.470170e-002
2.748110e+003,1.472342e-002
2.750039e+003,1.486144e-002
2.751967e+003,1.504684e-002
2.753896e+003,1.529167e-002
2.755824e+003,1.554464e-002
2.757753e+003,1.582680e-002
2.759681e+003,1.620470e-002
2.761610e+003,1.657208e-002
2.763538e+003,1.697545e-002
2.765467e+003,1.742906e-002
2.767395e+003,1.793362e-002
2.769324e+003,1.845407e-002
2.771252e+003,1.899429e-002
2.773181e+003,1.962833e-002
2.775109e+003,2.038889e-002
2.777038e+003,2.124098e-002
2.778966e+003,2.221882e-002
2.780895e+003,2.331388e-002
2.782823e+003,2.449836e-002
2.784752e+003,2.580504e-002
2.786680e+003,2.720698e-002
2.788609e+003,2.873015e-002
2.790537e+003,3.028022e-002
2.792466e+003,3.197649e-002
2.794394e+003,3.371661e-002
2.796323e+003,3.540638e-002
2.798251e+003,3.714549e-002
2.800180e+003,3.895761e-002
2.802108e+003,4.094606e-002
2.804037e+003,4.311696e-002
2.805965e+003,4.553302e-002
2.807894e+003,4.832833e-002
2.809822e+003,5.158664e-002
2.811751e+003,5.524946e-002
2.813679e+003,5.947194e-002
2.815608e+003,6.437597e-002
2.817536e+003,7.006385e-002
2.819465e+003,7.674280e-002
2.821393e+003,8.479426e-002
2.823322e+003,9.469233e-002
2.825250e+003,1.068914e-001
2.827179e+003,1.220284e-001
2.829107e+003,1.409237e-001
2.831036e+003,1.645959e-001
2.832964e+003,1.947777e-001
2.834893e+003,2.347053e-001
2.836821e+003,2.885177e-001
2.838750e+003,3.630334e-001
2.840678e+003,4.691764e-001
2.842607e+003,6.183694e-001
2.844535e+003,8.053120e-001
2.846464e+003,9.635339e-001
2.848392e+003,9.645039e-001
2.850321e+003,8.090301e-001
2.852249e+003,6.344417e-001
2.854178e+003,5.040097e-001
2.856106e+003,4.080477e-001
2.858035e+003,3.331577e-001
2.859963e+003,2.750519e-001
2.861892e+003,2.317318e-001
2.863820e+003,2.012673e-001
2.865749e+003,1.820591e-001
2.867677e+003,1.724065e-001
2.869606e+003,1.699056e-001
2.871534e+003,1.715118e-001
2.873463e+003,1.755149e-001
2.875391e+003,1.828264e-001
2.877320e+003,1.950285e-001
2.879248e+003,2.123139e-001
2.881177e+003,2.335216e-001
2.883105e+003,2.572454e-001
2.885034e+003,2.827783e-001
2.886962e+003,3.094671e-001
2.888891e+003,3.370049e-001
2.890819e+003,3.651057e-001
2.892748e+003,3.934000e-001
2.894676e+003,4.217956e-001
2.896605e+003,4.507900e-001
2.898533e+003,4.813702e-001
2.900462e+003,5.157822e-001
2.902390e+003,5.571703e-001
2.904319e+003,6.102357e-001
2.906247e+003,6.809800e-001
2.908176e+003,7.755906e-001
2.910104e+003,8.976924e-001
2.912033e+003,1.036955e+000
2.913961e+003,1.145707e+000
2.915890e+003,1.155882e+000
2.917818e+003,1.065842e+000
2.919747e+003,9.397227e-001
2.921675e+003,8.192868e-001
2.923604e+003,7.140478e-001
2.925532e+003,6.239894e-001
2.927461e+003,5.459649e-001
2.929389e+003,4.767931e-001
2.931318e+003,4.148143e-001
2.933246e+003,3.594046e-001
2.935175e+003,3.106857e-001
2.937103e+003,2.685004e-001
2.939032e+003,2.325000e-001
2.940960e+003,2.022062e-001
2.942889e+003,1.776029e-001
2.944817e+003,1.584767e-001
2.946746e+003,1.445294e-001
2.948674e+003,1.353462e-001
2.950603e+003,1.297527e-001
2.952531e+003,1.257730e-001
2.954460e+003,1.215841e-001
2.956388e+003,1.162700e-001
2.958317e+003,1.095641e-001
2.960245e+003,1.016118e-001
2.962174e+003,9.273075e-002
2.964102e+003,8.352304e-002
2.966031e+003,7.438914e-002
2.967959e+003,6.574230e-002
2.969888e+003,5.812239e-002
2.971816e+003,5.161434e-002
2.973745e+003,4.611538e-002
2.975673e+003,4.151599e-002
2.977602e+003,3.768046e-002
2.979530e+003,3.442089e-002
2.981459e+003,3.163393e-002
2.983387e+003,2.934539e-002
2.985316e+003,2.748843e-002
2.987244e+003,2.611711e-002
2.989173e+003,2.525120e-002
2.991101e+003,2.489954e-002
2.993030e+003,2.519115e-002
2.994958e+003,2.615776e-002
2.996887e+003,2.765056e-002
2.998815e+003,2.956425e-002
3.000744e+003,3.141315e-002
3.002672e+003,3.279088e-002
3.004601e+003,3.340301e-002
3.006529e+003,3.295999e-002
3.008458e+003,3.159699e-002
3.010386e+003,2.941833e-002
3.012315e+003,2.661332e-002
3.014243e+003,2.365125e-002
3.016172e+003,2.085941e-002
3.018100e+003,1.847382e-002
3.020029e+003,1.648035e-002
3.021957e+003,1.480999e-002
3.023886e+003,1.348448e-002
3.025814e+003,1.251255e-002
3.027743e+003,1.171151e-002
3.029671e+003,1.099712e-002
3.031600e+003,1.032615e-002
3.033528e+003,9.822601e-003
3.035457e+003,9.402401e-003
3.037385e+003,9.027001e-003
3.039314e+003,8.569288e-003
3.041242e+003,8.114696e-003
3.043171e+003,7.797556e-003
3.045099e+003,7.510433e-003
3.047028e+003,7.224218e-003
3.048956e+003,6.968678e-003
3.050885e+003,6.651263e-003
3.052813e+003,6.440274e-003
3.054742e+003,6.346749e-003
3.056670e+003,6.252085e-003
3.058599e+003,6.125724e-003
3.060527e+003,5.997474e-003
3.062456e+003,5.844596e-003
3.064384e+003,5.809255e-003
3.066313e+003,5.716904e-003
3.068241e+003,5.576534e-003
3.070170e+003,5.462560e-003
3.072098e+003,5.353350e-003
3.074027e+003,5.234593e-003
3.075955e+003,4.989295e-003
3.077884e+003,4.696222e-003
3.079812e+003,4.525338e-003
3.081741e+003,4.361426e-003
3.083669e+003,4.232901e-003
3.085598e+003,4.106887e-003
3.087526e+003,3.959062e-003
3.089455e+003,3.762999e-003
3.091383e+003,3.543698e-003
3.093312e+003,3.272348e-003
3.095240e+003,3.042764e-003
3.097169e+003,2.735669e-003
3.099097e+003,2.419816e-003
3.101026e+003,2.129374e-003
3.102954e+003,1.975099e-003
3.104883e+003,1.862690e-003
3.106811e+003,1.716014e-003
3.108740e+003,1.683580e-003
3.110668e+003,1.561907e-003
3.112597e+003,1.346415e-003
3.114525e+003,1.239797e-003
3.116454e+003,1.171819e-003
3.118382e+003,1.149997e-003
3.120311e+003,1.107750e-003
3.122239e+003,1.045353e-003
3.124168e+003,1.090968e-003
3.126096e+003,1.007110e-003
3.128025e+003,8.474096e-004
3.129953e+003,7.226107e-004
3.131882e+003,6.810634e-004
3.133810e+003,6.757308e-004
3.135739e+003,6.384606e-004
3.137667e+003,6.384951e-004
3.139596e+003,5.846964e-004
3.141524e+003,6.209408e-004
3.143453e+003,6.998627e-004
3.145381e+003,6.756079e-004
3.147310e+003,6.706263e-004
3.149238e+003,6.259481e-004
3.151167e+003,6.032600e-004
3.153095e+003,6.242454e-004
3.155024e+003,5.734782e-004
3.156952e+003,5.975999e-004
3.158881e+003,6.575737e-004
3.160809e+003,6.300904e-004
3.162738e+003,5.578891e-004
3.164666e+003,4.810862e-004
3.166594e+003,5.168522e-004
3.168523e+003,5.760887e-004
3.170452e+003,5.633750e-004
3.172380e+003,5.693656e-004
3.174309e+003,6.171494e-004
3.176237e+003,6.705695e-004
3.178166e+003,6.058988e-004
3.180094e+003,6.428085e-004
3.182022e+003,7.541585e-004
3.183951e+003,8.034456e-004
3.185880e+003,7.768150e-004
3.187808e+003,7.661111e-004
3.189737e+003,7.694594e-004
3.191665e+003,7.077073e-004
3.193594e+003,6.800866e-004
3.195522e+003,7.011765e-004
3.197450e+003,7.932319e-004
3.199379e+003,8.528199e-004
3.201308e+003,7.630818e-004
3.203236e+003,5.961142e-004
3.205165e+003,6.043280e-004
3.207093e+003,7.312434e-004
3.209021e+003,7.395382e-004
3.210950e+003,7.533756e-004
3.212878e+003,7.455930e-004
3.214807e+003,7.421671e-004
3.216736e+003,7.155816e-004
3.218664e+003,6.947233e-004
3.220593e+003,7.452910e-004
3.222521e+003,8.535264e-004
3.224449e+003,8.059588e-004
3.226378e+003,6.869583e-004
3.228307e+003,6.468302e-004
3.230235e+003,6.736025e-004
3.232164e+003,6.642784e-004
3.234092e+003,5.762154e-004
3.236021e+003,5.583350e-004
3.237949e+003,6.599405e-004
3.239877e+003,7.165393e-004
3.241806e+003,7.300869e-004
3.243735e+003,7.985134e-004
3.245663e+003,8.556086e-004
3.247592e+003,9.350674e-004
3.249520e+003,1.037688e-003
3.251448e+003,9.797172e-004
3.253377e+003,9.434747e-004
3.255305e+003,1.039680e-003
3.257234e+003,1.095155e-003
3.259163e+003,1.119012e-003
3.261091e+003,1.157713e-003
3.263020e+003,1.188878e-003
3.264948e+003,1.219859e-003
3.266876e+003,1.268648e-003
3.268805e+003,1.257623e-003
3.270733e+003,1.270019e-003
3.272662e+003,1.379500e-003
3.274591e+003,1.363831e-003
3.276519e+003,1.329004e-003
3.278448e+003,1.400953e-003
3.280376e+003,1.414968e-003
3.282304e+003,1.392507e-003
3.284233e+003,1.483025e-003
3.286161e+003,1.551839e-003
3.288090e+003,1.554060e-003
3.290019e+003,1.473195e-003
3.291947e+003,1.430574e-003
3.293875e+003,1.445826e-003
3.295804e+003,1.478700e-003
3.297732e+003,1.524410e-003
3.299661e+003,1.487936e-003
3.301589e+003,1.429724e-003
3.303518e+003,1.445649e-003
3.305447e+003,1.453692e-003
3.307375e+003,1.454934e-003
3.309303e+003,1.564562e-003
3.311232e+003,1.542233e-003
3.313160e+003,1.519215e-003
3.315089e+003,1.506614e-003
3.317018e+003,1.527676e-003
3.318946e+003,1.492366e-003
3.320875e+003,1.422519e-003
3.322803e+003,1.485782e-003
3.324731e+003,1.555844e-003
3.326660e+003,1.563501e-003
3.328588e+003,1.558899e-003
3.330517e+003,1.537045e-003
3.332446e+003,1.496360e-003
3.334374e+003,1.445113e-003
3.336302e+003,1.436091e-003
3.338231e+003,1.501828e-003
3.340159e+003,1.541257e-003
3.342088e+003,1.546345e-003
3.344016e+003,1.532568e-003
3.345945e+003,1.488012e-003
3.347874e+003,1.545612e-003
3.349802e+003,1.649299e-003
3.351730e+003,1.634080e-003
3.353659e+003,1.482281e-003
3.355587e+003,1.410262e-003
3.357516e+003,1.463719e-003
3.359444e+003,1.436187e-003
3.361373e+003,1.495622e-003
3.363302e+003,1.576775e-003
3.365230e+003,1.582300e-003
3.367158e+003,1.606150e-003
3.369087e+003,1.593463e-003
3.371015e+003,1.548424e-003
3.372944e+003,1.591533e-003
3.374872e+003,1.553598e-003
3.376801e+003,1.510797e-003
3.378729e+003,1.506849e-003
3.380658e+003,1.347858e-003
3.382586e+003,1.377923e-003
3.384515e+003,1.462825e-003
3.386443e+003,1.429490e-003
3.388372e+003,1.352600e-003
3.390300e+003,1.245587e-003
3.392229e+003,1.244700e-003
3.394157e+003,1.302254e-003
3.396086e+003,1.288767e-003
3.398014e+003,1.261391e-003
3.399943e+003,1.298733e-003
3.401871e+003,1.283287e-003
3.403800e+003,1.173405e-003
3.405728e+003,1.107806e-003
3.407657e+003,1.162079e-003
3.409585e+003,1.309516e-003
3.411514e+003,1.390565e-003
3.413442e+003,1.311545e-003
3.415371e+003,1.260652e-003
3.417299e+003,1.290314e-003
3.419228e+003,1.297881e-003
3.421156e+003,1.355514e-003
3.423085e+003,1.364594e-003
3.425013e+003,1.399250e-003
3.426942e+003,1.434510e-003
3.428870e+003,1.434418e-003
3.430799e+003,1.443884e-003
3.432727e+003,1.393325e-003
3.434656e+003,1.357180e-003
3.436584e+003,1.504933e-003
3.438513e+003,1.676256e-003
3.440441e+003,1.675011e-003
3.442370e+003,1.613667e-003
3.444298e+003,1.553737e-003
3.446227e+003,1.551036e-003
3.448155e+003,1.568465e-003
3.450084e+003,1.615336e-003
3.452012e+003,1.622729e-003
3.453941e+003,1.675406e-003
3.455869e+003,1.838487e-003
3.457798e+003,1.954240e-003
3.459726e+003,1.930697e-003
3.461655e+003,1.901377e-003
3.463583e+003,1.968252e-003
3.465512e+003,2.134488e-003
3.467440e+003,2.128812e-003
3.469369e+003,1.954277e-003
3.471297e+003,2.022233e-003
3.473226e+003,2.065704e-003
3.475154e+003,2.016230e-003
3.477083e+003,1.881863e-003
3.479011e+003,1.837078e-003
3.480940e+003,1.778837e-003
3.482868e+003,1.586669e-003
3.484797e+003,1.542680e-003
3.486725e+003,1.578249e-003
3.488654e+003,1.480709e-003
3.490582e+003,1.363950e-003
3.492511e+003,1.246484e-003
3.494439e+003,1.104548e-003
3.496368e+003,1.043542e-003
3.498296e+003,9.840914e-004
3.500225e+003,9.912236e-004
3.502153e+003,1.069931e-003
3.504082e+003,1.043279e-003
3.506010e+003,9.334323e-004
3.507939e+003,8.646605e-004
3.509867e+003,1.007721e-003
3.511796e+003,9.102430e-004
3.513724e+003,7.037998e-004
3.515653e+003,6.524666e-004
3.517581e+003,6.869435e-004
3.519510e+003,6.689222e-004
3.521438e+003,6.846322e-004
3.523367e+003,7.261829e-004
3.525295e+003,5.279580e-004
3.527224e+003,4.382037e-004
3.529152e+003,4.858715e-004
3.531081e+003,4.285437e-004
3.533009e+003,3.764231e-004
3.534938e+003,4.053628e-004
3.536866e+003,4.048906e-004
3.538795e+003,3.437410e-004
3.540723e+003,2.212347e-004
3.542652e+003,7.499079e-005
3.544580e+003,2.240529e-004
3.546509e+003,1.958236e-004
3.548437e+003,-6.684393e-006
3.550366e+003,-2.504652e-004
3.552294e+003,-9.541382e-005
3.554223e+003,1.268159e-005
3.556151e+003,-1.330655e-004
3.558080e+003,-2.722372e-004
3.560008e+003,-2.214414e-004
3.561937e+003,-2.979991e-004
3.563865e+003,-6.474979e-004
3.565794e+003,-6.204833e-004
3.567722e+003,-1.334099e-004
3.569651e+003,-1.876216e-004
3.571579e+003,-4.377107e-004
3.573508e+003,-6.159107e-004
3.575436e+003,-7.985519e-004
3.577365e+003,-8.119798e-004
3.579293e+003,-6.484494e-004
3.581222e+003,-7.281621e-004
3.583150e+003,-9.297821e-004
3.585079e+003,-1.011270e-003
3.587007e+003,-6.584043e-004
3.588936e+003,-2.686752e-004
3.590864e+003,-5.236389e-004
3.592793e+003,-7.337144e-004
3.594721e+003,-4.576946e-004
3.596650e+003,-1.087160e-004
3.598578e+003,2.258748e-005
3.600507e+003,4.530201e-004
3.602435e+003,7.896204e-004
3.604364e+003,6.313786e-004
3.606292e+003,6.636427e-004
3.608221e+003,8.548894e-004
3.610149e+003,5.603767e-004
3.612078e+003,2.047514e-004
3.614006e+003,9.338313e-005
3.615935e+003,-1.577652e-004
3.617863e+003,-2.299698e-004
3.619792e+003,-7.316424e-005
3.621720e+003,-2.335424e-004
3.623649e+003,-6.267291e-004
3.625577e+003,-1.038741e-003
3.627506e+003,-1.095000e-003
3.629434e+003,-2.553127e-004
3.631363e+003,-4.345124e-004
3.633291e+003,-6.073844e-004
3.635220e+003,-5.386179e-004
3.637148e+003,-4.091364e-004
3.639077e+003,-4.672129e-004
3.641005e+003,-4.919227e-004
3.642934e+003,-3.631817e-004
3.644862e+003,-5.458995e-004
3.646791e+003,-5.537771e-004
3.648719e+003,2.571719e-005
3.650648e+003,1.981296e-004
3.652576e+003,-4.306223e-004
3.654505e+003,-6.969609e-004
3.656433e+003,-5.245036e-004
3.658362e+003,-5.401763e-004
3.660290e+003,-6.349704e-004
3.662219e+003,-7.711282e-004
3.664147e+003,-7.975285e-004
3.666076e+003,-8.717066e-004
3.668004e+003,-8.465321e-004
3.669933e+003,-4.087334e-004
3.671861e+003,-9.334937e-004
3.673790e+003,-1.605769e-003
3.675718e+003,-9.825224e-004
3.677647e+003,-5.745191e-004
3.679575e+003,-5.942495e-004
3.681504e+003,-1.007362e-003
3.683432e+003,-1.127547e-003
3.685361e+003,-1.259208e-003
3.687289e+003,-1.273236e-003
3.689218e+003,-8.916992e-004
3.691146e+003,-7.194950e-004
3.693075e+003,-7.425790e-004
3.695003e+003,-8.346337e-004
3.696932e+003,-9.411165e-004
3.698860e+003,-1.148087e-003
3.700789e+003,-9.608926e-004
3.702717e+003,-7.235375e-004
3.704646e+003,-1.023936e-003
3.706574e+003,-1.350876e-003
3.708503e+003,-1.383371e-003
3.710431e+003,-1.125159e-003
3.712360e+003,-6.619025e-004
3.714288e+003,-6.731848e-004
3.716217e+003,-9.590110e-004
3.718145e+003,-1.067677e-003
3.720074e+003,-1.043938e-003
3.722002e+003,-1.035595e-003
3.723931e+003,-9.148216e-004
3.725859e+003,-6.807995e-004
3.727788e+003,-7.819784e-004
3.729716e+003,-1.167778e-003
3.731645e+003,-1.375000e-003
3.733573e+003,-9.899938e-004
3.735502e+003,-1.564529e-004
3.737430e+003,-1.549462e-004
3.739359e+003,-6.654119e-004
3.741287e+003,-1.022396e-003
3.743216e+003,-9.621745e-004
3.745144e+003,-2.199649e-004
3.747073e+003,-5.859500e-004
3.749001e+003,-7.149128e-004
3.750930e+003,-6.584765e-005
3.752858e+003,8.352543e-005
3.754787e+003,-6.793358e-004
3.756715e+003,-9.315058e-004
3.758644e+003,-5.310219e-004
3.760572e+003,-3.235388e-004
3.762501e+003,-5.219751e-004
3.764429e+003,-5.770978e-004
3.766358e+003,-4.839571e-004
3.768286e+003,-4.835360e-004
3.770215e+003,-2.448796e-004
3.772143e+003,-3.681537e-004
3.774072e+003,-5.380897e-004
3.776000e+003,-5.790161e-004
3.777929e+003,-5.181700e-004
3.779857e+003,-3.083901e-004
3.781786e+003,-3.272096e-004
3.783714e+003,-2.622525e-004
3.785643e+003,-2.453030e-004
3.787571e+003,-2.560933e-004
3.789500e+003,-2.483021e-004
3.791428e+003,-3.838080e-004
3.793357e+003,-4.437402e-004
3.795285e+003,-2.490610e-004
3.797214e+003,-1.375184e-004
3.799142e+003,-3.870078e-004
3.801071e+003,-1.189037e-004
3.802999e+003,-6.261282e-005
3.804927e+003,-4.513555e-004
3.806856e+003,-1.952656e-004
3.808785e+003,1.053308e-004
3.810713e+003,-1.571223e-005
3.812642e+003,-2.519134e-004
3.814570e+003,-1.791004e-004
3.816499e+003,2.188078e-004
3.818427e+003,-2.030464e-004
3.820355e+003,-1.839439e-004
3.822284e+003,3.415851e-004
3.824213e+003,3.375276e-005
3.826141e+003,3.004679e-006
3.828070e+003,1.347926e-005
3.829998e+003,-2.112694e-005
3.831927e+003,-1.170174e-004
3.833855e+003,-2.812665e-004
3.835783e+003,-2.724548e-004
3.837712e+003,-6.079313e-005
3.839641e+003,2.523459e-004
3.841569e+003,2.801630e-004
3.843498e+003,2.714175e-004
3.845426e+003,2.182752e-004
3.847354e+003,2.153288e-005
3.849283e+003,-2.333360e-004
3.851211e+003,-4.258603e-004
3.853140e+003,2.117873e-004
3.855069e+003,4.702107e-004
3.856997e+003,2.612832e-004
3.858926e+003,-3.587781e-005
3.860854e+003,-1.630232e-004
3.862782e+003,8.169573e-005
3.864711e+003,4.764255e-004
3.866640e+003,3.132572e-004
3.868568e+003,1.847094e-004
3.870497e+003,5.957624e-004
3.872425e+003,5.680416e-004
3.874354e+003,7.046850e-004
3.876282e+003,4.678869e-004
3.878210e+003,3.229851e-004
3.880139e+003,5.970246e-004
3.882068e+003,3.814553e-004
3.883996e+003,6.611983e-005
3.885925e+003,3.322687e-004
3.887853e+003,3.290416e-004
3.889781e+003,3.087766e-004
3.891710e+003,6.564239e-004
3.893638e+003,6.778862e-004
3.895567e+003,4.508442e-004
3.897496e+003,2.647128e-004
3.899424e+003,4.201313e-004
3.901353e+003,4.667372e-004
3.903281e+003,5.600052e-004
3.905209e+003,8.886713e-004
3.907138e+003,7.596572e-004
3.909066e+003,5.136742e-004
3.910995e+003,5.680833e-004
3.912924e+003,6.527924e-004
3.914852e+003,5.554880e-004
3.916781e+003,6.158371e-004
3.918709e+003,7.071886e-004
3.920637e+003,6.343380e-004
3.922566e+003,5.741671e-004
3.924494e+003,7.338501e-004
3.926423e+003,6.912453e-004
3.928352e+003,4.739584e-004
3.930280e+003,4.869879e-004
3.932208e+003,6.430065e-004
3.934137e+003,5.236452e-004
3.936065e+003,3.586037e-004
3.937994e+003,4.038538e-004
3.939922e+003,3.942514e-004
3.941851e+003,4.542042e-004
3.943780e+003,5.992593e-004
3.945708e+003,4.048964e-004
3.947636e+003,1.882330e-004
3.949565e+003,2.732042e-004
3.951493e+003,3.368934e-004
3.953422e+003,2.915309e-004
3.955351e+003,2.511070e-004
3.957279e+003,3.172315e-004
3.959208e+003,3.708103e-004
3.961136e+003,3.739807e-004
3.963064e+003,3.663697e-004
3.964993e+003,3.181053e-004
3.966921e+003,3.353241e-004
3.968850e+003,4.266833e-004
3.970779e+003,4.663607e-004
3.972707e+003,4.657444e-004
3.974635e+003,4.284675e-004
3.976564e+003,4.772963e-004
3.978492e+003,5.546822e-004
3.980421e+003,5.142128e-004
3.982349e+003,5.803239e-004
3.984278e+003,5.587225e-004
3.986207e+003,4.145040e-004
3.988135e+003,3.259841e-004
3.990063e+003,4.323523e-004
3.991992e+003,4.153934e-004
3.993920e+003,4.458500e-004
3.995849e+003,5.994919e-004
3.997777e+003,6.173293e-004
3.999706e+003,5.186670e-004
4.001635e+003,0.000000e+000
