3.991992e+002,0.000000e+000
4.011277e+002,0.000000e+000
4.030562e+002,0.000000e+000
4.049846e+002,0.000000e+000
4.069131e+002,0.000000e+000
4.088416e+002,0.000000e+000
4.107701e+002,0.000000e+000
4.126986e+002,0.000000e+000
4.146271e+002,0.000000e+000
4.165556e+002,0.000000e+000
4.184841e+002,0.000000e+000
4.204126e+002,0.000000e+000
4.223411e+002,0.000000e+000
4.242697e+002,0.000000e+000
4.261982e+002,0.000000e+000
4.281266e+002,0.000000e+000
4.300551e+002,0.000000e+000
4.319836e+002,0.000000e+000
4.339121e+002,0.000000e+000
4.358406e+002,0.000000e+000
4.377691e+002,0.000000e+000
4.396976e+002,0.000000e+000
4.416261e+002,0.000000e+000
4.435546e+002,0.000000e+000
4.454831e+002,0.000000e+000
4.474116e+002,0.000000e+000
4.493401e+002,0.000000e+000
4.512686e+002,0.000000e+000
4.531971e+002,0.000000e+000
4.551256e+002,0.000000e+000
4.570541e+002,0.000000e+000
4.589826e+002,0.000000e+000
4.609111e+002,0.000000e+000
4.628396e+002,0.000000e+000
4.647681e+002,0.000000e+000
4.666966e+002,0.000000e+000
4.686251e+002,0.000000e+000
4.705536e+002,0.000000e+000
4.724821e+002,0.000000e+000
4.744106e+002,0.000000e+000
4.763391e+002,0.000000e+000
4.782676e+002,0.000000e+000
4.801961e+002,0.000000e+000
4.821246e+002,0.000000e+000
4.840531e+002,0.000000e+000
4.859816e+002,0.000000e+000
4.879101e+002,0.000000e+000
4.898386e+002,0.000000e+000
4.917671e+002,0.000000e+000
4.936956e+002,0.000000e+000
4.956241e+002,0.000000e+000
4.975526e+002,0.000000e+000
4.994811e+002,0.000000e+000
5.014096e+002,0.000000e+000
5.033381e+002,0.000000e+000
5.052666e+002,0.000000e+000
5.071951e+002,0.000000e+000
5.091236e+002,0.000000e+000
5.110521e+002,0.000000e+000
5.129806e+002,0.000000e+000
5.149091e+002,0.000000e+000
5.168376e+002,0.000000e+000
5.187661e+002,0.000000e+000
5.206946e+002,0.000000e+000
5.226230e+002,0.000000e+000
5.245516e+002,1.257474e-004
5.264800e+002,6.678491e-005
5.284086e+002,4.197704e-005
5.303370e+002,-1.573213e-005
5.322656e+002,-2.203160e-005
5.341940e+002,-1.138183e-004
5.361226e+002,1.559546e-005
5.380510e+002,1.365172e-004
5.399796e+002,9.995862e-005
5.419081e+002,6.303028e-005
5.438365e+002,1.228703e-004
5.457650e+002,1.126530e-004
5.476935e+002,1.224126e-004
5.496221e+002,1.101929e-004
5.515505e+002,1.044367e-004
5.534790e+002,1.243060e-004
5.554075e+002,2.430016e-004
5.573361e+002,1.702721e-004
5.592645e+002,-1.149275e-005
5.611931e+002,-6.681890e-005
5.631215e+002,3.801403e-005
5.650500e+002,1.689107e-004
5.669785e+002,2.852152e-004
5.689070e+002,3.585999e-004
5.708355e+002,4.658122e-004
5.727640e+002,6.166608e-004
5.746925e+002,8.285346e-004
5.766210e+002,8.464439e-004
5.785495e+002,8.970401e-004
5.804780e+002,1.009228e-003
5.824065e+002,1.155382e-003
5.843350e+002,1.242888e-003
5.862635e+002,1.201564e-003
5.881920e+002,1.024012e-003
5.901205e+002,1.038252e-003
5.920490e+002,1.194161e-003
5.939775e+002,1.261545e-003
5.959060e+002,1.138497e-003
5.978345e+002,1.142154e-003
5.997630e+002,1.214618e-003
6.016915e+002,1.333530e-003
6.036200e+002,1.436993e-003
6.055485e+002,1.492679e-003
6.074770e+002,1.413093e-003
6.094055e+002,1.298704e-003
6.113340e+002,1.153924e-003
6.132625e+002,1.112073e-003
6.151910e+002,9.864594e-004
6.171195e+002,9.472393e-004
6.190480e+002,9.994314e-004
6.209765e+002,1.027008e-003
6.229050e+002,1.001383e-003
6.248335e+002,1.130675e-003
6.267620e+002,1.170303e-003
6.286905e+002,1.160342e-003
6.306190e+002,1.228476e-003
6.325475e+002,1.384395e-003
6.344760e+002,1.446764e-003
6.364045e+002,1.520072e-003
6.383330e+002,1.556005e-003
6.402615e+002,1.659516e-003
6.421899e+002,1.619269e-003
6.441185e+002,1.632094e-003
6.460470e+002,1.672147e-003
6.479755e+002,1.826420e-003
6.499039e+002,1.881578e-003
6.518325e+002,1.922678e-003
6.537610e+002,1.979016e-003
6.556895e+002,2.194911e-003
6.576179e+002,2.361845e-003
6.595464e+002,2.513756e-003
6.614750e+002,2.502517e-003
6.634034e+002,2.668823e-003
6.653319e+002,2.892348e-003
6.672604e+002,3.131306e-003
6.691890e+002,3.395407e-003
6.711174e+002,3.695864e-003
6.730460e+002,3.930751e-003
6.749745e+002,4.309922e-003
6.769030e+002,4.692085e-003
6.788314e+002,5.150465e-003
6.807599e+002,5.587023e-003
6.826885e+002,6.154926e-003
6.846169e+002,6.613584e-003
6.865454e+002,7.086252e-003
6.884739e+002,7.505716e-003
6.904025e+002,8.039367e-003
6.923309e+002,8.502955e-003
6.942594e+002,9.180445e-003
6.961879e+002,9.850432e-003
6.981165e+002,1.067481e-002
7.000449e+002,1.159512e-002
7.019734e+002,1.292200e-002
7.039019e+002,1.449286e-002
7.058304e+002,1.676473e-002
7.077589e+002,1.978560e-002
7.096874e+002,2.438420e-002
7.116159e+002,3.158891e-002
7.135444e+002,4.539050e-002
7.154729e+002,7.158760e-002
7.174014e+002,1.109613e-001
7.193299e+002,1.252003e-001
7.212584e+002,8.797507e-002
7.231869e+002,5.692057e-002
7.251154e+002,4.872690e-002
7.270439e+002,5.717443e-002
7.289724e+002,8.274481e-002
7.309009e+002,8.762591e-002
7.328294e+002,5.312993e-002
7.347579e+002,2.708649e-002
7.366864e+002,1.778263e-002
7.386149e+002,1.399885e-002
7.405434e+002,1.166089e-002
7.424719e+002,1.022362e-002
7.444004e+002,8.995465e-003
7.463289e+002,8.119388e-003
7.482574e+002,7.382836e-003
7.501859e+002,6.780849e-003
7.521144e+002,6.176616e-003
7.540428e+002,5.805302e-003
7.559714e+002,5.445728e-003
7.578999e+002,5.191561e-003
7.598284e+002,5.005050e-003
7.617568e+002,4.965224e-003
7.636854e+002,4.798473e-003
7.656139e+002,4.636344e-003
7.675424e+002,4.471640e-003
7.694709e+002,4.316954e-003
7.713994e+002,4.047317e-003
7.733279e+002,3.785778e-003
7.752563e+002,3.555583e-003
7.771849e+002,3.410042e-003
7.791134e+002,3.288487e-003
7.810419e+002,3.206744e-003
7.829703e+002,3.081076e-003
7.848989e+002,3.015069e-003
7.868274e+002,2.968848e-003
7.887559e+002,3.040618e-003
7.906843e+002,3.092142e-003
7.926129e+002,3.101157e-003
7.945414e+002,3.125699e-003
7.964698e+002,3.194388e-003
7.983983e+002,3.230710e-003
8.003268e+002,3.267428e-003
8.022554e+002,3.263816e-003
8.041838e+002,3.304731e-003
8.061123e+002,3.311596e-003
8.080408e+002,3.369296e-003
8.099694e+002,3.378110e-003
8.118978e+002,3.415092e-003
8.138263e+002,3.438676e-003
8.157548e+002,3.428593e-003
8.176833e+002,3.419411e-003
8.196118e+002,3.435819e-003
8.215403e+002,3.429212e-003
8.234689e+002,3.441562e-003
8.253973e+002,3.466511e-003
8.273258e+002,3.517424e-003
8.292543e+002,3.538512e-003
8.311829e+002,3.571489e-003
8.331113e+002,3.621455e-003
8.350398e+002,3.726559e-003
8.369683e+002,3.841908e-003
8.388969e+002,3.924725e-003
8.408253e+002,4.028901e-003
8.427538e+002,4.182516e-003
8.446823e+002,4.313324e-003
8.466108e+002,4.422857e-003
8.485393e+002,4.524429e-003
8.504678e+002,4.574351e-003
8.523963e+002,4.608561e-003
8.543248e+002,4.653714e-003
8.562533e+002,4.652771e-003
8.581818e+002,4.643358e-003
8.601103e+002,4.630179e-003
8.620388e+002,4.695728e-003
8.639673e+002,4.741256e-003
8.658958e+002,4.802778e-003
8.678243e+002,4.865381e-003
8.697528e+002,4.895545e-003
8.716813e+002,4.912566e-003
8.736098e+002,4.906756e-003
8.755383e+002,4.884641e-003
8.774668e+002,4.870855e-003
8.793953e+002,4.837846e-003
8.813238e+002,4.894254e-003
8.832523e+002,5.014117e-003
8.851808e+002,5.080199e-003
8.871093e+002,5.108533e-003
8.890378e+002,5.151854e-003
8.909663e+002,5.203262e-003
8.928948e+002,5.177648e-003
8.948232e+002,5.206374e-003
8.967518e+002,5.251134e-003
8.986803e+002,5.345624e-003
9.006088e+002,5.544954e-003
9.025372e+002,6.018954e-003
9.044658e+002,6.775571e-003
9.063943e+002,7.792606e-003
9.083228e+002,8.381916e-003
9.102512e+002,7.874204e-003
9.121797e+002,6.784808e-003
9.141083e+002,5.986490e-003
9.160367e+002,5.563387e-003
9.179653e+002,5.356925e-003
9.198937e+002,5.198345e-003
9.218223e+002,5.027810e-003
9.237507e+002,4.984670e-003
9.256793e+002,5.017300e-003
9.276077e+002,5.073354e-003
9.295363e+002,5.154862e-003
9.314647e+002,5.203856e-003
9.333932e+002,5.306734e-003
9.353217e+002,5.508965e-003
9.372502e+002,5.697917e-003
9.391787e+002,5.900559e-003
9.411072e+002,6.132657e-003
9.430358e+002,6.339463e-003
9.449642e+002,6.542830e-003
9.468928e+002,6.687483e-003
9.488212e+002,6.865556e-003
9.507498e+002,7.027201e-003
9.526782e+002,7.248363e-003
9.546068e+002,7.550347e-003
9.565352e+002,7.877137e-003
9.584637e+002,8.181306e-003
9.603922e+002,8.505262e-003
9.623207e+002,8.753059e-003
9.642492e+002,8.950412e-003
9.661777e+002,9.074952e-003
9.681062e+002,9.110589e-003
9.700347e+002,9.028375e-003
9.719632e+002,8.858693e-003
9.738917e+002,8.652803e-003
9.758202e+002,8.536671e-003
9.777487e+002,8.441341e-003
9.796772e+002,8.444879e-003
9.816057e+002,8.521881e-003
9.835342e+002,8.698712e-003
9.854627e+002,8.966891e-003
9.873912e+002,9.278551e-003
9.893197e+002,9.502348e-003
9.912482e+002,9.589439e-003
9.931767e+002,9.534064e-003
9.951052e+002,9.449797e-003
9.970337e+002,9.390056e-003
9.989622e+002,9.360467e-003
1.000891e+003,9.349901e-003
1.002819e+003,9.442143e-003
1.004748e+003,9.609178e-003
1.006676e+003,9.830730e-003
1.008605e+003,1.002398e-002
1.010533e+003,1.024585e-002
1.012462e+003,1.052317e-002
1.014390e+003,1.082971e-002
1.016319e+003,1.109857e-002
1.018247e+003,1.142903e-002
1.020176e+003,1.173873e-002
1.022104e+003,1.196867e-002
1.024033e+003,1.212853e-002
1.025961e+003,1.233967e-002
1.027890e+003,1.247985e-002
1.029818e+003,1.258345e-002
1.031747e+003,1.262061e-002
1.033675e+003,1.264892e-002
1.035604e+003,1.260304e-002
1.037532e+003,1.251107e-002
1.039461e+003,1.239094e-002
1.041389e+003,1.231837e-002
1.043318e+003,1.235681e-002
1.045246e+003,1.256923e-002
1.047175e+003,1.288692e-002
1.049103e+003,1.339509e-002
1.051032e+003,1.390305e-002
1.052960e+003,1.420518e-002
1.054889e+003,1.459149e-002
1.056817e+003,1.507933e-002
1.058746e+003,1.548605e-002
1.060674e+003,1.587621e-002
1.062603e+003,1.619272e-002
1.064531e+003,1.641526e-002
1.066460e+003,1.656923e-002
1.068388e+003,1.685148e-002
1.070317e+003,1.724943e-002
1.072245e+003,1.795425e-002
1.074174e+003,1.895433e-002
1.076102e+003,2.030079e-002
1.078031e+003,2.186657e-002
1.079959e+003,2.351741e-002
1.081888e+003,2.490591e-002
1.083816e+003,2.605132e-002
1.085745e+003,2.709025e-002
1.087673e+003,2.821533e-002
1.089602e+003,2.943769e-002
1.091530e+003,3.060295e-002
1.093459e+003,3.150597e-002
1.095387e+003,3.204273e-002
1.097316e+003,3.210288e-002
1.099244e+003,3.178551e-002
1.101173e+003,3.115088e-002
1.103101e+003,3.036947e-002
1.105030e+003,2.962127e-002
1.106958e+003,2.926514e-002
1.108887e+003,2.950061e-002
1.110815e+003,3.032989e-002
1.112744e+003,3.154168e-002
1.114672e+003,3.292762e-002
1.116601e+003,3.401544e-002
1.118529e+003,3.444137e-002
1.120458e+003,3.399362e-002
1.122386e+003,3.274602e-002
1.124315e+003,3.110429e-002
1.126243e+003,2.972244e-002
1.128172e+003,2.915917e-002
1.130100e+003,2.983510e-002
1.132029e+003,3.173815e-002
1.133957e+003,3.462560e-002
1.135885e+003,3.814378e-002
1.137814e+003,4.179668e-002
1.139743e+003,4.500872e-002
1.141671e+003,4.750124e-002
1.143600e+003,4.920858e-002
1.145528e+003,5.039420e-002
1.147457e+003,5.150976e-002
1.149385e+003,5.283255e-002
1.151314e+003,5.440066e-002
1.153242e+003,5.613043e-002
1.155171e+003,5.786272e-002
1.157099e+003,5.945025e-002
1.159028e+003,6.068019e-002
1.160956e+003,6.143700e-002
1.162885e+003,6.159429e-002
1.164813e+003,6.109706e-002
1.166742e+003,6.009943e-002
1.168670e+003,5.869711e-002
1.170599e+003,5.695445e-002
1.172527e+003,5.500877e-002
1.174456e+003,5.302108e-002
1.176384e+003,5.097926e-002
1.178313e+003,4.872185e-002
1.180241e+003,4.662471e-002
1.182170e+003,4.475581e-002
1.184098e+003,4.307253e-002
1.186027e+003,4.147828e-002
1.187955e+003,3.996398e-002
1.189884e+003,3.846106e-002
1.191812e+003,3.699623e-002
1.193740e+003,3.556222e-002
1.195669e+003,3.421635e-002
1.197598e+003,3.293673e-002
1.199526e+003,3.185434e-002
1.201455e+003,3.095255e-002
1.203383e+003,3.030325e-002
1.205312e+003,2.988731e-002
1.207240e+003,2.971295e-002
1.209168e+003,2.961403e-002
1.211097e+003,2.945396e-002
1.213026e+003,2.924425e-002
1.214954e+003,2.918716e-002
1.216883e+003,2.928589e-002
1.218811e+003,2.953309e-002
1.220740e+003,2.988244e-002
1.222668e+003,3.041077e-002
1.224596e+003,3.104021e-002
1.226525e+003,3.173533e-002
1.228453e+003,3.237408e-002
1.230382e+003,3.298380e-002
1.232311e+003,3.352764e-002
1.234239e+003,3.401684e-002
1.236167e+003,3.438140e-002
1.238096e+003,3.458391e-002
1.240025e+003,3.452248e-002
1.241953e+003,3.418924e-002
1.243882e+003,3.349603e-002
1.245810e+003,3.250384e-002
1.247739e+003,3.125659e-002
1.249667e+003,2.998039e-002
1.251595e+003,2.890537e-002
1.253524e+003,2.820485e-002
1.255453e+003,2.782422e-002
1.257381e+003,2.755336e-002
1.259310e+003,2.718611e-002
1.261238e+003,2.678647e-002
1.263167e+003,2.632496e-002
1.265095e+003,2.583190e-002
1.267023e+003,2.528189e-002
1.268952e+003,2.477930e-002
1.270880e+003,2.437130e-002
1.272809e+003,2.421182e-002
1.274738e+003,2.421621e-002
1.276666e+003,2.429567e-002
1.278594e+003,2.422840e-002
1.280523e+003,2.400227e-002
1.282451e+003,2.342285e-002
1.284380e+003,2.267804e-002
1.286308e+003,2.190463e-002
1.288237e+003,2.138952e-002
1.290166e+003,2.118980e-002
1.292094e+003,2.126871e-002
1.294022e+003,2.144909e-002
1.295951e+003,2.163739e-002
1.297879e+003,2.173543e-002
1.299808e+003,2.181300e-002
1.301736e+003,2.175586e-002
1.303665e+003,2.161680e-002
1.305594e+003,2.136210e-002
1.307522e+003,2.112127e-002
1.309450e+003,2.087745e-002
1.311379e+003,2.069935e-002
1.313307e+003,2.043844e-002
1.315236e+003,2.016696e-002
1.317164e+003,1.985876e-002
1.319093e+003,1.949071e-002
1.321021e+003,1.895019e-002
1.322950e+003,1.838889e-002
1.324878e+003,1.776458e-002
1.326807e+003,1.720577e-002
1.328735e+003,1.675088e-002
1.330664e+003,1.656872e-002
1.332592e+003,1.668397e-002
1.334521e+003,1.708046e-002
1.336449e+003,1.764197e-002
1.338378e+003,1.857522e-002
1.340306e+003,1.955275e-002
1.342235e+003,2.020840e-002
1.344163e+003,2.087491e-002
1.346092e+003,2.170053e-002
1.348021e+003,2.248092e-002
1.349949e+003,2.320866e-002
1.351877e+003,2.359390e-002
1.353806e+003,2.368589e-002
1.355734e+003,2.356498e-002
1.357663e+003,2.357765e-002
1.359591e+003,2.386097e-002
1.361520e+003,2.452260e-002
1.363448e+003,2.533579e-002
1.365377e+003,2.597778e-002
1.367305e+003,2.645243e-002
1.369234e+003,2.654487e-002
1.371162e+003,2.610096e-002
1.373091e+003,2.592514e-002
1.375019e+003,2.669555e-002
1.376948e+003,2.732163e-002
1.378876e+003,2.601730e-002
1.380805e+003,2.295758e-002
1.382733e+003,1.990688e-002
1.384662e+003,1.781581e-002
1.386590e+003,1.616583e-002
1.388519e+003,1.474301e-002
1.390447e+003,1.375527e-002
1.392376e+003,1.325940e-002
1.394304e+003,1.300981e-002
1.396233e+003,1.317473e-002
1.398161e+003,1.330716e-002
1.400090e+003,1.379302e-002
1.402018e+003,1.392003e-002
1.403947e+003,1.390225e-002
1.405875e+003,1.331016e-002
1.407804e+003,1.309255e-002
1.409732e+003,1.336656e-002
1.411661e+003,1.456895e-002
1.413589e+003,1.600747e-002
1.415518e+003,1.745052e-002
1.417446e+003,1.815339e-002
1.419375e+003,1.820282e-002
1.421303e+003,1.760417e-002
1.423232e+003,1.769038e-002
1.425160e+003,1.830461e-002
1.427089e+003,1.987092e-002
1.429017e+003,2.235886e-002
1.430946e+003,2.597867e-002
1.432874e+003,2.900149e-002
1.434803e+003,3.174555e-002
1.436731e+003,3.486962e-002
1.438660e+003,3.746007e-002
1.440588e+003,3.900973e-002
1.442517e+003,4.101217e-002
1.444445e+003,4.260997e-002
1.446374e+003,4.469269e-002
1.448302e+003,4.783099e-002
1.450231e+003,5.248884e-002
1.452159e+003,5.983945e-002
1.454088e+003,6.926346e-002
1.456016e+003,7.989141e-002
1.457945e+003,1.100374e-001
1.459873e+003,1.620706e-001
1.461802e+003,1.980909e-001
1.463730e+003,1.769018e-001
1.465659e+003,1.298776e-001
1.467587e+003,1.210077e-001
1.469516e+003,1.245504e-001
1.471444e+003,1.515194e-001
1.473373e+003,1.431350e-001
1.475301e+003,7.798447e-002
1.477230e+003,3.450244e-002
1.479158e+003,2.185600e-002
1.481087e+003,1.617752e-002
1.483015e+003,1.346897e-002
1.484944e+003,1.149888e-002
1.486872e+003,1.090563e-002
1.488801e+003,9.715836e-003
1.490729e+003,9.327712e-003
1.492658e+003,8.266662e-003
1.494586e+003,8.233912e-003
1.496515e+003,7.469395e-003
1.498443e+003,7.217547e-003
1.500372e+003,6.348735e-003
1.502300e+003,6.117705e-003
1.504229e+003,5.611578e-003
1.506157e+003,6.252526e-003
1.508086e+003,5.399891e-003
1.510014e+003,5.269167e-003
1.511943e+003,4.756284e-003
1.513871e+003,4.810963e-003
1.515800e+003,4.647183e-003
1.517728e+003,4.823477e-003
1.519657e+003,4.432420e-003
1.521585e+003,4.839988e-003
1.523514e+003,4.335479e-003
1.525442e+003,4.347765e-003
1.527371e+003,3.957411e-003
1.529299e+003,3.915381e-003
1.531228e+003,3.743337e-003
1.533156e+003,4.010741e-003
1.535085e+003,3.739473e-003
1.537013e+003,3.864734e-003
1.538942e+003,3.916911e-003
1.540870e+003,4.411974e-003
1.542799e+003,3.829945e-003
1.544727e+003,3.827745e-003
1.546656e+003,3.401467e-003
1.548584e+003,3.408222e-003
1.550513e+003,3.370748e-003
1.552441e+003,3.437945e-003
1.554370e+003,3.351161e-003
1.556298e+003,3.474914e-003
1.558227e+003,3.335161e-003
1.560155e+003,3.354354e-003
1.562084e+003,2.984729e-003
1.564012e+003,2.994675e-003
1.565941e+003,2.869645e-003
1.567869e+003,3.042599e-003
1.569798e+003,3.074218e-003
1.571726e+003,2.962917e-003
1.573655e+003,2.834995e-003
1.575583e+003,3.148615e-003
1.577512e+003,3.045945e-003
1.579440e+003,2.953690e-003
1.581369e+003,2.881780e-003
1.583297e+003,2.930789e-003
1.585226e+003,2.911292e-003
1.587154e+003,2.973512e-003
1.589083e+003,2.907103e-003
1.591011e+003,2.971537e-003
1.592940e+003,2.907143e-003
1.594868e+003,2.919391e-003
1.596797e+003,2.825346e-003
1.598725e+003,2.857110e-003
1.600654e+003,2.795806e-003
1.602582e+003,2.854284e-003
1.604511e+003,2.768754e-003
1.606439e+003,2.840441e-003
1.608368e+003,2.836057e-003
1.610296e+003,2.854951e-003
1.612225e+003,2.780401e-003
1.614153e+003,2.873787e-003
1.616082e+003,2.990622e-003
1.618010e+003,3.196456e-003
1.619939e+003,3.047565e-003
1.621867e+003,3.072324e-003
1.623796e+003,3.129663e-003
1.625724e+003,3.199999e-003
1.627653e+003,3.231247e-003
1.629581e+003,3.321856e-003
1.631510e+003,3.330294e-003
1.633438e+003,3.487840e-003
1.635367e+003,3.693874e-003
1.637295e+003,4.062447e-003
1.639224e+003,4.188593e-003
1.641152e+003,4.416493e-003
1.643081e+003,4.418574e-003
1.645009e+003,4.590390e-003
1.646938e+003,4.916933e-003
1.648866e+003,5.012688e-003
1.650795e+003,4.918071e-003
1.652723e+003,5.413131e-003
1.654652e+003,5.342460e-003
1.656580e+003,5.049525e-003
1.658509e+003,4.682585e-003
1.660437e+003,4.437927e-003
1.662366e+003,4.142945e-003
1.664294e+003,3.936775e-003
1.666223e+003,3.769853e-003
1.668151e+003,3.891706e-003
1.670080e+003,3.919780e-003
1.672008e+003,3.829844e-003
1.673937e+003,3.698927e-003
1.675865e+003,3.914173e-003
1.677794e+003,3.942752e-003
1.679722e+003,4.167300e-003
1.681651e+003,4.314754e-003
1.683579e+003,4.685617e-003
1.685508e+003,4.819768e-003
1.687436e+003,4.888521e-003
1.689365e+003,5.017383e-003
1.691293e+003,5.311880e-003
1.693222e+003,5.581123e-003
1.695150e+003,6.275523e-003
1.697079e+003,7.151832e-003
1.699007e+003,7.576917e-003
1.700936e+003,8.757496e-003
1.702864e+003,9.291565e-003
1.704793e+003,9.908420e-003
1.706721e+003,1.094868e-002
1.708650e+003,1.160394e-002
1.710578e+003,1.235191e-002
1.712507e+003,1.313061e-002
1.714435e+003,1.406203e-002
1.716364e+003,1.525016e-002
1.718292e+003,1.731084e-002
1.720221e+003,1.903871e-002
1.722149e+003,2.111835e-002
1.724078e+003,2.466088e-002
1.726006e+003,2.885824e-002
1.727935e+003,3.405952e-002
1.729863e+003,4.198164e-002
1.731792e+003,5.033094e-002
1.733720e+003,6.531208e-002
1.735649e+003,8.640292e-002
1.737577e+003,9.808334e-002
1.739506e+003,1.171883e-001
1.741434e+003,1.337853e-001
1.743363e+003,1.442225e-001
1.745291e+003,1.480785e-001
1.747220e+003,1.448503e-001
1.749148e+003,1.328851e-001
1.751077e+003,1.141080e-001
1.753005e+003,9.370531e-002
1.754934e+003,7.829457e-002
1.756862e+003,5.946788e-002
1.758791e+003,4.493713e-002
1.760719e+003,3.499312e-002
1.762648e+003,2.527082e-002
1.764576e+003,1.975229e-002
1.766505e+003,1.627208e-002
1.768433e+003,1.316973e-002
1.770362e+003,1.141071e-002
1.772290e+003,9.708347e-003
1.774219e+003,8.103909e-003
1.776147e+003,7.103730e-003
1.778076e+003,6.426394e-003
1.780004e+003,5.997906e-003
1.781933e+003,5.413798e-003
1.783861e+003,4.912189e-003
1.785790e+003,4.455571e-003
1.787718e+003,4.134647e-003
1.789646e+003,3.947717e-003
1.791575e+003,3.869703e-003
1.793504e+003,3.534401e-003
1.795432e+003,3.337348e-003
1.797361e+003,3.093503e-003
1.799289e+003,2.917053e-003
1.801218e+003,2.701979e-003
1.803146e+003,2.451723e-003
1.805074e+003,2.224448e-003
1.807003e+003,2.062231e-003
1.808932e+003,1.872770e-003
1.810860e+003,1.684739e-003
1.812789e+003,1.381702e-003
1.814717e+003,1.110820e-003
1.816646e+003,8.278131e-004
1.818574e+003,1.009459e-003
1.820502e+003,1.160406e-003
1.822431e+003,1.173489e-003
1.824360e+003,9.913681e-004
1.826288e+003,9.098150e-004
1.828217e+003,7.889119e-004
1.830145e+003,6.355331e-004
1.832073e+003,2.148748e-004
1.834002e+003,1.969191e-004
1.835931e+003,9.154367e-005
1.837859e+003,1.255927e-004
1.839788e+003,8.812483e-005
1.841716e+003,1.495000e-004
1.843645e+003,6.814933e-005
1.845573e+003,4.893944e-005
1.847501e+003,-6.814019e-005
1.849430e+003,-1.398154e-004
1.851359e+003,-4.225781e-004
1.853287e+003,-3.823901e-004
1.855216e+003,-5.193097e-004
1.857144e+003,-6.341831e-004
1.859073e+003,-5.483351e-004
1.861001e+003,-3.236415e-004
1.862929e+003,-7.181409e-004
1.864858e+003,-7.603152e-004
1.866787e+003,-6.332591e-004
1.868715e+003,-3.453427e-004
1.870644e+003,-5.152910e-004
1.872572e+003,-4.561650e-004
1.874500e+003,-3.775541e-004
1.876429e+003,-3.665860e-004
1.878357e+003,-6.228063e-004
1.880286e+003,-7.058999e-004
1.882215e+003,-9.386767e-004
1.884143e+003,-7.617808e-004
1.886072e+003,-7.917249e-004
1.888000e+003,-6.789329e-004
1.889928e+003,-5.632770e-004
1.891857e+003,-2.075288e-004
1.893785e+003,-6.325286e-005
1.895714e+003,2.957300e-005
1.897643e+003,-2.597118e-004
1.899571e+003,-8.784149e-005
1.901500e+003,-8.673960e-005
1.903428e+003,-8.564565e-005
1.905356e+003,-8.456051e-005
1.907285e+003,-8.348284e-005
1.909213e+003,-8.241448e-005
1.911142e+003,-8.135405e-005
1.913071e+003,-8.030244e-005
1.914999e+003,-7.925830e-005
1.916927e+003,-7.822347e-005
1.918856e+003,-7.719656e-005
1.920784e+003,-7.617802e-005
1.922713e+003,-7.516833e-005
1.924641e+003,-7.416609e-005
1.926570e+003,-7.317319e-005
1.928499e+003,-7.218771e-005
1.930427e+003,-7.121154e-005
1.932355e+003,-7.024284e-005
1.934284e+003,-6.928299e-005
1.936212e+003,-6.833152e-005
1.938141e+003,-6.738841e-005
1.940070e+003,-6.645324e-005
1.941998e+003,-6.552738e-005
1.943927e+003,-6.460895e-005
1.945855e+003,-6.369939e-005
1.947783e+003,-6.279774e-005
1.949712e+003,-6.190492e-005
1.951640e+003,-6.102052e-005
1.953569e+003,-6.014448e-005
1.955498e+003,-5.927682e-005
1.957426e+003,-5.841706e-005
1.959354e+003,-5.756617e-005
1.961283e+003,-5.672319e-005
1.963211e+003,-5.588908e-005
1.965140e+003,-5.506285e-005
1.967068e+003,-5.424548e-005
1.968997e+003,-5.343603e-005
1.970926e+003,-5.263544e-005
1.972854e+003,-5.184227e-005
1.974782e+003,-5.105844e-005
1.976711e+003,-5.028251e-005
1.978639e+003,-4.951545e-005
1.980568e+003,-4.875629e-005
1.982496e+003,-4.800550e-005
1.984425e+003,-4.726312e-005
1.986354e+003,-4.652957e-005
1.988282e+003,-4.580393e-005
1.990210e+003,-4.508668e-005
1.992139e+003,-4.437783e-005
1.994067e+003,-4.367733e-005
1.995996e+003,-4.298569e-005
1.997924e+003,-4.230150e-005
1.999853e+003,-4.162664e-005
2.001781e+003,-4.095920e-005
2.003710e+003,-4.030063e-005
2.005638e+003,-3.965042e-005
2.007567e+003,-3.900862e-005
2.009495e+003,-3.837472e-005
2.011424e+003,-3.775014e-005
2.013352e+003,-3.713302e-005
2.015281e+003,-3.652473e-005
2.017209e+003,-3.592482e-005
2.019138e+003,-3.533330e-005
2.021066e+003,-3.474970e-005
2.022995e+003,-3.417494e-005
2.024923e+003,-3.360856e-005
2.026852e+003,-3.305011e-005
2.028781e+003,-3.250049e-005
2.030709e+003,-3.195880e-005
2.032637e+003,-3.142595e-005
2.034566e+003,-3.090102e-005
2.036494e+003,-3.038495e-005
2.038423e+003,-2.987677e-005
2.040351e+003,-2.937745e-005
2.042280e+003,-2.888606e-005
2.044208e+003,-2.840349e-005
2.046137e+003,-2.792885e-005
2.048065e+003,-2.746304e-005
2.049994e+003,-2.700470e-005
2.051922e+003,-2.655567e-005
2.053851e+003,-2.611459e-005
2.055779e+003,-2.568186e-005
2.057708e+003,-2.525796e-005
2.059636e+003,-2.484200e-005
2.061565e+003,-2.443441e-005
2.063493e+003,-2.403519e-005
2.065422e+003,-2.364439e-005
2.067350e+003,-2.326193e-005
2.069279e+003,-2.288836e-005
2.071207e+003,-2.252222e-005
2.073136e+003,-2.216492e-005
2.075064e+003,-2.181600e-005
2.076993e+003,-2.147548e-005
2.078921e+003,-2.114332e-005
2.080850e+003,-2.081954e-005
2.082778e+003,-2.050371e-005
2.084707e+003,-2.019719e-005
2.086635e+003,-1.989810e-005
2.088564e+003,-1.960786e-005
2.090492e+003,-1.932599e-005
2.092421e+003,-1.905207e-005
2.094349e+003,-1.878742e-005
2.096278e+003,-1.853023e-005
2.098206e+003,-1.828195e-005
2.100135e+003,-1.804152e-005
2.102063e+003,-1.780996e-005
2.103992e+003,-1.758631e-005
2.105920e+003,-1.737149e-005
2.107849e+003,-1.716460e-005
2.109777e+003,-1.696657e-005
2.111706e+003,-1.677644e-005
2.113634e+003,-1.659521e-005
2.115563e+003,-1.642137e-005
2.117491e+003,-1.625685e-005
2.119420e+003,-1.610025e-005
2.121348e+003,-1.595251e-005
2.123277e+003,-1.581268e-005
2.125205e+003,-1.568123e-005
2.127134e+003,-1.555862e-005
2.129062e+003,-1.544396e-005
2.130991e+003,-1.533766e-005
2.132919e+003,-1.523973e-005
2.134848e+003,-1.515019e-005
2.136776e+003,-1.506903e-005
2.138705e+003,-1.499671e-005
2.140633e+003,-1.493185e-005
2.142562e+003,-1.487634e-005
2.144490e+003,-1.482824e-005
2.146419e+003,-1.478900e-005
2.148347e+003,-1.475812e-005
2.150276e+003,-1.473563e-005
2.152204e+003,-1.472107e-005
2.154133e+003,-1.471580e-005
2.156061e+003,-1.471804e-005
2.157990e+003,-1.472907e-005
2.159918e+003,-1.474895e-005
2.161847e+003,-1.477629e-005
2.163775e+003,-1.481248e-005
2.165704e+003,-1.485657e-005
2.167632e+003,-1.490953e-005
2.169561e+003,-1.497040e-005
2.171489e+003,-1.504012e-005
2.173418e+003,-1.511778e-005
2.175346e+003,-1.520471e-005
2.177275e+003,-1.529865e-005
2.179203e+003,-1.540189e-005
2.181132e+003,-1.551305e-005
2.183060e+003,-1.563305e-005
2.184989e+003,-1.576098e-005
2.186917e+003,-1.589778e-005
2.188846e+003,-1.604245e-005
2.190774e+003,-1.619599e-005
2.192703e+003,-1.635743e-005
2.194631e+003,-1.652726e-005
2.196560e+003,-1.670595e-005
2.198488e+003,-1.689255e-005
2.200417e+003,-1.708756e-005
2.202345e+003,-1.729091e-005
2.204274e+003,-1.750313e-005
2.206202e+003,-1.772278e-005
2.208131e+003,-1.795175e-005
2.210059e+003,-1.818818e-005
2.211988e+003,-1.843390e-005
2.213916e+003,-1.868707e-005
2.215845e+003,-1.894958e-005
2.217773e+003,-1.921956e-005
2.219702e+003,-1.949836e-005
2.221630e+003,-1.978553e-005
2.223559e+003,-2.008109e-005
2.225487e+003,-2.038457e-005
2.227416e+003,-2.069736e-005
2.229344e+003,-2.101807e-005
2.231273e+003,-2.134671e-005
2.233201e+003,-2.168419e-005
2.235130e+003,-2.203004e-005
2.237058e+003,-2.238427e-005
2.238987e+003,-2.274642e-005
2.240915e+003,-2.311741e-005
2.242844e+003,-2.349632e-005
2.244772e+003,-2.388412e-005
2.246701e+003,-2.427980e-005
2.248629e+003,-2.468433e-005
2.250558e+003,-2.509676e-005
2.252486e+003,-2.551806e-005
2.254415e+003,-2.594726e-005
2.256343e+003,-2.638531e-005
2.258272e+003,-2.683127e-005
2.260200e+003,-2.728609e-005
2.262129e+003,-2.774886e-005
2.264057e+003,-2.821996e-005
2.265986e+003,-2.869993e-005
2.267914e+003,-2.918780e-005
2.269843e+003,-2.968407e-005
2.271771e+003,-3.018870e-005
2.273700e+003,-3.070220e-005
2.275628e+003,-3.122317e-005
2.277557e+003,-3.175343e-005
2.279485e+003,-3.229114e-005
2.281414e+003,-3.283814e-005
2.283342e+003,-3.339260e-005
2.285271e+003,-3.395640e-005
2.287199e+003,-3.452762e-005
2.289128e+003,-3.510820e-005
2.291056e+003,-3.569618e-005
2.292985e+003,-3.629303e-005
2.294913e+003,-3.689872e-005
2.296842e+003,-3.751187e-005
2.298770e+003,-3.813385e-005
2.300699e+003,-3.876422e-005
2.302627e+003,-3.940301e-005
2.304556e+003,-4.004968e-005
2.306484e+003,-4.070520e-005
2.308413e+003,-4.136861e-005
2.310341e+003,-4.204137e-005
2.312270e+003,-4.272157e-005
2.314198e+003,-4.341062e-005
2.316127e+003,-4.410755e-005
2.318055e+003,-4.481337e-005
2.319984e+003,-4.552712e-005
2.321912e+003,-4.624970e-005
2.323841e+003,-4.698019e-005
2.325769e+003,-4.771951e-005
2.327698e+003,-4.846632e-005
2.329626e+003,-4.922242e-005
2.331555e+003,-4.998689e-005
2.333483e+003,-5.075932e-005
2.335412e+003,-5.154056e-005
2.337340e+003,-5.232972e-005
2.339269e+003,-5.312727e-005
2.341197e+003,-5.393320e-005
2.343126e+003,-5.474794e-005
2.345054e+003,-5.557018e-005
2.346983e+003,-5.640174e-005
2.348911e+003,-5.724073e-005
2.350840e+003,-5.808903e-005
2.352768e+003,-5.894525e-005
2.354697e+003,-5.980986e-005
2.356625e+003,-6.068283e-005
2.358554e+003,-6.156419e-005
2.360482e+003,-6.245346e-005
2.362411e+003,-6.335205e-005
2.364339e+003,-6.425859e-005
2.366268e+003,-6.517349e-005
2.368196e+003,-6.609675e-005
2.370125e+003,-6.702794e-005
2.372053e+003,-6.796845e-005
2.373982e+003,-6.891640e-005
2.375910e+003,-6.987319e-005
2.377839e+003,-7.083795e-005
2.379767e+003,-7.181150e-005
2.381696e+003,-7.279297e-005
2.383624e+003,-7.378377e-005
2.385553e+003,-7.478202e-005
2.387481e+003,-7.578911e-005
2.389410e+003,-7.680412e-005
2.391338e+003,-7.782799e-005
2.393267e+003,-7.885977e-005
2.395195e+003,-7.990039e-005
2.397124e+003,-8.094938e-005
2.399052e+003,-8.200583e-005
2.400981e+003,-5.690665e-005
2.402909e+003,-2.053015e-004
2.404838e+003,-2.299839e-004
2.406766e+003,6.875402e-006
2.408695e+003,2.923743e-004
2.410623e+003,1.975435e-004
2.412552e+003,2.656459e-004
2.414480e+003,1.882318e-004
2.416409e+003,9.115569e-005
2.418337e+003,2.133200e-004
2.420266e+003,3.630390e-004
2.422194e+003,1.429477e-004
2.424123e+003,7.433583e-005
2.426051e+003,1.929885e-004
2.427979e+003,2.580071e-004
2.429908e+003,3.430976e-004
2.431837e+003,3.277372e-004
2.433765e+003,1.321732e-004
2.435694e+003,1.084591e-004
2.437622e+003,1.328385e-004
2.439551e+003,2.085837e-004
2.441479e+003,4.918549e-005
2.443407e+003,-1.557636e-005
2.445336e+003,5.574323e-005
2.447265e+003,2.430591e-004
2.449193e+003,2.634837e-004
2.451122e+003,2.810103e-004
2.453050e+003,3.577421e-004
2.454979e+003,4.584352e-004
2.456907e+003,3.348547e-004
2.458836e+003,2.781484e-004
2.460764e+003,3.394324e-004
2.462693e+003,3.723245e-004
2.464621e+003,3.244754e-004
2.466550e+003,4.189495e-004
2.468478e+003,6.273969e-004
2.470406e+003,7.394690e-004
2.472335e+003,7.178601e-004
2.474264e+003,6.956360e-004
2.476192e+003,6.206691e-004
2.478121e+003,5.944608e-004
2.480049e+003,5.616291e-004
2.481978e+003,5.794203e-004
2.483906e+003,5.816704e-004
2.485835e+003,6.833017e-004
2.487763e+003,6.616213e-004
2.489692e+003,6.162947e-004
2.491620e+003,8.166442e-004
2.493549e+003,9.743330e-004
2.495477e+003,1.014264e-003
2.497406e+003,1.189676e-003
2.499334e+003,1.158285e-003
2.501263e+003,1.056077e-003
2.503191e+003,9.518877e-004
2.505120e+003,9.896732e-004
2.507048e+003,1.027345e-003
2.508977e+003,1.161762e-003
2.510905e+003,1.389102e-003
2.512833e+003,1.504858e-003
2.514762e+003,1.427223e-003
2.516691e+003,1.557788e-003
2.518619e+003,1.721489e-003
2.520548e+003,1.967696e-003
2.522476e+003,2.261559e-003
2.524405e+003,2.375292e-003
2.526333e+003,2.344242e-003
2.528261e+003,2.183448e-003
2.530190e+003,2.127832e-003
2.532119e+003,2.282535e-003
2.534047e+003,2.274254e-003
2.535976e+003,2.192028e-003
2.537904e+003,2.178425e-003
2.539833e+003,2.241524e-003
2.541761e+003,2.374678e-003
2.543689e+003,2.636699e-003
2.545618e+003,2.744849e-003
2.547547e+003,2.817452e-003
2.549475e+003,2.866702e-003
2.551404e+003,2.999763e-003
2.553332e+003,3.045735e-003
2.555260e+003,3.071987e-003
2.557189e+003,3.116453e-003
2.559117e+003,3.106557e-003
2.561046e+003,3.136547e-003
2.562975e+003,3.261277e-003
2.564903e+003,3.359689e-003
2.566832e+003,3.530169e-003
2.568760e+003,3.702628e-003
2.570688e+003,3.922889e-003
2.572617e+003,4.129478e-003
2.574546e+003,4.263962e-003
2.576474e+003,4.370454e-003
2.578403e+003,4.607662e-003
2.580331e+003,4.784471e-003
2.582260e+003,4.967319e-003
2.584188e+003,5.185898e-003
2.586116e+003,5.388991e-003
2.588045e+003,5.540962e-003
2.589974e+003,5.726289e-003
2.591902e+003,5.895680e-003
2.593831e+003,6.179056e-003
2.595759e+003,6.423205e-003
2.597688e+003,6.646976e-003
2.599616e+003,6.771539e-003
2.601544e+003,6.833235e-003
2.603473e+003,6.968617e-003
2.605402e+003,7.204631e-003
2.607330e+003,7.558434e-003
2.609259e+003,7.953949e-003
2.611187e+003,8.257436e-003
2.613115e+003,8.553232e-003
2.615044e+003,8.833459e-003
2.616972e+003,9.193348e-003
2.618901e+003,9.617925e-003
2.620830e+003,9.980447e-003
2.622758e+003,1.031247e-002
2.624687e+003,1.069457e-002
2.626615e+003,1.113929e-002
2.628543e+003,1.162785e-002
2.630472e+003,1.200852e-002
2.632400e+003,1.234303e-002
2.634329e+003,1.262330e-002
2.636258e+003,1.272382e-002
2.638186e+003,1.266537e-002
2.640115e+003,1.261857e-002
2.642043e+003,1.256594e-002
2.643971e+003,1.251782e-002
2.645900e+003,1.259495e-002
2.647828e+003,1.270065e-002
2.649757e+003,1.281510e-002
2.651686e+003,1.293709e-002
2.653614e+003,1.311100e-002
2.655542e+003,1.328731e-002
2.657471e+003,1.338450e-002
2.659399e+003,1.340926e-002
2.661328e+003,1.330930e-002
2.663256e+003,1.309566e-002
2.665185e+003,1.286699e-002
2.667114e+003,1.266903e-002
2.669042e+003,1.249180e-002
2.670970e+003,1.230324e-002
2.672899e+003,1.210986e-002
2.674827e+003,1.188594e-002
2.676756e+003,1.172383e-002
2.678685e+003,1.166144e-002
2.680613e+003,1.160838e-002
2.682542e+003,1.155414e-002
2.684470e+003,1.143963e-002
2.686398e+003,1.130211e-002
2.688327e+003,1.120172e-002
2.690255e+003,1.106455e-002
2.692184e+003,1.094214e-002
2.694113e+003,1.091515e-002
2.696041e+003,1.092436e-002
2.697969e+003,1.097245e-002
2.699898e+003,1.106874e-002
2.701826e+003,1.115684e-002
2.703755e+003,1.131806e-002
2.705683e+003,1.155041e-002
2.707612e+003,1.172031e-002
2.709541e+003,1.186769e-002
2.711469e+003,1.204197e-002
2.713397e+003,1.214655e-002
2.715326e+003,1.223691e-002
2.717254e+003,1.242856e-002
2.719183e+003,1.265292e-002
2.721111e+003,1.289349e-002
2.723040e+003,1.315285e-002
2.724969e+003,1.343555e-002
2.726897e+003,1.372344e-002
2.728825e+003,1.398635e-002
2.730754e+003,1.421889e-002
2.732682e+003,1.440146e-002
2.734611e+003,1.456999e-002
2.736539e+003,1.471543e-002
2.738468e+003,1.483581e-002
2.740396e+003,1.490245e-002
2.742325e+003,1.493108e-002
2.744253e+003,1.491239e-002
2.746182e+003,1.490241e-002
2.748110e+003,1.494653e-002
2.750039e+003,1.506941e-002
2.751967e+003,1.521250e-002
2.753896e+003,1.539656e-002
2.755824e+003,1.562306e-002
2.757753e+003,1.596808e-002
2.759681e+003,1.637335e-002
2.761610e+003,1.675666e-002
2.763538e+003,1.713150e-002
2.765467e+003,1.755632e-002
2.767395e+003,1.804517e-002
2.769324e+003,1.853682e-002
2.771252e+003,1.911190e-002
2.773181e+003,1.978630e-002
2.775109e+003,2.056339e-002
2.777038e+003,2.140871e-002
2.778966e+003,2.237331e-002
2.780895e+003,2.344061e-002
2.782823e+003,2.463339e-002
2.784752e+003,2.589617e-002
2.786680e+003,2.731289e-002
2.788609e+003,2.894583e-002
2.790537e+003,3.058496e-002
2.792466e+003,3.224616e-002
2.794394e+003,3.392415e-002
2.796323e+003,3.559429e-002
2.798251e+003,3.740884e-002
2.800180e+003,3.937552e-002
2.802108e+003,4.143244e-002
2.804037e+003,4.368192e-002
2.805965e+003,4.614007e-002
2.807894e+003,4.895885e-002
2.809822e+003,5.215002e-002
2.811751e+003,5.587051e-002
2.813679e+003,6.013959e-002
2.815608e+003,6.505383e-002
2.817536e+003,7.076742e-002
2.819465e+003,7.750975e-002
2.821393e+003,8.561943e-002
2.823322e+003,9.545915e-002
2.825250e+003,1.076574e-001
2.827179e+003,1.228877e-001
2.829107e+003,1.419075e-001
2.831036e+003,1.658759e-001
2.832964e+003,1.964780e-001
2.834893e+003,2.369272e-001
2.836821e+003,2.915948e-001
2.838750e+003,3.674652e-001
2.840678e+003,4.759029e-001
2.842607e+003,6.295213e-001
2.844535e+003,8.250698e-001
2.846464e+003,9.963880e-001
2.848392e+003,1.006664e+000
2.850321e+003,8.495631e-001
2.852249e+003,6.681199e-001
2.854178e+003,5.308511e-001
2.856106e+003,4.291728e-001
2.858035e+003,3.498549e-001
2.859963e+003,2.882704e-001
2.861892e+003,2.424867e-001
2.863820e+003,2.104517e-001
2.865749e+003,1.902343e-001
2.867677e+003,1.799279e-001
2.869606e+003,1.770841e-001
2.871534e+003,1.784958e-001
2.873463e+003,1.822649e-001
2.875391e+003,1.893988e-001
2.877320e+003,2.016045e-001
2.879248e+003,2.190450e-001
2.881177e+003,2.405459e-001
2.883105e+003,2.646873e-001
2.885034e+003,2.907765e-001
2.886962e+003,3.181833e-001
2.888891e+003,3.466172e-001
2.890819e+003,3.757714e-001
2.892748e+003,4.052390e-001
2.894676e+003,4.348777e-001
2.896605e+003,4.651576e-001
2.898533e+003,4.973035e-001
2.900462e+003,5.334317e-001
2.902390e+003,5.768128e-001
2.904319e+003,6.324160e-001
2.906247e+003,7.066039e-001
2.908176e+003,8.062974e-001
2.910104e+003,9.358233e-001
2.912033e+003,1.085422e+000
2.913961e+003,1.205097e+000
2.915890e+003,1.220829e+000
2.917818e+003,1.128660e+000
2.919747e+003,9.965985e-001
2.921675e+003,8.693320e-001
2.923604e+003,7.575100e-001
2.925532e+003,6.614558e-001
2.927461e+003,5.781860e-001
2.929389e+003,5.042850e-001
2.931318e+003,4.380737e-001
2.933246e+003,3.790890e-001
2.935175e+003,3.273817e-001
2.937103e+003,2.826150e-001
2.939032e+003,2.444096e-001
2.940960e+003,2.125392e-001
2.942889e+003,1.866535e-001
2.944817e+003,1.665412e-001
2.946746e+003,1.519985e-001
2.948674e+003,1.423946e-001
2.950603e+003,1.364845e-001
2.952531e+003,1.322529e-001
2.954460e+003,1.277685e-001
2.956388e+003,1.221130e-001
2.958317e+003,1.151167e-001
2.960245e+003,1.068685e-001
2.962174e+003,9.766403e-002
2.964102e+003,8.801761e-002
2.966031e+003,7.835280e-002
2.967959e+003,6.928268e-002
2.969888e+003,6.127742e-002
2.971816e+003,5.450621e-002
2.973745e+003,4.874677e-002
2.975673e+003,4.388120e-002
2.977602e+003,3.982908e-002
2.979530e+003,3.645173e-002
2.981459e+003,3.351106e-002
2.983387e+003,3.100817e-002
2.985316e+003,2.908614e-002
2.987244e+003,2.765096e-002
2.989173e+003,2.662182e-002
2.991101e+003,2.620480e-002
2.993030e+003,2.650090e-002
2.994958e+003,2.747001e-002
2.996887e+003,2.905243e-002
2.998815e+003,3.101647e-002
3.000744e+003,3.293533e-002
3.002672e+003,3.441388e-002
3.004601e+003,3.499196e-002
3.006529e+003,3.455492e-002
3.008458e+003,3.304523e-002
3.010386e+003,3.073283e-002
3.012315e+003,2.796112e-002
3.014243e+003,2.499937e-002
3.016172e+003,2.210046e-002
3.018100e+003,1.955772e-002
3.020029e+003,1.742687e-002
3.021957e+003,1.570791e-002
3.023886e+003,1.437952e-002
3.025814e+003,1.334773e-002
3.027743e+003,1.252760e-002
3.029671e+003,1.182710e-002
3.031600e+003,1.113428e-002
3.033528e+003,1.062959e-002
3.035457e+003,1.024449e-002
3.037385e+003,9.759801e-003
3.039314e+003,9.208817e-003
3.041242e+003,8.735595e-003
3.043171e+003,8.355329e-003
3.045099e+003,7.955486e-003
3.047028e+003,7.576988e-003
3.048956e+003,7.399951e-003
3.050885e+003,7.201653e-003
3.052813e+003,6.952764e-003
3.054742e+003,6.765380e-003
3.056670e+003,6.629713e-003
3.058599e+003,6.431216e-003
3.060527e+003,6.335653e-003
3.062456e+003,6.282808e-003
3.064384e+003,6.199883e-003
3.066313e+003,6.098365e-003
3.068241e+003,6.017767e-003
3.070170e+003,5.859061e-003
3.072098e+003,5.675722e-003
3.074027e+003,5.486848e-003
3.075955e+003,5.331950e-003
3.077884e+003,5.165599e-003
3.079812e+003,4.961953e-003
3.081741e+003,4.739417e-003
3.083669e+003,4.540428e-003
3.085598e+003,4.401350e-003
3.087526e+003,4.295169e-003
3.089455e+003,4.106358e-003
3.091383e+003,3.940868e-003
3.093312e+003,3.714717e-003
3.095240e+003,3.369803e-003
3.097169e+003,3.047179e-003
3.099097e+003,2.789393e-003
3.101026e+003,2.436057e-003
3.102954e+003,2.169532e-003
3.104883e+003,2.083743e-003
3.106811e+003,1.985055e-003
3.108740e+003,1.776646e-003
3.110668e+003,1.678688e-003
3.112597e+003,1.578956e-003
3.114525e+003,1.497090e-003
3.116454e+003,1.401986e-003
3.118382e+003,1.360785e-003
3.120311e+003,1.291571e-003
3.122239e+003,1.195126e-003
3.124168e+003,1.190927e-003
3.126096e+003,1.175723e-003
3.128025e+003,1.058365e-003
3.129953e+003,1.034017e-003
3.131882e+003,1.000594e-003
3.133810e+003,9.242899e-004
3.135739e+003,8.435218e-004
3.137667e+003,8.337459e-004
3.139596e+003,8.638437e-004
3.141524e+003,8.357163e-004
3.143453e+003,7.854421e-004
3.145381e+003,7.804922e-004
3.147310e+003,7.624800e-004
3.149238e+003,7.482022e-004
3.151167e+003,7.792707e-004
3.153095e+003,7.988666e-004
3.155024e+003,7.813271e-004
3.156952e+003,7.813551e-004
3.158881e+003,7.382055e-004
3.160809e+003,7.338992e-004
3.162738e+003,6.689433e-004
3.164666e+003,6.533476e-004
3.166594e+003,6.220794e-004
3.168523e+003,6.836782e-004
3.170452e+003,7.541860e-004
3.172380e+003,7.623698e-004
3.174309e+003,7.802477e-004
3.176237e+003,7.673748e-004
3.178166e+003,7.554310e-004
3.180094e+003,6.699399e-004
3.182022e+003,6.750135e-004
3.183951e+003,7.266678e-004
3.185880e+003,7.175058e-004
3.187808e+003,7.443900e-004
3.189737e+003,7.018868e-004
3.191665e+003,6.486367e-004
3.193594e+003,6.500874e-004
3.195522e+003,6.676483e-004
3.197450e+003,6.442842e-004
3.199379e+003,6.235417e-004
3.201308e+003,5.324725e-004
3.203236e+003,4.407646e-004
3.205165e+003,5.199938e-004
3.207093e+003,5.964476e-004
3.209021e+003,7.072712e-004
3.210950e+003,7.217221e-004
3.212878e+003,6.918468e-004
3.214807e+003,6.997908e-004
3.216736e+003,6.278156e-004
3.218664e+003,6.484276e-004
3.220593e+003,5.995111e-004
3.222521e+003,5.541670e-004
3.224449e+003,5.006379e-004
3.226378e+003,4.794673e-004
3.228307e+003,4.982091e-004
3.230235e+003,5.524351e-004
3.232164e+003,5.977183e-004
3.234092e+003,5.498244e-004
3.236021e+003,5.656320e-004
3.237949e+003,6.349451e-004
3.239877e+003,6.553294e-004
3.241806e+003,4.913048e-004
3.243735e+003,4.897753e-004
3.245663e+003,5.503596e-004
3.247592e+003,6.096157e-004
3.249520e+003,6.958897e-004
3.251448e+003,7.330782e-004
3.253377e+003,7.936233e-004
3.255305e+003,7.419134e-004
3.257234e+003,7.173719e-004
3.259163e+003,7.298841e-004
3.261091e+003,7.958557e-004
3.263020e+003,8.897288e-004
3.264948e+003,8.429891e-004
3.266876e+003,7.505593e-004
3.268805e+003,8.697200e-004
3.270733e+003,1.051326e-003
3.272662e+003,9.832641e-004
3.274591e+003,8.896936e-004
3.276519e+003,8.553728e-004
3.278448e+003,8.827941e-004
3.280376e+003,9.316879e-004
3.282304e+003,9.453474e-004
3.284233e+003,8.972283e-004
3.286161e+003,9.089122e-004
3.288090e+003,9.861791e-004
3.290019e+003,1.061791e-003
3.291947e+003,1.113456e-003
3.293875e+003,1.021106e-003
3.295804e+003,9.298520e-004
3.297732e+003,9.368658e-004
3.299661e+003,9.169478e-004
3.301589e+003,8.769548e-004
3.303518e+003,9.364437e-004
3.305447e+003,9.816319e-004
3.307375e+003,9.941626e-004
3.309303e+003,1.002531e-003
3.311232e+003,1.002883e-003
3.313160e+003,9.400137e-004
3.315089e+003,9.534119e-004
3.317018e+003,9.711140e-004
3.318946e+003,9.570045e-004
3.320875e+003,9.568683e-004
3.322803e+003,9.577214e-004
3.324731e+003,9.434547e-004
3.326660e+003,1.009426e-003
3.328588e+003,1.060890e-003
3.330517e+003,1.044104e-003
3.332446e+003,1.047532e-003
3.334374e+003,1.054170e-003
3.336302e+003,1.144851e-003
3.338231e+003,1.140355e-003
3.340159e+003,1.048495e-003
3.342088e+003,1.074098e-003
3.344016e+003,1.071426e-003
3.345945e+003,9.881300e-004
3.347874e+003,9.361785e-004
3.349802e+003,9.938844e-004
3.351730e+003,1.020731e-003
3.353659e+003,9.922895e-004
3.355587e+003,1.033413e-003
3.357516e+003,1.110573e-003
3.359444e+003,1.185927e-003
3.361373e+003,1.235147e-003
3.363302e+003,1.128916e-003
3.365230e+003,1.094714e-003
3.367158e+003,1.140152e-003
3.369087e+003,1.200064e-003
3.371015e+003,1.247959e-003
3.372944e+003,1.237463e-003
3.374872e+003,1.219557e-003
3.376801e+003,1.126868e-003
3.378729e+003,1.100910e-003
3.380658e+003,1.058872e-003
3.382586e+003,9.712053e-004
3.384515e+003,9.929524e-004
3.386443e+003,9.824645e-004
3.388372e+003,9.819695e-004
3.390300e+003,1.019275e-003
3.392229e+003,1.069343e-003
3.394157e+003,9.791038e-004
3.396086e+003,8.694895e-004
3.398014e+003,8.616901e-004
3.399943e+003,8.976569e-004
3.401871e+003,9.708072e-004
3.403800e+003,8.378793e-004
3.405728e+003,7.510299e-004
3.407657e+003,8.720362e-004
3.409585e+003,9.655764e-004
3.411514e+003,9.221081e-004
3.413442e+003,9.235605e-004
3.415371e+003,9.721643e-004
3.417299e+003,9.560613e-004
3.419228e+003,9.990579e-004
3.421156e+003,9.831686e-004
3.423085e+003,9.178384e-004
3.425013e+003,8.883516e-004
3.426942e+003,9.661946e-004
3.428870e+003,1.067454e-003
3.430799e+003,1.035482e-003
3.432727e+003,1.106926e-003
3.434656e+003,1.025912e-003
3.436584e+003,1.031150e-003
3.438513e+003,1.177345e-003
3.440441e+003,1.242282e-003
3.442370e+003,1.212216e-003
3.444298e+003,1.163018e-003
3.446227e+003,1.280097e-003
3.448155e+003,1.322560e-003
3.450084e+003,1.301960e-003
3.452012e+003,1.359260e-003
3.453941e+003,1.430039e-003
3.455869e+003,1.352770e-003
3.457798e+003,1.401460e-003
3.459726e+003,1.611257e-003
3.461655e+003,1.699113e-003
3.463583e+003,1.735310e-003
3.465512e+003,1.793411e-003
3.467440e+003,1.799295e-003
3.469369e+003,1.829837e-003
3.471297e+003,1.743169e-003
3.473226e+003,1.619959e-003
3.475154e+003,1.593663e-003
3.477083e+003,1.547589e-003
3.479011e+003,1.604619e-003
3.480940e+003,1.598598e-003
3.482868e+003,1.424190e-003
3.484797e+003,1.360321e-003
3.486725e+003,1.370118e-003
3.488654e+003,1.255992e-003
3.490582e+003,1.100030e-003
3.492511e+003,1.127657e-003
3.494439e+003,1.171550e-003
3.496368e+003,9.805770e-004
3.498296e+003,7.810530e-004
3.500225e+003,7.831017e-004
3.502153e+003,9.152172e-004
3.504082e+003,8.666248e-004
3.506010e+003,7.209331e-004
3.507939e+003,7.752120e-004
3.509867e+003,7.978622e-004
3.511796e+003,6.131937e-004
3.513724e+003,5.329258e-004
3.515653e+003,5.737834e-004
3.517581e+003,5.691561e-004
3.519510e+003,5.406945e-004
3.521438e+003,6.539500e-004
3.523367e+003,7.239510e-004
3.525295e+003,5.817988e-004
3.527224e+003,6.471449e-004
3.529152e+003,6.397106e-004
3.531081e+003,4.390373e-004
3.533009e+003,3.855210e-004
3.534938e+003,3.089537e-004
3.536866e+003,2.917992e-004
3.538795e+003,2.297708e-004
3.540723e+003,1.583947e-004
3.542652e+003,2.485511e-004
3.544580e+003,4.460756e-004
3.546509e+003,4.236351e-004
3.548437e+003,2.315047e-004
3.550366e+003,1.327067e-004
3.552294e+003,1.490624e-004
3.554223e+003,9.076553e-006
3.556151e+003,-3.962801e-005
3.558080e+003,-5.769730e-005
3.560008e+003,-8.075079e-005
3.561937e+003,-1.625561e-004
3.563865e+003,-5.293300e-005
3.565794e+003,3.753111e-004
3.567722e+003,4.518721e-004
3.569651e+003,-3.752147e-005
3.571579e+003,-3.344502e-004
3.573508e+003,-4.715380e-004
3.575436e+003,-5.769897e-004
3.577365e+003,-6.811282e-004
3.579293e+003,-6.567144e-004
3.581222e+003,-7.427197e-004
3.583150e+003,-9.216063e-004
3.585079e+003,-7.769935e-004
3.587007e+003,-2.563889e-004
3.588936e+003,-2.639485e-004
3.590864e+003,-3.857404e-004
3.592793e+003,-3.884971e-004
3.594721e+003,-1.319110e-004
3.596650e+003,7.332023e-005
3.598578e+003,3.631050e-004
3.600507e+003,7.459889e-004
3.602435e+003,8.386443e-004
3.604364e+003,8.535087e-004
3.606292e+003,7.765703e-004
3.608221e+003,6.219419e-004
3.610149e+003,5.219143e-004
3.612078e+003,4.383244e-004
3.614006e+003,3.944652e-004
3.615935e+003,7.782923e-005
3.617863e+003,-5.233148e-005
3.619792e+003,-9.772298e-005
3.621720e+003,-4.435115e-004
3.623649e+003,-5.706417e-004
3.625577e+003,-5.354516e-004
3.627506e+003,-4.476146e-005
3.629434e+003,4.196228e-004
3.631363e+003,-1.140526e-004
3.633291e+003,-3.721567e-004
3.635220e+003,-6.077104e-004
3.637148e+003,-7.205745e-004
3.639077e+003,-6.667668e-004
3.641005e+003,-3.695565e-004
3.642934e+003,-2.959222e-004
3.644862e+003,-3.011657e-004
3.646791e+003,1.799793e-004
3.648719e+003,5.094244e-004
3.650648e+003,2.884448e-004
3.652576e+003,-1.677258e-004
3.654505e+003,-4.521257e-004
3.656433e+003,-2.569874e-004
3.658362e+003,-4.181957e-004
3.660290e+003,-7.446635e-004
3.662219e+003,-9.660069e-004
3.664147e+003,-1.120493e-003
3.666076e+003,-1.224932e-003
3.668004e+003,-1.111181e-003
3.669933e+003,-5.273708e-004
3.671861e+003,-5.647225e-004
3.673790e+003,-4.541792e-004
3.675718e+003,-2.976651e-004
3.677647e+003,-8.253464e-004
3.679575e+003,-9.385928e-004
3.681504e+003,-9.375646e-004
3.683432e+003,-8.879208e-004
3.685361e+003,-8.388368e-004
3.687289e+003,-5.759225e-004
3.689218e+003,-3.343553e-004
3.691146e+003,-7.676707e-004
3.693075e+003,-9.668142e-004
3.695003e+003,-1.068494e-003
3.696932e+003,-1.158384e-003
3.698860e+003,-1.194896e-003
3.700789e+003,-1.027862e-003
3.702717e+003,-8.837248e-004
3.704646e+003,-1.037488e-003
3.706574e+003,-1.078326e-003
3.708503e+003,-8.590979e-004
3.710431e+003,-7.018874e-004
3.712360e+003,-7.516164e-004
3.714288e+003,-1.021158e-003
3.716217e+003,-1.401338e-003
3.718145e+003,-1.343263e-003
3.720074e+003,-1.060248e-003
3.722002e+003,-7.898544e-004
3.723931e+003,-8.160850e-004
3.725859e+003,-8.443224e-004
3.727788e+003,-9.949860e-004
3.729716e+003,-1.185123e-003
3.731645e+003,-1.139600e-003
3.733573e+003,-8.996326e-004
3.735502e+003,-2.934344e-004
3.737430e+003,-5.311810e-004
3.739359e+003,-9.425298e-004
3.741287e+003,-8.723210e-004
3.743216e+003,-5.921999e-004
3.745144e+003,6.269454e-005
3.747073e+003,-1.485716e-004
3.749001e+003,-1.907370e-004
3.750930e+003,2.225081e-004
3.752858e+003,1.463506e-004
3.754787e+003,-1.929174e-004
3.756715e+003,-2.183742e-004
3.758644e+003,-2.131800e-004
3.760572e+003,-3.180369e-004
3.762501e+003,-3.897916e-004
3.764429e+003,-1.671005e-004
3.766358e+003,-3.404643e-004
3.768286e+003,-5.599963e-004
3.770215e+003,-5.467222e-004
3.772143e+003,-6.351769e-004
3.774072e+003,-6.378354e-004
3.776000e+003,-5.044567e-004
3.777929e+003,-2.188748e-004
3.779857e+003,-1.601228e-004
3.781786e+003,-3.215468e-004
3.783714e+003,-3.053574e-004
3.785643e+003,-4.690201e-004
3.787571e+003,-5.553102e-004
3.789500e+003,-6.903375e-004
3.791428e+003,-6.826192e-004
3.793357e+003,-5.209839e-004
3.795285e+003,-5.971582e-004
3.797214e+003,-6.104251e-004
3.799142e+003,-5.271593e-004
3.801071e+003,9.543076e-005
3.802999e+003,1.113918e-004
3.804927e+003,-2.789847e-004
3.806856e+003,-1.106034e-004
3.808785e+003,-2.872332e-004
3.810713e+003,-4.220475e-004
3.812642e+003,-3.676186e-004
3.814570e+003,-2.861742e-004
3.816499e+003,7.616286e-005
3.818427e+003,1.461476e-004
3.820355e+003,4.893765e-004
3.822284e+003,5.724698e-004
3.824213e+003,3.038410e-004
3.826141e+003,2.247172e-004
3.828070e+003,-5.879393e-005
3.829998e+003,-1.053782e-004
3.831927e+003,2.295431e-004
3.833855e+003,3.036910e-004
3.835783e+003,4.364937e-004
3.837712e+003,6.600334e-004
3.839641e+003,4.734325e-004
3.841569e+003,1.082614e-004
3.843498e+003,-1.024734e-005
3.845426e+003,-6.221700e-006
3.847354e+003,1.525814e-004
3.849283e+003,3.458038e-004
3.851211e+003,5.999808e-004
3.853140e+003,9.674365e-004
3.855069e+003,5.602625e-004
3.856997e+003,3.103882e-004
3.858926e+003,1.093571e-004
3.860854e+003,2.153262e-004
3.862782e+003,5.315999e-004
3.864711e+003,8.114146e-004
3.866640e+003,3.880605e-004
3.868568e+003,2.212133e-004
3.870497e+003,6.577645e-004
3.872425e+003,4.768365e-004
3.874354e+003,4.052045e-004
3.876282e+003,4.380019e-004
3.878210e+003,3.653732e-004
3.880139e+003,4.896421e-004
3.882068e+003,5.760158e-004
3.883996e+003,5.551770e-004
3.885925e+003,6.477318e-004
3.887853e+003,3.099928e-004
3.889781e+003,3.238507e-004
3.891710e+003,4.186057e-004
3.893638e+003,3.353136e-004
3.895567e+003,4.103731e-004
3.897496e+003,5.863213e-004
3.899424e+003,9.006381e-004
3.901353e+003,9.377557e-004
3.903281e+003,8.649747e-004
3.905209e+003,7.302596e-004
3.907138e+003,3.999106e-004
3.909066e+003,3.409160e-004
3.910995e+003,5.071573e-004
3.912924e+003,4.958285e-004
3.914852e+003,5.524720e-004
3.916781e+003,7.359895e-004
3.918709e+003,6.972889e-004
3.920637e+003,5.527013e-004
3.922566e+003,5.130880e-004
3.924494e+003,6.875512e-004
3.926423e+003,6.652987e-004
3.928352e+003,5.640991e-004
3.930280e+003,4.592792e-004
3.932208e+003,4.427505e-004
3.934137e+003,2.778152e-004
3.936065e+003,4.203757e-005
3.937994e+003,-5.655969e-005
3.939922e+003,-9.862240e-005
3.941851e+003,1.448004e-004
3.943780e+003,2.774522e-004
3.945708e+003,2.324625e-004
3.947636e+003,3.080098e-004
3.949565e+003,2.624628e-004
3.951493e+003,1.275258e-004
3.953422e+003,1.024485e-004
3.955351e+003,1.502249e-004
3.957279e+003,2.033042e-004
3.959208e+003,2.494655e-004
3.961136e+003,2.688402e-004
3.963064e+003,2.230972e-004
3.964993e+003,1.655917e-004
3.966921e+003,2.575200e-004
3.968850e+003,3.150108e-004
3.970779e+003,2.869875e-004
3.972707e+003,2.651352e-004
3.974635e+003,3.167694e-004
3.976564e+003,3.500972e-004
3.978492e+003,3.629788e-004
3.980421e+003,3.524760e-004
3.982349e+003,4.124446e-004
3.984278e+003,3.856763e-004
3.986207e+003,2.924337e-004
3.988135e+003,2.424032e-004
3.990063e+003,2.548574e-004
3.991992e+003,1.213856e-004
3.993920e+003,1.457590e-005
3.995849e+003,2.467120e-005
3.997777e+003,3.384519e-005
3.999706e+003,8.020946e-005
4.001635e+003,0.000000e+000
