3.991992e+002,0.000000e+000
4.011277e+002,0.000000e+000
4.030562e+002,0.000000e+000
4.049846e+002,0.000000e+000
4.069131e+002,0.000000e+000
4.088416e+002,0.000000e+000
4.107701e+002,0.000000e+000
4.126986e+002,0.000000e+000
4.146271e+002,0.000000e+000
4.165556e+002,0.000000e+000
4.184841e+002,0.000000e+000
4.204126e+002,0.000000e+000
4.223411e+002,0.000000e+000
4.242697e+002,0.000000e+000
4.261982e+002,0.000000e+000
4.281266e+002,0.000000e+000
4.300551e+002,0.000000e+000
4.319836e+002,0.000000e+000
4.339121e+002,0.000000e+000
4.358406e+002,0.000000e+000
4.377691e+002,0.000000e+000
4.396976e+002,0.000000e+000
4.416261e+002,0.000000e+000
4.435546e+002,0.000000e+000
4.454831e+002,0.000000e+000
4.474116e+002,0.000000e+000
4.493401e+002,0.000000e+000
4.512686e+002,0.000000e+000
4.531971e+002,0.000000e+000
4.551256e+002,0.000000e+000
4.570541e+002,0.000000e+000
4.589826e+002,0.000000e+000
4.609111e+002,0.000000e+000
4.628396e+002,0.000000e+000
4.647681e+002,0.000000e+000
4.666966e+002,0.000000e+000
4.686251e+002,0.000000e+000
4.705536e+002,0.000000e+000
4.724821e+002,0.000000e+000
4.744106e+002,0.000000e+000
4.763391e+002,0.000000e+000
4.782676e+002,0.000000e+000
4.801961e+002,0.000000e+000
4.821246e+002,0.000000e+000
4.840531e+002,0.000000e+000
4.859816e+002,0.000000e+000
4.879101e+002,0.000000e+000
4.898386e+002,0.000000e+000
4.917671e+002,0.000000e+000
4.936956e+002,0.000000e+000
4.956241e+002,0.000000e+000
4.975526e+002,0.000000e+000
4.994811e+002,0.000000e+000
5.014096e+002,0.000000e+000
5.033381e+002,0.000000e+000
5.052666e+002,0.000000e+000
5.071951e+002,0.000000e+000
5.091236e+002,0.000000e+000
5.110521e+002,0.000000e+000
5.129806e+002,0.000000e+000
5.149091e+002,0.000000e+000
5.168376e+002,0.000000e+000
5.187661e+002,0.000000e+000
5.206946e+002,0.000000e+000
5.226230e+002,0.000000e+000
5.245516e+002,-6.219829e-004
5.264800e+002,-6.169081e-004
5.284086e+002,-8.216277e-004
5.303370e+002,-8.150656e-004
5.322656e+002,-5.775345e-004
5.341940e+002,-5.471744e-004
5.361226e+002,-5.406393e-004
5.380510e+002,-4.947064e-004
5.399796e+002,-5.803779e-004
5.419081e+002,-5.791485e-004
5.438365e+002,-4.366701e-004
5.457650e+002,-4.177867e-004
5.476935e+002,-3.896607e-004
5.496221e+002,-3.338167e-004
5.515505e+002,-2.703574e-004
5.534790e+002,-2.468303e-004
5.554075e+002,-1.059249e-004
5.573361e+002,-1.612082e-004
5.592645e+002,-2.846494e-004
5.611931e+002,-2.702745e-004
5.631215e+002,-1.480887e-004
5.650500e+002,-1.148488e-004
5.669785e+002,-1.066327e-004
5.689070e+002,-1.480570e-004
5.708355e+002,-1.151236e-004
5.727640e+002,-2.554804e-005
5.746925e+002,3.890414e-005
5.766210e+002,7.613469e-005
5.785495e+002,1.937114e-004
5.804780e+002,2.468321e-004
5.824065e+002,3.266521e-004
5.843350e+002,3.420888e-004
5.862635e+002,4.268857e-004
5.881920e+002,4.728455e-004
5.901205e+002,4.644068e-004
5.920490e+002,3.179107e-004
5.939775e+002,3.393199e-004
5.959060e+002,3.799507e-004
5.978345e+002,4.265010e-004
5.997630e+002,5.269507e-004
6.016915e+002,7.136827e-004
6.036200e+002,8.169180e-004
6.055485e+002,8.229269e-004
6.074770e+002,7.633902e-004
6.094055e+002,8.053863e-004
6.113340e+002,8.457256e-004
6.132625e+002,7.938389e-004
6.151910e+002,6.464850e-004
6.171195e+002,6.098254e-004
6.190480e+002,7.820791e-004
6.209765e+002,9.979755e-004
6.229050e+002,9.135315e-004
6.248335e+002,9.150533e-004
6.267620e+002,9.513833e-004
6.286905e+002,1.043295e-003
6.306190e+002,1.133739e-003
6.325475e+002,1.242097e-003
6.344760e+002,1.345520e-003
6.364045e+002,1.458691e-003
6.383330e+002,1.513141e-003
6.402615e+002,1.524814e-003
6.421899e+002,1.485125e-003
6.441185e+002,1.620311e-003
6.460470e+002,1.735399e-003
6.479755e+002,1.769578e-003
6.499039e+002,1.748047e-003
6.518325e+002,1.851354e-003
6.537610e+002,1.892323e-003
6.556895e+002,1.974874e-003
6.576179e+002,2.097135e-003
6.595464e+002,2.329293e-003
6.614750e+002,2.396301e-003
6.634034e+002,2.494031e-003
6.653319e+002,2.545498e-003
6.672604e+002,2.722080e-003
6.691890e+002,2.981195e-003
6.711174e+002,3.290433e-003
6.730460e+002,3.437546e-003
6.749745e+002,3.620032e-003
6.769030e+002,3.867686e-003
6.788314e+002,4.277704e-003
6.807599e+002,4.578858e-003
6.826885e+002,4.949236e-003
6.846169e+002,5.260200e-003
6.865454e+002,5.609582e-003
6.884739e+002,5.899197e-003
6.904025e+002,6.327353e-003
6.923309e+002,6.777051e-003
6.942594e+002,7.382415e-003
6.961879e+002,7.918755e-003
6.981165e+002,8.704449e-003
7.000449e+002,9.582574e-003
7.019734e+002,1.075702e-002
7.039019e+002,1.220141e-002
7.058304e+002,1.423255e-002
7.077589e+002,1.689356e-002
7.096874e+002,2.105142e-002
7.116159e+002,2.769475e-002
7.135444e+002,4.049468e-002
7.154729e+002,6.417399e-002
7.174014e+002,9.844245e-002
7.193299e+002,1.085892e-001
7.212584e+002,7.303360e-002
7.231869e+002,4.452112e-002
7.251154e+002,3.750240e-002
7.270439e+002,4.520021e-002
7.289724e+002,6.652725e-002
7.309009e+002,6.913847e-002
7.328294e+002,3.987708e-002
7.347579e+002,1.853601e-002
7.366864e+002,1.120791e-002
7.386149e+002,8.497875e-003
7.405434e+002,6.986205e-003
7.424719e+002,6.062148e-003
7.444004e+002,5.248335e-003
7.463289e+002,4.795332e-003
7.482574e+002,4.381979e-003
7.501859e+002,4.100518e-003
7.521144e+002,3.733058e-003
7.540428e+002,3.454418e-003
7.559714e+002,3.229959e-003
7.578999e+002,3.196477e-003
7.598284e+002,3.112189e-003
7.617568e+002,3.050109e-003
7.636854e+002,3.009070e-003
7.656139e+002,3.033154e-003
7.675424e+002,2.923627e-003
7.694709e+002,2.795111e-003
7.713994e+002,2.611674e-003
7.733279e+002,2.448023e-003
7.752563e+002,2.378196e-003
7.771849e+002,2.395449e-003
7.791134e+002,2.331069e-003
7.810419e+002,2.279554e-003
7.829703e+002,2.225002e-003
7.848989e+002,2.214987e-003
7.868274e+002,2.213988e-003
7.887559e+002,2.255926e-003
7.906843e+002,2.262739e-003
7.926129e+002,2.273403e-003
7.945414e+002,2.303516e-003
7.964698e+002,2.361052e-003
7.983983e+002,2.466453e-003
8.003268e+002,2.567286e-003
8.022554e+002,2.578162e-003
8.041838e+002,2.552053e-003
8.061123e+002,2.544468e-003
8.080408e+002,2.571683e-003
8.099694e+002,2.631724e-003
8.118978e+002,2.713224e-003
8.138263e+002,2.768716e-003
8.157548e+002,2.772968e-003
8.176833e+002,2.739597e-003
8.196118e+002,2.765417e-003
8.215403e+002,2.820864e-003
8.234689e+002,2.881005e-003
8.253973e+002,2.890151e-003
8.273258e+002,2.930613e-003
8.292543e+002,2.983965e-003
8.311829e+002,3.039438e-003
8.331113e+002,3.100865e-003
8.350398e+002,3.178639e-003
8.369683e+002,3.218962e-003
8.388969e+002,3.281573e-003
8.408253e+002,3.399914e-003
8.427538e+002,3.474316e-003
8.446823e+002,3.495649e-003
8.466108e+002,3.565887e-003
8.485393e+002,3.658604e-003
8.504678e+002,3.721206e-003
8.523963e+002,3.761681e-003
8.543248e+002,3.799248e-003
8.562533e+002,3.796700e-003
8.581818e+002,3.773080e-003
8.601103e+002,3.811998e-003
8.620388e+002,3.827076e-003
8.639673e+002,3.865287e-003
8.658958e+002,3.954073e-003
8.678243e+002,3.947020e-003
8.697528e+002,3.923202e-003
8.716813e+002,4.005836e-003
8.736098e+002,4.030708e-003
8.755383e+002,4.050096e-003
8.774668e+002,4.105171e-003
8.793953e+002,4.137134e-003
8.813238e+002,4.163973e-003
8.832523e+002,4.325585e-003
8.851808e+002,4.440701e-003
8.871093e+002,4.506437e-003
8.890378e+002,4.560826e-003
8.909663e+002,4.603179e-003
8.928948e+002,4.630513e-003
8.948232e+002,4.809504e-003
8.967518e+002,4.911035e-003
8.986803e+002,4.950069e-003
9.006088e+002,5.037483e-003
9.025372e+002,5.322684e-003
9.044658e+002,6.032161e-003
9.063943e+002,7.098148e-003
9.083228e+002,7.671028e-003
9.102512e+002,7.122936e-003
9.121797e+002,6.146155e-003
9.141083e+002,5.478380e-003
9.160367e+002,5.108813e-003
9.179653e+002,4.867084e-003
9.198937e+002,4.774388e-003
9.218223e+002,4.764963e-003
9.237507e+002,4.741646e-003
9.256793e+002,4.767163e-003
9.276077e+002,4.812410e-003
9.295363e+002,4.870491e-003
9.314647e+002,4.928555e-003
9.333932e+002,5.036075e-003
9.353217e+002,5.173888e-003
9.372502e+002,5.316906e-003
9.391787e+002,5.485564e-003
9.411072e+002,5.629802e-003
9.430358e+002,5.700679e-003
9.449642e+002,5.847625e-003
9.468928e+002,6.019512e-003
9.488212e+002,6.195491e-003
9.507498e+002,6.322730e-003
9.526782e+002,6.507808e-003
9.546068e+002,6.754838e-003
9.565352e+002,7.137563e-003
9.584637e+002,7.486068e-003
9.603922e+002,7.752148e-003
9.623207e+002,7.941268e-003
9.642492e+002,8.108767e-003
9.661777e+002,8.239409e-003
9.681062e+002,8.346863e-003
9.700347e+002,8.281453e-003
9.719632e+002,8.088043e-003
9.738917e+002,7.891564e-003
9.758202e+002,7.743187e-003
9.777487e+002,7.659489e-003
9.796772e+002,7.600028e-003
9.816057e+002,7.546306e-003
9.835342e+002,7.600360e-003
9.854627e+002,7.763239e-003
9.873912e+002,7.984329e-003
9.893197e+002,8.134121e-003
9.912482e+002,8.146215e-003
9.931767e+002,8.038511e-003
9.951052e+002,7.917192e-003
9.970337e+002,7.818824e-003
9.989622e+002,7.796228e-003
1.000891e+003,7.783929e-003
1.002819e+003,7.787425e-003
1.004748e+003,7.901413e-003
1.006676e+003,8.043725e-003
1.008605e+003,8.166924e-003
1.010533e+003,8.364577e-003
1.012462e+003,8.542951e-003
1.014390e+003,8.725613e-003
1.016319e+003,8.847162e-003
1.018247e+003,8.894030e-003
1.020176e+003,8.939981e-003
1.022104e+003,9.179084e-003
1.024033e+003,9.397928e-003
1.025961e+003,9.566518e-003
1.027890e+003,9.686409e-003
1.029818e+003,9.865087e-003
1.031747e+003,9.982780e-003
1.033675e+003,9.994306e-003
1.035604e+003,9.977253e-003
1.037532e+003,1.002682e-002
1.039461e+003,1.004215e-002
1.041389e+003,1.009366e-002
1.043318e+003,1.015951e-002
1.045246e+003,1.028239e-002
1.047175e+003,1.053647e-002
1.049103e+003,1.097737e-002
1.051032e+003,1.128937e-002
1.052960e+003,1.138120e-002
1.054889e+003,1.152540e-002
1.056817e+003,1.176217e-002
1.058746e+003,1.195981e-002
1.060674e+003,1.214058e-002
1.062603e+003,1.226551e-002
1.064531e+003,1.240816e-002
1.066460e+003,1.254847e-002
1.068388e+003,1.267359e-002
1.070317e+003,1.290102e-002
1.072245e+003,1.340948e-002
1.074174e+003,1.411597e-002
1.076102e+003,1.503346e-002
1.078031e+003,1.609079e-002
1.079959e+003,1.716193e-002
1.081888e+003,1.794825e-002
1.083816e+003,1.839934e-002
1.085745e+003,1.868030e-002
1.087673e+003,1.905471e-002
1.089602e+003,1.955786e-002
1.091530e+003,2.011254e-002
1.093459e+003,2.047116e-002
1.095387e+003,2.056986e-002
1.097316e+003,2.031045e-002
1.099244e+003,1.990115e-002
1.101173e+003,1.946028e-002
1.103101e+003,1.909527e-002
1.105030e+003,1.880398e-002
1.106958e+003,1.869386e-002
1.108887e+003,1.881919e-002
1.110815e+003,1.919932e-002
1.112744e+003,1.977816e-002
1.114672e+003,2.044174e-002
1.116601e+003,2.101086e-002
1.118529e+003,2.135782e-002
1.120458e+003,2.128006e-002
1.122386e+003,2.082802e-002
1.124315e+003,2.009783e-002
1.126243e+003,1.946744e-002
1.128172e+003,1.927854e-002
1.130100e+003,1.975075e-002
1.132029e+003,2.084472e-002
1.133957e+003,2.244266e-002
1.135885e+003,2.431280e-002
1.137814e+003,2.625765e-002
1.139743e+003,2.796891e-002
1.141671e+003,2.934373e-002
1.143600e+003,3.036561e-002
1.145528e+003,3.117924e-002
1.147457e+003,3.194296e-002
1.149385e+003,3.291864e-002
1.151314e+003,3.401732e-002
1.153242e+003,3.511853e-002
1.155171e+003,3.611639e-002
1.157099e+003,3.707448e-002
1.159028e+003,3.787319e-002
1.160956e+003,3.832943e-002
1.162885e+003,3.840717e-002
1.164813e+003,3.814559e-002
1.166742e+003,3.755327e-002
1.168670e+003,3.669870e-002
1.170599e+003,3.561887e-002
1.172527e+003,3.447738e-002
1.174456e+003,3.341078e-002
1.176384e+003,3.233358e-002
1.178313e+003,3.105707e-002
1.180241e+003,2.991293e-002
1.182170e+003,2.893656e-002
1.184098e+003,2.806524e-002
1.186027e+003,2.724043e-002
1.187955e+003,2.644737e-002
1.189884e+003,2.557126e-002
1.191812e+003,2.468852e-002
1.193740e+003,2.380347e-002
1.195669e+003,2.296891e-002
1.197598e+003,2.222337e-002
1.199526e+003,2.165232e-002
1.201455e+003,2.122705e-002
1.203383e+003,2.101625e-002
1.205312e+003,2.091211e-002
1.207240e+003,2.092958e-002
1.209168e+003,2.088550e-002
1.211097e+003,2.078154e-002
1.213026e+003,2.063242e-002
1.214954e+003,2.053520e-002
1.216883e+003,2.052261e-002
1.218811e+003,2.065496e-002
1.220740e+003,2.085757e-002
1.222668e+003,2.118952e-002
1.224596e+003,2.155410e-002
1.226525e+003,2.193077e-002
1.228453e+003,2.231436e-002
1.230382e+003,2.270303e-002
1.232311e+003,2.299194e-002
1.234239e+003,2.324869e-002
1.236167e+003,2.344545e-002
1.238096e+003,2.350305e-002
1.240025e+003,2.332445e-002
1.241953e+003,2.299159e-002
1.243882e+003,2.239651e-002
1.245810e+003,2.160067e-002
1.247739e+003,2.073956e-002
1.249667e+003,1.998580e-002
1.251595e+003,1.933985e-002
1.253524e+003,1.884397e-002
1.255453e+003,1.840876e-002
1.257381e+003,1.802559e-002
1.259310e+003,1.750618e-002
1.261238e+003,1.683892e-002
1.263167e+003,1.608096e-002
1.265095e+003,1.544104e-002
1.267023e+003,1.500422e-002
1.268952e+003,1.491089e-002
1.270880e+003,1.498172e-002
1.272809e+003,1.515021e-002
1.274738e+003,1.536165e-002
1.276666e+003,1.564985e-002
1.278594e+003,1.581452e-002
1.280523e+003,1.581499e-002
1.282451e+003,1.556364e-002
1.284380e+003,1.516718e-002
1.286308e+003,1.480384e-002
1.288237e+003,1.469225e-002
1.290166e+003,1.467024e-002
1.292094e+003,1.478507e-002
1.294022e+003,1.494563e-002
1.295951e+003,1.515693e-002
1.297879e+003,1.526599e-002
1.299808e+003,1.533917e-002
1.301736e+003,1.531002e-002
1.303665e+003,1.525383e-002
1.305594e+003,1.512516e-002
1.307522e+003,1.504392e-002
1.309450e+003,1.491230e-002
1.311379e+003,1.483540e-002
1.313307e+003,1.464395e-002
1.315236e+003,1.439891e-002
1.317164e+003,1.413529e-002
1.319093e+003,1.386154e-002
1.321021e+003,1.339292e-002
1.322950e+003,1.298897e-002
1.324878e+003,1.258436e-002
1.326807e+003,1.223315e-002
1.328735e+003,1.193231e-002
1.330664e+003,1.185946e-002
1.332592e+003,1.193038e-002
1.334521e+003,1.227539e-002
1.336449e+003,1.285126e-002
1.338378e+003,1.371846e-002
1.340306e+003,1.430269e-002
1.342235e+003,1.450502e-002
1.344163e+003,1.487783e-002
1.346092e+003,1.548623e-002
1.348021e+003,1.608816e-002
1.349949e+003,1.657742e-002
1.351877e+003,1.680477e-002
1.353806e+003,1.694331e-002
1.355734e+003,1.687072e-002
1.357663e+003,1.691668e-002
1.359591e+003,1.730912e-002
1.361520e+003,1.822319e-002
1.363448e+003,1.882026e-002
1.365377e+003,1.895700e-002
1.367305e+003,1.919737e-002
1.369234e+003,1.901833e-002
1.371162e+003,1.846065e-002
1.373091e+003,1.832044e-002
1.375019e+003,1.832856e-002
1.376948e+003,1.811280e-002
1.378876e+003,1.699063e-002
1.380805e+003,1.507259e-002
1.382733e+003,1.327091e-002
1.384662e+003,1.228208e-002
1.386590e+003,1.174697e-002
1.388519e+003,1.098113e-002
1.390447e+003,1.030229e-002
1.392376e+003,1.024619e-002
1.394304e+003,1.052025e-002
1.396233e+003,1.075388e-002
1.398161e+003,1.082654e-002
1.400090e+003,1.088249e-002
1.402018e+003,1.074191e-002
1.403947e+003,1.088055e-002
1.405875e+003,1.037699e-002
1.407804e+003,1.007521e-002
1.409732e+003,1.033814e-002
1.411661e+003,1.118281e-002
1.413589e+003,1.200575e-002
1.415518e+003,1.315184e-002
1.417446e+003,1.407057e-002
1.419375e+003,1.435484e-002
1.421303e+003,1.375991e-002
1.423232e+003,1.411043e-002
1.425160e+003,1.459572e-002
1.427089e+003,1.575654e-002
1.429017e+003,1.773082e-002
1.430946e+003,2.040772e-002
1.432874e+003,2.248641e-002
1.434803e+003,2.468597e-002
1.436731e+003,2.710754e-002
1.438660e+003,2.862724e-002
1.440588e+003,2.946772e-002
1.442517e+003,3.084526e-002
1.444445e+003,3.198292e-002
1.446374e+003,3.370609e-002
1.448302e+003,3.611795e-002
1.450231e+003,3.965066e-002
1.452159e+003,4.526119e-002
1.454088e+003,5.277558e-002
1.456016e+003,6.206786e-002
1.457945e+003,9.046535e-002
1.459873e+003,1.405804e-001
1.461802e+003,1.753879e-001
1.463730e+003,1.530054e-001
1.465659e+003,1.046395e-001
1.467587e+003,9.640937e-002
1.469516e+003,1.024687e-001
1.471444e+003,1.291447e-001
1.473373e+003,1.222994e-001
1.475301e+003,6.575272e-002
1.477230e+003,2.784862e-002
1.479158e+003,1.699798e-002
1.481087e+003,1.250548e-002
1.483015e+003,1.035235e-002
1.484944e+003,8.986667e-003
1.486872e+003,9.090882e-003
1.488801e+003,8.751176e-003
1.490729e+003,8.463074e-003
1.492658e+003,7.200507e-003
1.494586e+003,7.300794e-003
1.496515e+003,7.008113e-003
1.498443e+003,6.850820e-003
1.500372e+003,5.846754e-003
1.502300e+003,5.443875e-003
1.504229e+003,5.159453e-003
1.506157e+003,6.998584e-003
1.508086e+003,6.623805e-003
1.510014e+003,5.697748e-003
1.511943e+003,4.835695e-003
1.513871e+003,4.830450e-003
1.515800e+003,5.049963e-003
1.517728e+003,5.213426e-003
1.519657e+003,5.219556e-003
1.521585e+003,6.128652e-003
1.523514e+003,5.256861e-003
1.525442e+003,5.271373e-003
1.527371e+003,4.686285e-003
1.529299e+003,4.286783e-003
1.531228e+003,4.204622e-003
1.533156e+003,4.831880e-003
1.535085e+003,4.125271e-003
1.537013e+003,4.171560e-003
1.538942e+003,5.054353e-003
1.540870e+003,6.307857e-003
1.542799e+003,5.400816e-003
1.544727e+003,4.932711e-003
1.546656e+003,3.873175e-003
1.548584e+003,3.992779e-003
1.550513e+003,3.940711e-003
1.552441e+003,3.886223e-003
1.554370e+003,3.987717e-003
1.556298e+003,4.419390e-003
1.558227e+003,5.640902e-003
1.560155e+003,4.776590e-003
1.562084e+003,3.585732e-003
1.564012e+003,3.495909e-003
1.565941e+003,3.240880e-003
1.567869e+003,3.509363e-003
1.569798e+003,3.594305e-003
1.571726e+003,3.113339e-003
1.573655e+003,3.035301e-003
1.575583e+003,3.631560e-003
1.577512e+003,3.391258e-003
1.579440e+003,3.070176e-003
1.581369e+003,2.965182e-003
1.583297e+003,3.106404e-003
1.585226e+003,3.118344e-003
1.587154e+003,3.136043e-003
1.589083e+003,3.111335e-003
1.591011e+003,3.190599e-003
1.592940e+003,3.189743e-003
1.594868e+003,3.327545e-003
1.596797e+003,3.181979e-003
1.598725e+003,3.150219e-003
1.600654e+003,3.245061e-003
1.602582e+003,3.356701e-003
1.604511e+003,3.209861e-003
1.606439e+003,3.334582e-003
1.608368e+003,3.368592e-003
1.610296e+003,3.298832e-003
1.612225e+003,3.153283e-003
1.614153e+003,3.454937e-003
1.616082e+003,4.035452e-003
1.618010e+003,3.953805e-003
1.619939e+003,3.702734e-003
1.621867e+003,4.052009e-003
1.623796e+003,4.057487e-003
1.625724e+003,3.985684e-003
1.627653e+003,4.118700e-003
1.629581e+003,3.943887e-003
1.631510e+003,3.833165e-003
1.633438e+003,4.255297e-003
1.635367e+003,5.275730e-003
1.637295e+003,5.451702e-003
1.639224e+003,5.060218e-003
1.641152e+003,4.909430e-003
1.643081e+003,4.872104e-003
1.645009e+003,5.516315e-003
1.646938e+003,6.457603e-003
1.648866e+003,5.850412e-003
1.650795e+003,5.705399e-003
1.652723e+003,6.966176e-003
1.654652e+003,6.407386e-003
1.656580e+003,5.545912e-003
1.658509e+003,4.946938e-003
1.660437e+003,4.899286e-003
1.662366e+003,5.012907e-003
1.664294e+003,4.665466e-003
1.666223e+003,4.540998e-003
1.668151e+003,5.033506e-003
1.670080e+003,5.284086e-003
1.672008e+003,4.855683e-003
1.673937e+003,4.843701e-003
1.675865e+003,4.887613e-003
1.677794e+003,4.730845e-003
1.679722e+003,5.012015e-003
1.681651e+003,5.206842e-003
1.683579e+003,5.983155e-003
1.685508e+003,5.674060e-003
1.687436e+003,5.589481e-003
1.689365e+003,5.500617e-003
1.691293e+003,5.368505e-003
1.693222e+003,5.567793e-003
1.695150e+003,6.568996e-003
1.697079e+003,7.461153e-003
1.699007e+003,8.075561e-003
1.700936e+003,8.302141e-003
1.702864e+003,8.470533e-003
1.704793e+003,9.134963e-003
1.706721e+003,9.616528e-003
1.708650e+003,9.867642e-003
1.710578e+003,1.038156e-002
1.712507e+003,1.110966e-002
1.714435e+003,1.242666e-002
1.716364e+003,1.398038e-002
1.718292e+003,1.500643e-002
1.720221e+003,1.517240e-002
1.722149e+003,1.600764e-002
1.724078e+003,1.748741e-002
1.726006e+003,1.949273e-002
1.727935e+003,2.274491e-002
1.729863e+003,2.802039e-002
1.731792e+003,3.350376e-002
1.733720e+003,4.301803e-002
1.735649e+003,5.439396e-002
1.737577e+003,6.065442e-002
1.739506e+003,7.121868e-002
1.741434e+003,8.038193e-002
1.743363e+003,8.633733e-002
1.745291e+003,8.858210e-002
1.747220e+003,8.692002e-002
1.749148e+003,7.991980e-002
1.751077e+003,6.819244e-002
1.753005e+003,5.520523e-002
1.754934e+003,4.572490e-002
1.756862e+003,3.446094e-002
1.758791e+003,2.558994e-002
1.760719e+003,1.988201e-002
1.762648e+003,1.406162e-002
1.764576e+003,1.056737e-002
1.766505e+003,8.645477e-003
1.768433e+003,7.048374e-003
1.770362e+003,6.373622e-003
1.772290e+003,5.776592e-003
1.774219e+003,4.673224e-003
1.776147e+003,4.013151e-003
1.778076e+003,3.510164e-003
1.780004e+003,3.361940e-003
1.781933e+003,2.849495e-003
1.783861e+003,2.687735e-003
1.785790e+003,2.371041e-003
1.787718e+003,2.126072e-003
1.789646e+003,2.242375e-003
1.791575e+003,2.618000e-003
1.793504e+003,2.318608e-003
1.795432e+003,2.073962e-003
1.797361e+003,1.753671e-003
1.799289e+003,1.746710e-003
1.801218e+003,1.791470e-003
1.803146e+003,1.489228e-003
1.805074e+003,1.075935e-003
1.807003e+003,1.068303e-003
1.808932e+003,1.075512e-003
1.810860e+003,1.155404e-003
1.812789e+003,7.570311e-004
1.814717e+003,3.612712e-004
1.816646e+003,1.821779e-004
1.818574e+003,4.176814e-004
1.820502e+003,4.528221e-004
1.822431e+003,6.332342e-004
1.824360e+003,7.413905e-004
1.826288e+003,5.465187e-004
1.828217e+003,6.252527e-004
1.830145e+003,6.671660e-004
1.832073e+003,7.200614e-005
1.834002e+003,-3.768504e-005
1.835931e+003,-2.060477e-004
1.837859e+003,-1.864545e-004
1.839788e+003,-3.059451e-004
1.841716e+003,-5.049631e-005
1.843645e+003,2.149660e-004
1.845573e+003,1.924578e-004
1.847501e+003,-1.245569e-004
1.849430e+003,-1.608655e-004
1.851359e+003,-3.697164e-004
1.853287e+003,-3.578383e-004
1.855216e+003,-4.465710e-004
1.857144e+003,-3.152378e-004
1.859073e+003,-4.193522e-004
1.861001e+003,-3.008209e-004
1.862929e+003,-5.318951e-004
1.864858e+003,-6.270763e-004
1.866787e+003,-3.281776e-004
1.868715e+003,3.377814e-004
1.870644e+003,-1.378767e-004
1.872572e+003,-4.334040e-004
1.874500e+003,-5.785022e-004
1.876429e+003,-4.216023e-004
1.878357e+003,-4.953984e-004
1.880286e+003,-4.004389e-004
1.882215e+003,-5.622804e-004
1.884143e+003,-4.692432e-004
1.886072e+003,-3.769938e-004
1.888000e+003,1.388825e-004
1.889928e+003,1.386311e-004
1.891857e+003,1.686569e-004
1.893785e+003,3.748666e-004
1.895714e+003,4.954319e-004
1.897643e+003,-4.185736e-005
1.899571e+003,-3.042817e-004
1.901500e+003,-3.015399e-004
1.903428e+003,-2.987999e-004
1.905356e+003,-2.960693e-004
1.907285e+003,-2.933387e-004
1.909213e+003,-2.906155e-004
1.911142e+003,-2.878960e-004
1.913071e+003,-2.851821e-004
1.914999e+003,-2.824683e-004
1.916927e+003,-2.797637e-004
1.918856e+003,-2.770629e-004
1.920784e+003,-2.743676e-004
1.922713e+003,-2.716742e-004
1.924641e+003,-2.689883e-004
1.926570e+003,-2.663024e-004
1.928499e+003,-2.636258e-004
1.930427e+003,-2.609510e-004
1.932355e+003,-2.582837e-004
1.934284e+003,-2.556164e-004
1.936212e+003,-2.529584e-004
1.938141e+003,-2.503023e-004
1.940070e+003,-2.476517e-004
1.941998e+003,-2.450049e-004
1.943927e+003,-2.423655e-004
1.945855e+003,-2.397280e-004
1.947783e+003,-2.370924e-004
1.949712e+003,-2.344660e-004
1.951640e+003,-2.318416e-004
1.953569e+003,-2.292246e-004
1.955498e+003,-2.266113e-004
1.957426e+003,-2.239998e-004
1.959354e+003,-2.213940e-004
1.961283e+003,-2.187937e-004
1.963211e+003,-2.161991e-004
1.965140e+003,-2.136063e-004
1.967068e+003,-2.110228e-004
1.968997e+003,-2.084412e-004
1.970926e+003,-2.058595e-004
1.972854e+003,-2.032891e-004
1.974782e+003,-2.007205e-004
1.976711e+003,-1.981594e-004
1.978639e+003,-1.956001e-004
1.980568e+003,-1.930445e-004
1.982496e+003,-1.904964e-004
1.984425e+003,-1.879465e-004
1.986354e+003,-1.854058e-004
1.988282e+003,-1.828708e-004
1.990210e+003,-1.803394e-004
1.992139e+003,-1.778118e-004
1.994067e+003,-1.752917e-004
1.995996e+003,-1.727715e-004
1.997924e+003,-1.702588e-004
1.999853e+003,-1.677498e-004
2.001781e+003,-1.652464e-004
2.003710e+003,-1.627468e-004
2.005638e+003,-1.602508e-004
2.007567e+003,-1.577586e-004
2.009495e+003,-1.552738e-004
2.011424e+003,-1.527946e-004
2.013352e+003,-1.503155e-004
2.015281e+003,-1.478456e-004
2.017209e+003,-1.453795e-004
2.019138e+003,-1.429170e-004
2.021066e+003,-1.404546e-004
2.022995e+003,-1.380034e-004
2.024923e+003,-1.355521e-004
2.026852e+003,-1.331083e-004
2.028781e+003,-1.306683e-004
2.030709e+003,-1.282338e-004
2.032637e+003,-1.258012e-004
2.034566e+003,-1.233760e-004
2.036494e+003,-1.209527e-004
2.038423e+003,-1.185369e-004
2.040351e+003,-1.161247e-004
2.042280e+003,-1.137163e-004
2.044208e+003,-1.113117e-004
2.046137e+003,-1.089144e-004
2.048065e+003,-1.065228e-004
2.049994e+003,-1.041312e-004
2.051922e+003,-1.017470e-004
2.053851e+003,-9.936467e-005
2.055779e+003,-9.698793e-005
2.057708e+003,-9.461679e-005
2.059636e+003,-9.225309e-005
2.061565e+003,-8.988939e-005
2.063493e+003,-8.753315e-005
2.065422e+003,-8.518063e-005
2.067350e+003,-8.283369e-005
2.069279e+003,-8.048490e-005
2.071207e+003,-7.814728e-005
2.073136e+003,-7.581338e-005
2.075064e+003,-7.348508e-005
2.076993e+003,-7.115863e-005
2.078921e+003,-6.883964e-005
2.080850e+003,-6.652251e-005
2.082778e+003,-6.421283e-005
2.084707e+003,-6.190315e-005
2.086635e+003,-5.960092e-005
2.088564e+003,-5.730242e-005
2.090492e+003,-5.500950e-005
2.092421e+003,-5.272217e-005
2.094349e+003,-5.043857e-005
2.096278e+003,-4.815869e-005
2.098206e+003,-4.588068e-005
2.100135e+003,-4.361197e-005
2.102063e+003,-4.134700e-005
2.103992e+003,-3.908575e-005
2.105920e+003,-3.683008e-005
2.107849e+003,-3.457814e-005
2.109777e+003,-3.232993e-005
2.111706e+003,-3.008731e-005
2.113634e+003,-2.784654e-005
2.115563e+003,-2.561323e-005
2.117491e+003,-2.338365e-005
2.119420e+003,-2.115965e-005
2.121348e+003,-1.894124e-005
2.123277e+003,-1.672469e-005
2.125205e+003,-1.451373e-005
2.127134e+003,-1.230836e-005
2.129062e+003,-1.010485e-005
2.130991e+003,-7.908791e-006
2.132919e+003,-5.718321e-006
2.134848e+003,-3.529713e-006
2.136776e+003,-1.344830e-006
2.138705e+003,8.344650e-007
2.140633e+003,3.006309e-006
2.142562e+003,5.178154e-006
2.144490e+003,7.340685e-006
2.146419e+003,9.501353e-006
2.148347e+003,1.166016e-005
2.150276e+003,1.380965e-005
2.152204e+003,1.595542e-005
2.154133e+003,1.809746e-005
2.156061e+003,2.023764e-005
2.157990e+003,2.237037e-005
2.159918e+003,2.449751e-005
2.161847e+003,2.662092e-005
2.163775e+003,2.873875e-005
2.165704e+003,3.085285e-005
2.167632e+003,3.296323e-005
2.169561e+003,3.506802e-005
2.171489e+003,3.716722e-005
2.173418e+003,3.926829e-005
2.175346e+003,4.135817e-005
2.177275e+003,4.344434e-005
2.179203e+003,4.552677e-005
2.181132e+003,4.760548e-005
2.183060e+003,4.967675e-005
2.184989e+003,5.174428e-005
2.186917e+003,5.381182e-005
2.188846e+003,5.587190e-005
2.190774e+003,5.792454e-005
2.192703e+003,5.997531e-005
2.194631e+003,6.202050e-005
2.196560e+003,6.406009e-005
2.198488e+003,6.609969e-005
2.200417e+003,6.813183e-005
2.202345e+003,7.016025e-005
2.204274e+003,7.218122e-005
2.206202e+003,7.420219e-005
2.208131e+003,7.621385e-005
2.210059e+003,7.822178e-005
2.211988e+003,8.022599e-005
2.213916e+003,8.222647e-005
2.215845e+003,8.422136e-005
2.217773e+003,8.621253e-005
2.219702e+003,8.819997e-005
2.221630e+003,9.017996e-005
2.223559e+003,9.215809e-005
2.225487e+003,9.413250e-005
2.227416e+003,9.609759e-005
2.229344e+003,9.806082e-005
2.231273e+003,1.000222e-004
2.233201e+003,1.019761e-004
2.235130e+003,1.039226e-004
2.237058e+003,1.058690e-004
2.238987e+003,1.078099e-004
2.240915e+003,1.097452e-004
2.242844e+003,1.116768e-004
2.244772e+003,1.136027e-004
2.246701e+003,1.155250e-004
2.248629e+003,1.174416e-004
2.250558e+003,1.193564e-004
2.252486e+003,1.212638e-004
2.254415e+003,1.231674e-004
2.256343e+003,1.250673e-004
2.258272e+003,1.269598e-004
2.260200e+003,1.288485e-004
2.262129e+003,1.307372e-004
2.264057e+003,1.326185e-004
2.265986e+003,1.344942e-004
2.267914e+003,1.363643e-004
2.269843e+003,1.382306e-004
2.271771e+003,1.400933e-004
2.273700e+003,1.419485e-004
2.275628e+003,1.438074e-004
2.277557e+003,1.456551e-004
2.279485e+003,1.474991e-004
2.281414e+003,1.493376e-004
2.283342e+003,1.511723e-004
2.285271e+003,1.530014e-004
2.287199e+003,1.548268e-004
2.289128e+003,1.566503e-004
2.291056e+003,1.584664e-004
2.292985e+003,1.602769e-004
2.294913e+003,1.620855e-004
2.296842e+003,1.638886e-004
2.298770e+003,1.656860e-004
2.300699e+003,1.674797e-004
2.302627e+003,1.692697e-004
2.304556e+003,1.710560e-004
2.306484e+003,1.728367e-004
2.308413e+003,1.746099e-004
2.310341e+003,1.763813e-004
2.312270e+003,1.781452e-004
2.314198e+003,1.799073e-004
2.316127e+003,1.816638e-004
2.318055e+003,1.834147e-004
2.319984e+003,1.851674e-004
2.321912e+003,1.869071e-004
2.323841e+003,1.886487e-004
2.325769e+003,1.903791e-004
2.327698e+003,1.921114e-004
2.329626e+003,1.938362e-004
2.331555e+003,1.955554e-004
2.333483e+003,1.972727e-004
2.335412e+003,1.989845e-004
2.337340e+003,2.006907e-004
2.339269e+003,2.023913e-004
2.341197e+003,2.040900e-004
2.343126e+003,2.057794e-004
2.345054e+003,2.074689e-004
2.346983e+003,2.091546e-004
2.348911e+003,2.108347e-004
2.350840e+003,2.125092e-004
2.352768e+003,2.141781e-004
2.354697e+003,2.158433e-004
2.356625e+003,2.175029e-004
2.358554e+003,2.191588e-004
2.360482e+003,2.208110e-004
2.362411e+003,2.224576e-004
2.364339e+003,2.241004e-004
2.366268e+003,2.257377e-004
2.368196e+003,2.273694e-004
2.370125e+003,2.289992e-004
2.372053e+003,2.306234e-004
2.373982e+003,2.322439e-004
2.375910e+003,2.338570e-004
2.377839e+003,2.354681e-004
2.379767e+003,2.370737e-004
2.381696e+003,2.386756e-004
2.383624e+003,2.402700e-004
2.385553e+003,2.418645e-004
2.387481e+003,2.434514e-004
2.389410e+003,2.450347e-004
2.391338e+003,2.466142e-004
2.393267e+003,2.481882e-004
2.395195e+003,2.497546e-004
2.397124e+003,2.513211e-004
2.399052e+003,2.528802e-004
2.400981e+003,2.623796e-004
2.402909e+003,2.879798e-004
2.404838e+003,2.933200e-004
2.406766e+003,5.542822e-004
2.408695e+003,9.371676e-004
2.410623e+003,9.010844e-004
2.412552e+003,8.763392e-004
2.414480e+003,7.310361e-004
2.416409e+003,6.733723e-004
2.418337e+003,8.184761e-004
2.420266e+003,9.220652e-004
2.422194e+003,7.446315e-004
2.424123e+003,6.852504e-004
2.426051e+003,6.742850e-004
2.427979e+003,7.536449e-004
2.429908e+003,5.782899e-004
2.431837e+003,6.225035e-004
2.433765e+003,7.940233e-004
2.435694e+003,8.782297e-004
2.437622e+003,7.583108e-004
2.439551e+003,7.324647e-004
2.441479e+003,6.706882e-004
2.443407e+003,8.301307e-004
2.445336e+003,9.625405e-004
2.447265e+003,8.722674e-004
2.449193e+003,8.807387e-004
2.451122e+003,1.015799e-003
2.453050e+003,1.017196e-003
2.454979e+003,1.141030e-003
2.456907e+003,1.077533e-003
2.458836e+003,1.058687e-003
2.460764e+003,9.653643e-004
2.462693e+003,9.498876e-004
2.464621e+003,8.552279e-004
2.466550e+003,9.563304e-004
2.468478e+003,1.075469e-003
2.470406e+003,1.252294e-003
2.472335e+003,1.285024e-003
2.474264e+003,1.278631e-003
2.476192e+003,1.279974e-003
2.478121e+003,1.382923e-003
2.480049e+003,1.335701e-003
2.481978e+003,1.254778e-003
2.483906e+003,1.268132e-003
2.485835e+003,1.401611e-003
2.487763e+003,1.431573e-003
2.489692e+003,1.476737e-003
2.491620e+003,1.558341e-003
2.493549e+003,1.568589e-003
2.495477e+003,1.510048e-003
2.497406e+003,1.576519e-003
2.499334e+003,1.652516e-003
2.501263e+003,1.770778e-003
2.503191e+003,1.749370e-003
2.505120e+003,1.693806e-003
2.507048e+003,1.594543e-003
2.508977e+003,1.617571e-003
2.510905e+003,1.590887e-003
2.512833e+003,1.666861e-003
2.514762e+003,1.909355e-003
2.516691e+003,2.108812e-003
2.518619e+003,2.083538e-003
2.520548e+003,2.238622e-003
2.522476e+003,2.484160e-003
2.524405e+003,2.681430e-003
2.526333e+003,2.562730e-003
2.528261e+003,2.361346e-003
2.530190e+003,2.355956e-003
2.532119e+003,2.627559e-003
2.534047e+003,2.751730e-003
2.535976e+003,2.790894e-003
2.537904e+003,2.821194e-003
2.539833e+003,2.813105e-003
2.541761e+003,2.722120e-003
2.543689e+003,2.928404e-003
2.545618e+003,3.186198e-003
2.547547e+003,3.398657e-003
2.549475e+003,3.561925e-003
2.551404e+003,3.579296e-003
2.553332e+003,3.654050e-003
2.555260e+003,3.718007e-003
2.557189e+003,3.729481e-003
2.559117e+003,3.851242e-003
2.561046e+003,3.813712e-003
2.562975e+003,3.870146e-003
2.564903e+003,3.865335e-003
2.566832e+003,4.054561e-003
2.568760e+003,4.202468e-003
2.570688e+003,4.248351e-003
2.572617e+003,4.314288e-003
2.574546e+003,4.457256e-003
2.576474e+003,4.583374e-003
2.578403e+003,4.714694e-003
2.580331e+003,4.855979e-003
2.582260e+003,5.095657e-003
2.584188e+003,5.352311e-003
2.586116e+003,5.636761e-003
2.588045e+003,5.554346e-003
2.589974e+003,5.606309e-003
2.591902e+003,5.882025e-003
2.593831e+003,6.156862e-003
2.595759e+003,6.359946e-003
2.597688e+003,6.460555e-003
2.599616e+003,6.554099e-003
2.601544e+003,6.814763e-003
2.603473e+003,7.069085e-003
2.605402e+003,7.268135e-003
2.607330e+003,7.439665e-003
2.609259e+003,7.577710e-003
2.611187e+003,7.856118e-003
2.613115e+003,8.178880e-003
2.615044e+003,8.406857e-003
2.616972e+003,8.717077e-003
2.618901e+003,9.005666e-003
2.620830e+003,9.290049e-003
2.622758e+003,9.667099e-003
2.624687e+003,1.008978e-002
2.626615e+003,1.051284e-002
2.628543e+003,1.094368e-002
2.630472e+003,1.129415e-002
2.632400e+003,1.158070e-002
2.634329e+003,1.174671e-002
2.636258e+003,1.186201e-002
2.638186e+003,1.189920e-002
2.640115e+003,1.180122e-002
2.642043e+003,1.174533e-002
2.643971e+003,1.172664e-002
2.645900e+003,1.170962e-002
2.647828e+003,1.176644e-002
2.649757e+003,1.182023e-002
2.651686e+003,1.193714e-002
2.653614e+003,1.212372e-002
2.655542e+003,1.235991e-002
2.657471e+003,1.254508e-002
2.659399e+003,1.263332e-002
2.661328e+003,1.248265e-002
2.663256e+003,1.219899e-002
2.665185e+003,1.191580e-002
2.667114e+003,1.165952e-002
2.669042e+003,1.146993e-002
2.670970e+003,1.132920e-002
2.672899e+003,1.115480e-002
2.674827e+003,1.096483e-002
2.676756e+003,1.083627e-002
2.678685e+003,1.080902e-002
2.680613e+003,1.075836e-002
2.682542e+003,1.066318e-002
2.684470e+003,1.056362e-002
2.686398e+003,1.050193e-002
2.688327e+003,1.044382e-002
2.690255e+003,1.042481e-002
2.692184e+003,1.036117e-002
2.694113e+003,1.031672e-002
2.696041e+003,1.037993e-002
2.697969e+003,1.052246e-002
2.699898e+003,1.066545e-002
2.701826e+003,1.081910e-002
2.703755e+003,1.094090e-002
2.705683e+003,1.107826e-002
2.707612e+003,1.119983e-002
2.709541e+003,1.136144e-002
2.711469e+003,1.154716e-002
2.713397e+003,1.167908e-002
2.715326e+003,1.181135e-002
2.717254e+003,1.202352e-002
2.719183e+003,1.220203e-002
2.721111e+003,1.240154e-002
2.723040e+003,1.264041e-002
2.724969e+003,1.285662e-002
2.726897e+003,1.313187e-002
2.728825e+003,1.341334e-002
2.730754e+003,1.367236e-002
2.732682e+003,1.396089e-002
2.734611e+003,1.415717e-002
2.736539e+003,1.430039e-002
2.738468e+003,1.441018e-002
2.740396e+003,1.453539e-002
2.742325e+003,1.465754e-002
2.744253e+003,1.468727e-002
2.746182e+003,1.469398e-002
2.748110e+003,1.476559e-002
2.750039e+003,1.489677e-002
2.751967e+003,1.508643e-002
2.753896e+003,1.525418e-002
2.755824e+003,1.546388e-002
2.757753e+003,1.582602e-002
2.759681e+003,1.623015e-002
2.761610e+003,1.657372e-002
2.763538e+003,1.702968e-002
2.765467e+003,1.752415e-002
2.767395e+003,1.796260e-002
2.769324e+003,1.846063e-002
2.771252e+003,1.904069e-002
2.773181e+003,1.968748e-002
2.775109e+003,2.044483e-002
2.777038e+003,2.119003e-002
2.778966e+003,2.203933e-002
2.780895e+003,2.309704e-002
2.782823e+003,2.418706e-002
2.784752e+003,2.536893e-002
2.786680e+003,2.671847e-002
2.788609e+003,2.824291e-002
2.790537e+003,2.969423e-002
2.792466e+003,3.113297e-002
2.794394e+003,3.276834e-002
2.796323e+003,3.440730e-002
2.798251e+003,3.605784e-002
2.800180e+003,3.782435e-002
2.802108e+003,3.975165e-002
2.804037e+003,4.182614e-002
2.805965e+003,4.412315e-002
2.807894e+003,4.667664e-002
2.809822e+003,4.959843e-002
2.811751e+003,5.296043e-002
2.813679e+003,5.676545e-002
2.815608e+003,6.123309e-002
2.817536e+003,6.649894e-002
2.819465e+003,7.263549e-002
2.821393e+003,7.993061e-002
2.823322e+003,8.887832e-002
2.825250e+003,9.984969e-002
2.827179e+003,1.134567e-001
2.829107e+003,1.305630e-001
2.831036e+003,1.521900e-001
2.832964e+003,1.800804e-001
2.834893e+003,2.173247e-001
2.836821e+003,2.679398e-001
2.838750e+003,3.381640e-001
2.840678e+003,4.382333e-001
2.842607e+003,5.784794e-001
2.844535e+003,7.518510e-001
2.846464e+003,8.922349e-001
2.848392e+003,8.739098e-001
2.850321e+003,7.026541e-001
2.852249e+003,5.224713e-001
2.854178e+003,3.964151e-001
2.856106e+003,3.116475e-001
2.858035e+003,2.510925e-001
2.859963e+003,2.069887e-001
2.861892e+003,1.756249e-001
2.863820e+003,1.544522e-001
2.865749e+003,1.414548e-001
2.867677e+003,1.350708e-001
2.869606e+003,1.338952e-001
2.871534e+003,1.365651e-001
2.873463e+003,1.427880e-001
2.875391e+003,1.533805e-001
2.877320e+003,1.687737e-001
2.879248e+003,1.883097e-001
2.881177e+003,2.105804e-001
2.883105e+003,2.343125e-001
2.885034e+003,2.589753e-001
2.886962e+003,2.841744e-001
2.888891e+003,3.096613e-001
2.890819e+003,3.350950e-001
2.892748e+003,3.603735e-001
2.894676e+003,3.855941e-001
2.896605e+003,4.112599e-001
2.898533e+003,4.383787e-001
2.900462e+003,4.687744e-001
2.902390e+003,5.056156e-001
2.904319e+003,5.531273e-001
2.906247e+003,6.159587e-001
2.908176e+003,6.979986e-001
2.910104e+003,7.979515e-001
2.912033e+003,8.995377e-001
2.913961e+003,9.605991e-001
2.915890e+003,9.380316e-001
2.917818e+003,8.408107e-001
2.919747e+003,7.180402e-001
2.921675e+003,6.039425e-001
2.923604e+003,5.092968e-001
2.925532e+003,4.343848e-001
2.927461e+003,3.744939e-001
2.929389e+003,3.243195e-001
2.931318e+003,2.807506e-001
2.933246e+003,2.425410e-001
2.935175e+003,2.092909e-001
2.937103e+003,1.806323e-001
2.939032e+003,1.561618e-001
2.940960e+003,1.355020e-001
2.942889e+003,1.183556e-001
2.944817e+003,1.047383e-001
2.946746e+003,9.440099e-002
2.948674e+003,8.674533e-002
2.950603e+003,8.082540e-002
2.952531e+003,7.578320e-002
2.954460e+003,7.082981e-002
2.956388e+003,6.589515e-002
2.958317e+003,6.099268e-002
2.960245e+003,5.609886e-002
2.962174e+003,5.117344e-002
2.964102e+003,4.647370e-002
2.966031e+003,4.204256e-002
2.967959e+003,3.796316e-002
2.969888e+003,3.421990e-002
2.971816e+003,3.088425e-002
2.973745e+003,2.797500e-002
2.975673e+003,2.543567e-002
2.977602e+003,2.320888e-002
2.979530e+003,2.131633e-002
2.981459e+003,1.969296e-002
2.983387e+003,1.838635e-002
2.985316e+003,1.731807e-002
2.987244e+003,1.645182e-002
2.989173e+003,1.587739e-002
2.991101e+003,1.580625e-002
2.993030e+003,1.616922e-002
2.994958e+003,1.685397e-002
2.996887e+003,1.793393e-002
2.998815e+003,1.933384e-002
3.000744e+003,2.065462e-002
3.002672e+003,2.163619e-002
3.004601e+003,2.207844e-002
3.006529e+003,2.180139e-002
3.008458e+003,2.079209e-002
3.010386e+003,1.934997e-002
3.012315e+003,1.756324e-002
3.014243e+003,1.561429e-002
3.016172e+003,1.369308e-002
3.018100e+003,1.205247e-002
3.020029e+003,1.073997e-002
3.021957e+003,9.601664e-003
3.023886e+003,8.686390e-003
3.025814e+003,8.083418e-003
3.027743e+003,7.572670e-003
3.029671e+003,7.234275e-003
3.031600e+003,6.928731e-003
3.033528e+003,6.538711e-003
3.035457e+003,6.069828e-003
3.037385e+003,5.660262e-003
3.039314e+003,5.402785e-003
3.041242e+003,5.138289e-003
3.043171e+003,4.879922e-003
3.045099e+003,4.635379e-003
3.047028e+003,4.426263e-003
3.048956e+003,4.207663e-003
3.050885e+003,3.993802e-003
3.052813e+003,3.878843e-003
3.054742e+003,3.733892e-003
3.056670e+003,3.646828e-003
3.058599e+003,3.584418e-003
3.060527e+003,3.450677e-003
3.062456e+003,3.371175e-003
3.064384e+003,3.455516e-003
3.066313e+003,3.398847e-003
3.068241e+003,3.221188e-003
3.070170e+003,3.136292e-003
3.072098e+003,3.109612e-003
3.074027e+003,2.986353e-003
3.075955e+003,2.865452e-003
3.077884e+003,2.777275e-003
3.079812e+003,2.739057e-003
3.081741e+003,2.624154e-003
3.083669e+003,2.388507e-003
3.085598e+003,2.233278e-003
3.087526e+003,2.097916e-003
3.089455e+003,1.941800e-003
3.091383e+003,1.764588e-003
3.093312e+003,1.504231e-003
3.095240e+003,1.317833e-003
3.097169e+003,1.140274e-003
3.099097e+003,9.692460e-004
3.101026e+003,7.358715e-004
3.102954e+003,4.511364e-004
3.104883e+003,1.660995e-004
3.106811e+003,7.945672e-005
3.108740e+003,6.434694e-005
3.110668e+003,4.361570e-005
3.112597e+003,6.791204e-006
3.114525e+003,-4.445761e-005
3.116454e+003,-9.621307e-005
3.118382e+003,-1.662336e-004
3.120311e+003,-3.190562e-004
3.122239e+003,-3.985204e-004
3.124168e+003,-3.889389e-004
3.126096e+003,-3.917553e-004
3.128025e+003,-4.675165e-004
3.129953e+003,-5.676858e-004
3.131882e+003,-5.446114e-004
3.133810e+003,-5.313046e-004
3.135739e+003,-6.638467e-004
3.137667e+003,-7.244870e-004
3.139596e+003,-7.136315e-004
3.141524e+003,-5.830750e-004
3.143453e+003,-5.286224e-004
3.145381e+003,-5.927794e-004
3.147310e+003,-6.321445e-004
3.149238e+003,-6.199591e-004
3.151167e+003,-6.729811e-004
3.153095e+003,-6.773993e-004
3.155024e+003,-7.141605e-004
3.156952e+003,-7.275119e-004
3.158881e+003,-6.941669e-004
3.160809e+003,-6.639026e-004
3.162738e+003,-6.347857e-004
3.164666e+003,-6.898157e-004
3.166594e+003,-6.972142e-004
3.168523e+003,-5.931668e-004
3.170452e+003,-5.742945e-004
3.172380e+003,-6.447397e-004
3.174309e+003,-6.720945e-004
3.176237e+003,-5.305186e-004
3.178166e+003,-3.826171e-004
3.180094e+003,-3.893822e-004
3.182022e+003,-4.770383e-004
3.183951e+003,-4.088022e-004
3.185880e+003,-3.555268e-004
3.187808e+003,-4.413910e-004
3.189737e+003,-4.429556e-004
3.191665e+003,-4.492924e-004
3.193594e+003,-5.278178e-004
3.195522e+003,-4.615821e-004
3.197450e+003,-3.350601e-004
3.199379e+003,-3.914274e-004
3.201308e+003,-4.675314e-004
3.203236e+003,-4.819930e-004
3.205165e+003,-5.443394e-004
3.207093e+003,-5.783588e-004
3.209021e+003,-4.705600e-004
3.210950e+003,-4.362874e-004
3.212878e+003,-4.350133e-004
3.214807e+003,-3.682934e-004
3.216736e+003,-3.462546e-004
3.218664e+003,-4.070811e-004
3.220593e+003,-5.031861e-004
3.222521e+003,-5.136803e-004
3.224449e+003,-4.704781e-004
3.226378e+003,-4.489161e-004
3.228307e+003,-4.474856e-004
3.230235e+003,-4.494600e-004
3.232164e+003,-5.256869e-004
3.234092e+003,-5.487874e-004
3.236021e+003,-4.163533e-004
3.237949e+003,-4.389994e-004
3.239877e+003,-4.740953e-004
3.241806e+003,-4.011281e-004
3.243735e+003,-2.443120e-004
3.245663e+003,-2.916120e-004
3.247592e+003,-4.283376e-004
3.249520e+003,-3.694221e-004
3.251448e+003,-2.425835e-004
3.253377e+003,-1.226589e-004
3.255305e+003,-1.099706e-004
3.257234e+003,-1.820624e-004
3.259163e+003,-2.629831e-004
3.261091e+003,-2.954230e-004
3.263020e+003,-2.675653e-004
3.264948e+003,-1.687743e-004
3.266876e+003,-1.922622e-004
3.268805e+003,-1.748502e-004
3.270733e+003,-5.797669e-005
3.272662e+003,6.337091e-005
3.274591e+003,6.815419e-005
3.276519e+003,2.545863e-005
3.278448e+003,-1.551211e-005
3.280376e+003,3.853068e-005
3.282304e+003,1.865998e-005
3.284233e+003,-5.283952e-005
3.286161e+003,-1.135021e-004
3.288090e+003,8.344650e-007
3.290019e+003,1.495928e-004
3.291947e+003,1.467839e-004
3.293875e+003,4.112720e-006
3.295804e+003,4.304200e-005
3.297732e+003,2.001971e-004
3.299661e+003,1.036488e-004
3.301589e+003,-2.137199e-005
3.303518e+003,-6.233901e-005
3.305447e+003,-1.049340e-004
3.307375e+003,-5.148351e-006
3.309303e+003,1.261979e-004
3.311232e+003,2.266802e-004
3.313160e+003,2.835356e-004
3.315089e+003,2.110340e-004
3.317018e+003,1.221262e-004
3.318946e+003,9.720773e-005
3.320875e+003,6.266683e-005
3.322803e+003,3.405660e-005
3.324731e+003,7.051602e-005
3.326660e+003,1.615435e-004
3.328588e+003,1.874864e-004
3.330517e+003,9.928271e-005
3.332446e+003,1.074448e-004
3.334374e+003,1.991242e-004
3.336302e+003,2.719946e-004
3.338231e+003,3.234223e-004
3.340159e+003,3.408864e-004
3.342088e+003,2.728216e-004
3.344016e+003,1.969673e-004
3.345945e+003,1.760945e-004
3.347874e+003,2.096109e-004
3.349802e+003,1.998432e-004
3.351730e+003,1.537725e-004
3.353659e+003,1.463369e-004
3.355587e+003,1.616664e-004
3.357516e+003,1.220815e-004
3.359444e+003,2.554059e-004
3.361373e+003,3.176890e-004
3.363302e+003,3.342628e-004
3.365230e+003,5.172938e-004
3.367158e+003,5.736500e-004
3.369087e+003,4.606806e-004
3.371015e+003,3.203489e-004
3.372944e+003,2.755672e-004
3.374872e+003,2.521537e-004
3.376801e+003,2.270974e-004
3.378729e+003,2.518892e-004
3.380658e+003,3.857091e-004
3.382586e+003,4.420653e-004
3.384515e+003,4.459806e-004
3.386443e+003,2.574697e-004
3.388372e+003,2.338961e-004
3.390300e+003,3.659800e-004
3.392229e+003,5.342588e-004
3.394157e+003,3.904887e-004
3.396086e+003,4.500151e-004
3.398014e+003,5.938150e-004
3.399943e+003,4.293807e-004
3.401871e+003,3.257319e-004
3.403800e+003,3.919154e-004
3.405728e+003,4.464872e-004
3.407657e+003,4.222244e-004
3.409585e+003,3.337041e-004
3.411514e+003,4.027896e-004
3.413442e+003,4.857294e-004
3.415371e+003,4.566535e-004
3.417299e+003,4.351996e-004
3.419228e+003,5.930290e-004
3.421156e+003,7.182956e-004
3.423085e+003,7.142350e-004
3.425013e+003,6.627142e-004
3.426942e+003,6.061383e-004
3.428870e+003,6.470345e-004
3.430799e+003,7.773079e-004
3.432727e+003,7.176362e-004
3.434656e+003,5.909689e-004
3.436584e+003,5.677566e-004
3.438513e+003,5.560592e-004
3.440441e+003,7.273629e-004
3.442370e+003,9.113774e-004
3.444298e+003,9.587742e-004
3.446227e+003,1.245894e-003
3.448155e+003,1.046445e-003
3.450084e+003,7.403195e-004
3.452012e+003,8.053817e-004
3.453941e+003,9.821653e-004
3.455869e+003,9.597763e-004
3.457798e+003,9.231456e-004
3.459726e+003,1.043417e-003
3.461655e+003,1.201913e-003
3.463583e+003,1.213200e-003
3.465512e+003,1.301467e-003
3.467440e+003,1.352500e-003
3.469369e+003,1.355264e-003
3.471297e+003,1.354724e-003
3.473226e+003,1.351938e-003
3.475154e+003,1.228519e-003
3.477083e+003,1.017004e-003
3.479011e+003,1.109689e-003
3.480940e+003,1.341023e-003
3.482868e+003,1.296304e-003
3.484797e+003,1.192369e-003
3.486725e+003,1.270056e-003
3.488654e+003,1.146778e-003
3.490582e+003,9.276047e-004
3.492511e+003,8.878447e-004
3.494439e+003,1.078218e-003
3.496368e+003,1.100931e-003
3.498296e+003,8.813366e-004
3.500225e+003,1.038246e-003
3.502153e+003,1.616869e-003
3.504082e+003,1.535397e-003
3.506010e+003,1.081165e-003
3.507939e+003,1.241732e-003
3.509867e+003,1.263611e-003
3.511796e+003,9.260960e-004
3.513724e+003,8.125268e-004
3.515653e+003,7.672273e-004
3.517581e+003,6.596521e-004
3.519510e+003,4.635602e-004
3.521438e+003,7.230304e-004
3.523367e+003,1.246143e-003
3.525295e+003,1.280513e-003
3.527224e+003,1.340549e-003
3.529152e+003,1.250587e-003
3.531081e+003,8.117668e-004
3.533009e+003,3.791824e-004
3.534938e+003,6.364100e-004
3.536866e+003,7.091574e-004
3.538795e+003,3.532805e-004
3.540723e+003,5.211681e-005
3.542652e+003,4.481524e-004
3.544580e+003,1.399208e-003
3.546509e+003,1.627479e-003
3.548437e+003,9.189360e-004
3.550366e+003,8.041747e-004
3.552294e+003,7.960051e-004
3.554223e+003,2.366193e-004
3.556151e+003,-4.012883e-005
3.558080e+003,-7.099658e-005
3.560008e+003,-4.019216e-005
3.561937e+003,-1.531690e-004
3.563865e+003,5.753264e-004
3.565794e+003,2.439622e-003
3.567722e+003,2.356574e-003
3.569651e+003,8.084923e-004
3.571579e+003,7.713214e-005
3.573508e+003,-1.373105e-004
3.575436e+003,-1.927055e-004
3.577365e+003,-1.695193e-004
3.579293e+003,-2.939664e-004
3.581222e+003,-8.154958e-004
3.583150e+003,-1.064196e-003
3.585079e+003,-4.933774e-005
3.587007e+003,1.807787e-003
3.588936e+003,1.119070e-003
3.590864e+003,4.254058e-004
3.592793e+003,6.167740e-004
3.594721e+003,8.934215e-004
3.596650e+003,1.120221e-003
3.598578e+003,1.553454e-003
3.600507e+003,1.589537e-003
3.602435e+003,8.866675e-004
3.604364e+003,4.115961e-004
3.606292e+003,1.188107e-003
3.608221e+003,1.972813e-003
3.610149e+003,1.805112e-003
3.612078e+003,2.269927e-003
3.614006e+003,1.798537e-003
3.615935e+003,1.175396e-003
3.617863e+003,1.967300e-003
3.619792e+003,1.973718e-003
3.621720e+003,3.100634e-004
3.623649e+003,-7.003210e-004
3.625577e+003,-4.940368e-004
3.627506e+003,1.512453e-003
3.629434e+003,2.556942e-003
3.631363e+003,1.065932e-003
3.633291e+003,4.167035e-004
3.635220e+003,-3.275387e-004
3.637148e+003,-3.387854e-004
3.639077e+003,-2.715364e-004
3.641005e+003,-1.218319e-004
3.642934e+003,-6.293915e-004
3.644862e+003,-5.696490e-004
3.646791e+003,9.633899e-004
3.648719e+003,3.456414e-003
3.650648e+003,2.783708e-003
3.652576e+003,6.061681e-004
3.654505e+003,6.368533e-004
3.656433e+003,4.418157e-004
3.658362e+003,-1.514740e-004
3.660290e+003,-5.386136e-004
3.662219e+003,-1.210164e-003
3.664147e+003,-1.650929e-003
3.666076e+003,-1.570605e-003
3.668004e+003,-2.509728e-004
3.669933e+003,8.935854e-004
3.671861e+003,-2.170354e-005
3.673790e+003,1.539994e-003
3.675718e+003,2.706926e-003
3.677647e+003,1.458105e-003
3.679575e+003,4.862770e-004
3.681504e+003,-5.983599e-004
3.683432e+003,-1.240034e-003
3.685361e+003,-1.147855e-003
3.687289e+003,1.423098e-004
3.689218e+003,1.380738e-003
3.691146e+003,9.936728e-004
3.693075e+003,-2.429448e-004
3.695003e+003,-6.615818e-004
3.696932e+003,-1.152497e-003
3.698860e+003,-1.077898e-003
3.700789e+003,-3.296249e-004
3.702717e+003,-4.307143e-004
3.704646e+003,-8.959956e-004
3.706574e+003,-1.078136e-003
3.708503e+003,-4.220456e-004
3.710431e+003,1.415640e-003
3.712360e+003,1.670826e-003
3.714288e+003,3.148131e-004
3.716217e+003,-5.149432e-004
3.718145e+003,-6.284416e-004
3.720074e+003,-2.295263e-004
3.722002e+003,3.892779e-004
3.723931e+003,5.546510e-004
3.725859e+003,6.170161e-004
3.727788e+003,-4.843101e-004
3.729716e+003,-4.815422e-004
3.731645e+003,2.246983e-004
3.733573e+003,1.994677e-003
3.735502e+003,3.616109e-003
3.737430e+003,1.941547e-003
3.739359e+003,6.660894e-004
3.741287e+003,1.981296e-004
3.743216e+003,1.471702e-003
3.745144e+003,1.685679e-003
3.747073e+003,1.735847e-003
3.749001e+003,2.678897e-003
3.750930e+003,3.703423e-003
3.752858e+003,1.869533e-003
3.754787e+003,5.833171e-004
3.756715e+003,5.178489e-004
3.758644e+003,9.206235e-004
3.760572e+003,3.604069e-004
3.762501e+003,-1.095794e-004
3.764429e+003,1.606122e-004
3.766358e+003,-3.599897e-004
3.768286e+003,2.768449e-004
3.770215e+003,3.573075e-004
3.772143e+003,-5.654395e-004
3.774072e+003,-9.676255e-004
3.776000e+003,-9.689294e-004
3.777929e+003,-2.242923e-004
3.779857e+003,-2.634898e-005
3.781786e+003,-2.624802e-004
3.783714e+003,1.687519e-004
3.785643e+003,1.284480e-005
3.787571e+003,-4.455261e-004
3.789500e+003,-8.248165e-004
3.791428e+003,-1.047857e-003
3.793357e+003,-1.026750e-003
3.795285e+003,-2.806000e-004
3.797214e+003,-1.049004e-004
3.799142e+003,8.168295e-004
3.801071e+003,2.725009e-003
3.802999e+003,1.396470e-003
3.804927e+003,1.335159e-003
3.806856e+003,1.465738e-003
3.808785e+003,1.625381e-004
3.810713e+003,-4.593246e-004
3.812642e+003,-7.221922e-004
3.814570e+003,2.130531e-004
3.816499e+003,6.216019e-004
3.818427e+003,1.360197e-003
3.820355e+003,3.174465e-003
3.822284e+003,2.143841e-003
3.824213e+003,1.385983e-003
3.826141e+003,1.123045e-003
3.828070e+003,3.398061e-004
3.829998e+003,4.783198e-004
3.831927e+003,6.517023e-004
3.833855e+003,1.037914e-003
3.835783e+003,1.851581e-003
3.837712e+003,2.942290e-003
3.839641e+003,2.752237e-003
3.841569e+003,1.948904e-003
3.843498e+003,1.584273e-003
3.845426e+003,4.997626e-004
3.847354e+003,-7.532537e-006
3.849283e+003,7.668510e-005
3.851211e+003,1.416784e-003
3.853140e+003,3.544427e-003
3.855069e+003,2.894398e-003
3.856997e+003,1.579933e-003
3.858926e+003,3.014430e-004
3.860854e+003,4.693791e-004
3.862782e+003,1.536533e-003
3.864711e+003,2.086014e-003
3.866640e+003,1.178499e-003
3.868568e+003,2.351988e-003
3.870497e+003,2.214108e-003
3.872425e+003,2.176858e-003
3.874354e+003,1.580328e-003
3.876282e+003,4.496835e-004
3.878210e+003,8.151829e-004
3.880139e+003,1.647107e-003
3.882068e+003,1.408573e-003
3.883996e+003,2.084762e-003
3.885925e+003,1.522683e-003
3.887853e+003,3.232025e-004
3.889781e+003,9.949133e-004
3.891710e+003,1.692407e-003
3.893638e+003,9.933934e-004
3.895567e+003,4.958101e-004
3.897496e+003,9.722486e-004
3.899424e+003,1.579706e-003
3.901353e+003,2.264574e-003
3.903281e+003,3.270764e-003
3.905209e+003,2.448630e-003
3.907138e+003,1.020771e-003
3.909066e+003,3.428981e-004
3.910995e+003,1.284294e-004
3.912924e+003,-4.015490e-005
3.914852e+003,5.718395e-004
3.916781e+003,9.042546e-004
3.918709e+003,7.936917e-004
3.920637e+003,5.462430e-004
3.922566e+003,8.792393e-004
3.924494e+003,1.232613e-003
3.926423e+003,5.157180e-004
3.928352e+003,6.075837e-004
3.930280e+003,1.108825e-003
3.932208e+003,1.309488e-003
3.934137e+003,5.803555e-004
3.936065e+003,1.229458e-004
3.937994e+003,-8.032843e-005
3.939922e+003,2.075396e-004
3.941851e+003,9.348057e-004
3.943780e+003,6.411709e-004
3.945708e+003,3.637597e-004
3.947636e+003,8.478016e-004
3.949565e+003,8.532815e-004
3.951493e+003,4.896969e-004
3.953422e+003,2.630539e-004
3.955351e+003,1.058541e-004
3.957279e+003,-2.921000e-005
3.959208e+003,2.288781e-004
3.961136e+003,4.834905e-004
3.963064e+003,6.062537e-005
3.964993e+003,-2.555028e-004
3.966921e+003,-1.485944e-004
3.968850e+003,3.788620e-006
3.970779e+003,1.689047e-005
3.972707e+003,2.893433e-005
3.974635e+003,3.733486e-005
3.976564e+003,-5.948544e-005
3.978492e+003,-1.623295e-004
3.980421e+003,-2.136976e-004
3.982349e+003,-2.595894e-004
3.984278e+003,-2.310574e-004
3.986207e+003,-3.843568e-004
3.988135e+003,-3.278740e-004
3.990063e+003,-1.632012e-004
3.991992e+003,-2.156980e-004
3.993920e+003,-2.590418e-004
3.995849e+003,-3.632866e-004
3.997777e+003,-5.397536e-004
3.999706e+003,-4.508011e-004
4.001635e+003,0.000000e+000
