3.991992e+002,0.000000e+000
4.011277e+002,0.000000e+000
4.030562e+002,0.000000e+000
4.049846e+002,0.000000e+000
4.069131e+002,0.000000e+000
4.088416e+002,0.000000e+000
4.107701e+002,0.000000e+000
4.126986e+002,0.000000e+000
4.146271e+002,0.000000e+000
4.165556e+002,0.000000e+000
4.184841e+002,0.000000e+000
4.204126e+002,0.000000e+000
4.223411e+002,0.000000e+000
4.242697e+002,0.000000e+000
4.261982e+002,0.000000e+000
4.281266e+002,0.000000e+000
4.300551e+002,0.000000e+000
4.319836e+002,0.000000e+000
4.339121e+002,0.000000e+000
4.358406e+002,0.000000e+000
4.377691e+002,0.000000e+000
4.396976e+002,0.000000e+000
4.416261e+002,0.000000e+000
4.435546e+002,0.000000e+000
4.454831e+002,0.000000e+000
4.474116e+002,0.000000e+000
4.493401e+002,0.000000e+000
4.512686e+002,0.000000e+000
4.531971e+002,0.000000e+000
4.551256e+002,0.000000e+000
4.570541e+002,0.000000e+000
4.589826e+002,0.000000e+000
4.609111e+002,0.000000e+000
4.628396e+002,0.000000e+000
4.647681e+002,0.000000e+000
4.666966e+002,0.000000e+000
4.686251e+002,0.000000e+000
4.705536e+002,0.000000e+000
4.724821e+002,0.000000e+000
4.744106e+002,0.000000e+000
4.763391e+002,0.000000e+000
4.782676e+002,0.000000e+000
4.801961e+002,0.000000e+000
4.821246e+002,0.000000e+000
4.840531e+002,0.000000e+000
4.859816e+002,0.000000e+000
4.879101e+002,0.000000e+000
4.898386e+002,0.000000e+000
4.917671e+002,0.000000e+000
4.936956e+002,0.000000e+000
4.956241e+002,0.000000e+000
4.975526e+002,0.000000e+000
4.994811e+002,0.000000e+000
5.014096e+002,0.000000e+000
5.033381e+002,0.000000e+000
5.052666e+002,0.000000e+000
5.071951e+002,0.000000e+000
5.091236e+002,0.000000e+000
5.110521e+002,0.000000e+000
5.129806e+002,0.000000e+000
5.149091e+002,0.000000e+000
5.168376e+002,0.000000e+000
5.187661e+002,0.000000e+000
5.206946e+002,0.000000e+000
5.226230e+002,0.000000e+000
5.245516e+002,-7.721595e-004
5.264800e+002,-7.327106e-004
5.284086e+002,-8.520326e-004
5.303370e+002,-1.048747e-003
5.322656e+002,-1.022334e-003
5.341940e+002,-9.412067e-004
5.361226e+002,-9.161057e-004
5.380510e+002,-9.673368e-004
5.399796e+002,-9.431345e-004
5.419081e+002,-9.548934e-004
5.438365e+002,-9.422302e-004
5.457650e+002,-9.296881e-004
5.476935e+002,-8.330084e-004
5.496221e+002,-7.330477e-004
5.515505e+002,-7.628370e-004
5.534790e+002,-7.234244e-004
5.554075e+002,-5.517127e-004
5.573361e+002,-5.842512e-004
5.592645e+002,-7.527387e-004
5.611931e+002,-8.613616e-004
5.631215e+002,-8.914750e-004
5.650500e+002,-9.367391e-004
5.669785e+002,-9.414451e-004
5.689070e+002,-9.736251e-004
5.708355e+002,-9.539984e-004
5.727640e+002,-9.909896e-004
5.746925e+002,-9.578783e-004
5.766210e+002,-9.342330e-004
5.785495e+002,-9.008888e-004
5.804780e+002,-8.822922e-004
5.824065e+002,-8.758064e-004
5.843350e+002,-9.008106e-004
5.862635e+002,-8.681593e-004
5.881920e+002,-8.517532e-004
5.901205e+002,-8.893861e-004
5.920490e+002,-1.029303e-003
5.939775e+002,-9.093760e-004
5.959060e+002,-7.848796e-004
5.978345e+002,-7.463470e-004
5.997630e+002,-7.542232e-004
6.016915e+002,-6.848760e-004
6.036200e+002,-5.653864e-004
6.055485e+002,-5.060835e-004
6.074770e+002,-5.360376e-004
6.094055e+002,-4.584501e-004
6.113340e+002,-4.786626e-004
6.132625e+002,-5.338918e-004
6.151910e+002,-6.554341e-004
6.171195e+002,-6.176932e-004
6.190480e+002,-4.354538e-004
6.209765e+002,-2.967548e-004
6.229050e+002,-2.751406e-004
6.248335e+002,-2.391050e-004
6.267620e+002,-2.180804e-004
6.286905e+002,-1.273360e-004
6.306190e+002,-1.095496e-004
6.325475e+002,-6.152689e-005
6.344760e+002,-3.856979e-005
6.364045e+002,4.693866e-006
6.383330e+002,4.670862e-005
6.402615e+002,1.349421e-004
6.421899e+002,8.019991e-005
6.441185e+002,4.263222e-005
6.460470e+002,2.908055e-005
6.479755e+002,5.530659e-005
6.499039e+002,-5.336385e-005
6.518325e+002,-7.467158e-005
6.537610e+002,1.899339e-005
6.556895e+002,2.104668e-004
6.576179e+002,2.585957e-004
6.595464e+002,2.418002e-004
6.614750e+002,2.180077e-004
6.634034e+002,3.434652e-004
6.653319e+002,4.134970e-004
6.672604e+002,5.027307e-004
6.691890e+002,4.570382e-004
6.711174e+002,6.318269e-004
6.730460e+002,7.169358e-004
6.749745e+002,7.748213e-004
6.769030e+002,8.226745e-004
6.788314e+002,9.986125e-004
6.807599e+002,1.112302e-003
6.826885e+002,1.348797e-003
6.846169e+002,1.513198e-003
6.865454e+002,1.681576e-003
6.884739e+002,1.785388e-003
6.904025e+002,2.014309e-003
6.923309e+002,2.252782e-003
6.942594e+002,2.676371e-003
6.961879e+002,3.049476e-003
6.981165e+002,3.631206e-003
7.000449e+002,4.330026e-003
7.019734e+002,5.381770e-003
7.039019e+002,6.673057e-003
7.058304e+002,8.547356e-003
7.077589e+002,1.100545e-002
7.096874e+002,1.494875e-002
7.116159e+002,2.152893e-002
7.135444e+002,3.452580e-002
7.154729e+002,5.785399e-002
7.174014e+002,8.971336e-002
7.193299e+002,9.869733e-002
7.212584e+002,6.487100e-002
7.231869e+002,3.729280e-002
7.251154e+002,3.068069e-002
7.270439e+002,3.922713e-002
7.289724e+002,6.263733e-002
7.309009e+002,6.693954e-002
7.328294e+002,3.685079e-002
7.347579e+002,1.462352e-002
7.366864e+002,7.202402e-003
7.386149e+002,4.645953e-003
7.405434e+002,3.301596e-003
7.424719e+002,2.585847e-003
7.444004e+002,2.000311e-003
7.463289e+002,1.637233e-003
7.482574e+002,1.340270e-003
7.501859e+002,1.179678e-003
7.521144e+002,9.624902e-004
7.540428e+002,8.554142e-004
7.559714e+002,7.191300e-004
7.578999e+002,6.918944e-004
7.598284e+002,6.087627e-004
7.617568e+002,5.842876e-004
7.636854e+002,5.221292e-004
7.656139e+002,4.952271e-004
7.675424e+002,4.197555e-004
7.694709e+002,3.872095e-004
7.713994e+002,3.811065e-004
7.733279e+002,3.585294e-004
7.752563e+002,3.198162e-004
7.771849e+002,2.838448e-004
7.791134e+002,2.014553e-004
7.810419e+002,1.358576e-004
7.829703e+002,1.094984e-004
7.848989e+002,1.448859e-004
7.868274e+002,1.627468e-004
7.887559e+002,2.051536e-004
7.906843e+002,1.849178e-004
7.926129e+002,2.408791e-004
7.945414e+002,2.918169e-004
7.964698e+002,2.841223e-004
7.983983e+002,2.429858e-004
8.003268e+002,2.836846e-004
8.022554e+002,3.464874e-004
8.041838e+002,3.508646e-004
8.061123e+002,3.078748e-004
8.080408e+002,3.088675e-004
8.099694e+002,2.610311e-004
8.118978e+002,3.007073e-004
8.138263e+002,2.901088e-004
8.157548e+002,2.947338e-004
8.176833e+002,3.100373e-004
8.196118e+002,2.778117e-004
8.215403e+002,2.626199e-004
8.234689e+002,2.974961e-004
8.253973e+002,2.399497e-004
8.273258e+002,1.741052e-004
8.292543e+002,1.571216e-004
8.311829e+002,2.776626e-004
8.331113e+002,3.347192e-004
8.350398e+002,2.983268e-004
8.369683e+002,2.644118e-004
8.388969e+002,2.397150e-004
8.408253e+002,2.358556e-004
8.427538e+002,2.250243e-004
8.446823e+002,2.358984e-004
8.466108e+002,2.609119e-004
8.485393e+002,2.272520e-004
8.504678e+002,2.794545e-004
8.523963e+002,3.808588e-004
8.543248e+002,3.503524e-004
8.562533e+002,2.710503e-004
8.581818e+002,2.487376e-004
8.601103e+002,3.248602e-004
8.620388e+002,4.111119e-004
8.639673e+002,3.642552e-004
8.658958e+002,3.674086e-004
8.678243e+002,4.318692e-004
8.697528e+002,4.496276e-004
8.716813e+002,4.624110e-004
8.736098e+002,4.004315e-004
8.755383e+002,3.615972e-004
8.774668e+002,3.909040e-004
8.793953e+002,5.060509e-004
8.813238e+002,6.012097e-004
8.832523e+002,6.664041e-004
8.851808e+002,7.299427e-004
8.871093e+002,7.984899e-004
8.890378e+002,7.899869e-004
8.909663e+002,7.442106e-004
8.928948e+002,7.365104e-004
8.948232e+002,8.123796e-004
8.967518e+002,8.745864e-004
8.986803e+002,1.038658e-003
9.006088e+002,1.327276e-003
9.025372e+002,1.659015e-003
9.044658e+002,2.206061e-003
9.063943e+002,3.128754e-003
9.083228e+002,3.631730e-003
9.102512e+002,3.041010e-003
9.121797e+002,2.048058e-003
9.141083e+002,1.435656e-003
9.160367e+002,1.106415e-003
9.179653e+002,9.075496e-004
9.198937e+002,8.652899e-004
9.218223e+002,8.791611e-004
9.237507e+002,8.511562e-004
9.256793e+002,7.854588e-004
9.276077e+002,7.492024e-004
9.295363e+002,7.845480e-004
9.314647e+002,7.290449e-004
9.333932e+002,7.342268e-004
9.353217e+002,8.255821e-004
9.372502e+002,8.906610e-004
9.391787e+002,9.116512e-004
9.411072e+002,8.949507e-004
9.430358e+002,8.811839e-004
9.449642e+002,9.489954e-004
9.468928e+002,9.492841e-004
9.488212e+002,9.381827e-004
9.507498e+002,1.020188e-003
9.526782e+002,1.058951e-003
9.546068e+002,1.048706e-003
9.565352e+002,1.090175e-003
9.584637e+002,1.166761e-003
9.603922e+002,1.233490e-003
9.623207e+002,1.320690e-003
9.642492e+002,1.391368e-003
9.661777e+002,1.375040e-003
9.681062e+002,1.369810e-003
9.700347e+002,1.357082e-003
9.719632e+002,1.334725e-003
9.738917e+002,1.331916e-003
9.758202e+002,1.331650e-003
9.777487e+002,1.342345e-003
9.796772e+002,1.357300e-003
9.816057e+002,1.405727e-003
9.835342e+002,1.549235e-003
9.854627e+002,1.714651e-003
9.873912e+002,1.938609e-003
9.893197e+002,2.120130e-003
9.912482e+002,2.170702e-003
9.931767e+002,2.075840e-003
9.951052e+002,1.914857e-003
9.970337e+002,1.826987e-003
9.989622e+002,1.799909e-003
1.000891e+003,1.718977e-003
1.002819e+003,1.671597e-003
1.004748e+003,1.685403e-003
1.006676e+003,1.765484e-003
1.008605e+003,1.791619e-003
1.010533e+003,1.830358e-003
1.012462e+003,1.879841e-003
1.014390e+003,1.971057e-003
1.016319e+003,2.027582e-003
1.018247e+003,2.090978e-003
1.020176e+003,2.142183e-003
1.022104e+003,2.157992e-003
1.024033e+003,2.202813e-003
1.025961e+003,2.230143e-003
1.027890e+003,2.275812e-003
1.029818e+003,2.353905e-003
1.031747e+003,2.378834e-003
1.033675e+003,2.409369e-003
1.035604e+003,2.372999e-003
1.037532e+003,2.375154e-003
1.039461e+003,2.398472e-003
1.041389e+003,2.441760e-003
1.043318e+003,2.454687e-003
1.045246e+003,2.493117e-003
1.047175e+003,2.560154e-003
1.049103e+003,2.788419e-003
1.051032e+003,2.976069e-003
1.052960e+003,2.908323e-003
1.054889e+003,2.789918e-003
1.056817e+003,2.820836e-003
1.058746e+003,2.931193e-003
1.060674e+003,3.007740e-003
1.062603e+003,3.007764e-003
1.064531e+003,3.063262e-003
1.066460e+003,3.113382e-003
1.068388e+003,3.155096e-003
1.070317e+003,3.159819e-003
1.072245e+003,3.242327e-003
1.074174e+003,3.354603e-003
1.076102e+003,3.520783e-003
1.078031e+003,3.607482e-003
1.079959e+003,3.699878e-003
1.081888e+003,3.759820e-003
1.083816e+003,3.781766e-003
1.085745e+003,3.675891e-003
1.087673e+003,3.584336e-003
1.089602e+003,3.539266e-003
1.091530e+003,3.509067e-003
1.093459e+003,3.403429e-003
1.095387e+003,3.376437e-003
1.097316e+003,3.341634e-003
1.099244e+003,3.292885e-003
1.101173e+003,3.253181e-003
1.103101e+003,3.261168e-003
1.105030e+003,3.199147e-003
1.106958e+003,3.211927e-003
1.108887e+003,3.242217e-003
1.110815e+003,3.259957e-003
1.112744e+003,3.236800e-003
1.114672e+003,3.224822e-003
1.116601e+003,3.192706e-003
1.118529e+003,3.186351e-003
1.120458e+003,3.159450e-003
1.122386e+003,3.128204e-003
1.124315e+003,3.091380e-003
1.126243e+003,3.124297e-003
1.128172e+003,3.151828e-003
1.130100e+003,3.195791e-003
1.132029e+003,3.200019e-003
1.133957e+003,3.218913e-003
1.135885e+003,3.296772e-003
1.137814e+003,3.444523e-003
1.139743e+003,3.543817e-003
1.141671e+003,3.675653e-003
1.143600e+003,3.919808e-003
1.145528e+003,4.278468e-003
1.147457e+003,4.757110e-003
1.149385e+003,5.437810e-003
1.151314e+003,6.098790e-003
1.153242e+003,6.566027e-003
1.155171e+003,6.817676e-003
1.157099e+003,6.919026e-003
1.159028e+003,6.862670e-003
1.160956e+003,6.807100e-003
1.162885e+003,6.701704e-003
1.164813e+003,6.537532e-003
1.166742e+003,6.286150e-003
1.168670e+003,6.024439e-003
1.170599e+003,5.712511e-003
1.172527e+003,5.420825e-003
1.174456e+003,5.211562e-003
1.176384e+003,4.981738e-003
1.178313e+003,4.531333e-003
1.180241e+003,4.242772e-003
1.182170e+003,4.126778e-003
1.184098e+003,4.086623e-003
1.186027e+003,4.100125e-003
1.187955e+003,4.175870e-003
1.189884e+003,4.233290e-003
1.191812e+003,4.333956e-003
1.193740e+003,4.451167e-003
1.195669e+003,4.662329e-003
1.197598e+003,4.908459e-003
1.199526e+003,5.229754e-003
1.201455e+003,5.547358e-003
1.203383e+003,5.921207e-003
1.205312e+003,6.299198e-003
1.207240e+003,6.659074e-003
1.209168e+003,6.934145e-003
1.211097e+003,7.227674e-003
1.213026e+003,7.378712e-003
1.214954e+003,7.486749e-003
1.216883e+003,7.600684e-003
1.218811e+003,7.754371e-003
1.220740e+003,7.929474e-003
1.222668e+003,8.095726e-003
1.224596e+003,8.223802e-003
1.226525e+003,8.385794e-003
1.228453e+003,8.518031e-003
1.230382e+003,8.687221e-003
1.232311e+003,8.857634e-003
1.234239e+003,9.039059e-003
1.236167e+003,9.169919e-003
1.238096e+003,9.276072e-003
1.240025e+003,9.329373e-003
1.241953e+003,9.392364e-003
1.243882e+003,9.320635e-003
1.245810e+003,9.163735e-003
1.247739e+003,8.922681e-003
1.249667e+003,8.595221e-003
1.251595e+003,8.140417e-003
1.253524e+003,7.707281e-003
1.255453e+003,7.285142e-003
1.257381e+003,6.873099e-003
1.259310e+003,6.396653e-003
1.261238e+003,5.929679e-003
1.263167e+003,5.503153e-003
1.265095e+003,5.233621e-003
1.267023e+003,5.031353e-003
1.268952e+003,4.928533e-003
1.270880e+003,4.777085e-003
1.272809e+003,4.689341e-003
1.274738e+003,4.606871e-003
1.276666e+003,4.565686e-003
1.278594e+003,4.519090e-003
1.280523e+003,4.564697e-003
1.282451e+003,4.580332e-003
1.284380e+003,4.659222e-003
1.286308e+003,4.741246e-003
1.288237e+003,4.888887e-003
1.290166e+003,5.008446e-003
1.292094e+003,5.163275e-003
1.294022e+003,5.340012e-003
1.295951e+003,5.541313e-003
1.297879e+003,5.654005e-003
1.299808e+003,5.755594e-003
1.301736e+003,5.762577e-003
1.303665e+003,5.793126e-003
1.305594e+003,5.756214e-003
1.307522e+003,5.715232e-003
1.309450e+003,5.589772e-003
1.311379e+003,5.470885e-003
1.313307e+003,5.248295e-003
1.315236e+003,5.063578e-003
1.317164e+003,4.870780e-003
1.319093e+003,4.680630e-003
1.321021e+003,4.383724e-003
1.322950e+003,4.223870e-003
1.324878e+003,4.103139e-003
1.326807e+003,4.083324e-003
1.328735e+003,4.021753e-003
1.330664e+003,4.054872e-003
1.332592e+003,4.133970e-003
1.334521e+003,4.349271e-003
1.336449e+003,4.617469e-003
1.338378e+003,5.098470e-003
1.340306e+003,5.362995e-003
1.342235e+003,5.463373e-003
1.344163e+003,5.667627e-003
1.346092e+003,6.050747e-003
1.348021e+003,6.431067e-003
1.349949e+003,6.804790e-003
1.351877e+003,6.912908e-003
1.353806e+003,6.931741e-003
1.355734e+003,6.797299e-003
1.357663e+003,6.804982e-003
1.359591e+003,6.946068e-003
1.361520e+003,7.391216e-003
1.363448e+003,7.854903e-003
1.365377e+003,8.254172e-003
1.367305e+003,8.537481e-003
1.369234e+003,8.448895e-003
1.371162e+003,7.787984e-003
1.373091e+003,7.082138e-003
1.375019e+003,6.271524e-003
1.376948e+003,5.815538e-003
1.378876e+003,5.278567e-003
1.380805e+003,4.713485e-003
1.382733e+003,4.263928e-003
1.384662e+003,4.182093e-003
1.386590e+003,4.201168e-003
1.388519e+003,4.136074e-003
1.390447e+003,4.009448e-003
1.392376e+003,4.149910e-003
1.394304e+003,4.264414e-003
1.396233e+003,4.387978e-003
1.398161e+003,4.365591e-003
1.400090e+003,4.391160e-003
1.402018e+003,4.307043e-003
1.403947e+003,4.520465e-003
1.405875e+003,4.540943e-003
1.407804e+003,4.659900e-003
1.409732e+003,4.784234e-003
1.411661e+003,5.073722e-003
1.413589e+003,5.129682e-003
1.415518e+003,5.473427e-003
1.417446e+003,5.750423e-003
1.419375e+003,6.085962e-003
1.421303e+003,6.202728e-003
1.423232e+003,6.885622e-003
1.425160e+003,7.574508e-003
1.427089e+003,8.491302e-003
1.429017e+003,9.632396e-003
1.430946e+003,1.124389e-002
1.432874e+003,1.247771e-002
1.434803e+003,1.383794e-002
1.436731e+003,1.505353e-002
1.438660e+003,1.609553e-002
1.440588e+003,1.676688e-002
1.442517e+003,1.772340e-002
1.444445e+003,1.838461e-002
1.446374e+003,1.951256e-002
1.448302e+003,2.089928e-002
1.450231e+003,2.326275e-002
1.452159e+003,2.701176e-002
1.454088e+003,3.234636e-002
1.456016e+003,3.876223e-002
1.457945e+003,6.149276e-002
1.459873e+003,1.028098e-001
1.461802e+003,1.326966e-001
1.463730e+003,1.168785e-001
1.465659e+003,8.038114e-002
1.467587e+003,7.775377e-002
1.469516e+003,8.892674e-002
1.471444e+003,1.194398e-001
1.473373e+003,1.137092e-001
1.475301e+003,5.780548e-002
1.477230e+003,2.186398e-002
1.479158e+003,1.207146e-002
1.481087e+003,8.175470e-003
1.483015e+003,6.537639e-003
1.484944e+003,5.403817e-003
1.486872e+003,5.335823e-003
1.488801e+003,4.707552e-003
1.490729e+003,4.574675e-003
1.492658e+003,3.921432e-003
1.494586e+003,4.082810e-003
1.496515e+003,3.662847e-003
1.498443e+003,3.706440e-003
1.500372e+003,3.289344e-003
1.502300e+003,3.322909e-003
1.504229e+003,3.169386e-003
1.506157e+003,3.773870e-003
1.508086e+003,3.190177e-003
1.510014e+003,3.290685e-003
1.511943e+003,2.927506e-003
1.513871e+003,3.045036e-003
1.515800e+003,3.084112e-003
1.517728e+003,3.359921e-003
1.519657e+003,3.236933e-003
1.521585e+003,3.464364e-003
1.523514e+003,2.987575e-003
1.525442e+003,3.323251e-003
1.527371e+003,3.146097e-003
1.529299e+003,3.086435e-003
1.531228e+003,3.046591e-003
1.533156e+003,3.300687e-003
1.535085e+003,2.986142e-003
1.537013e+003,3.279472e-003
1.538942e+003,3.463084e-003
1.540870e+003,3.726389e-003
1.542799e+003,3.416250e-003
1.544727e+003,3.384028e-003
1.546656e+003,2.959117e-003
1.548584e+003,3.034106e-003
1.550513e+003,2.936181e-003
1.552441e+003,2.978439e-003
1.554370e+003,3.002720e-003
1.556298e+003,3.298730e-003
1.558227e+003,3.677065e-003
1.560155e+003,3.145438e-003
1.562084e+003,2.714559e-003
1.564012e+003,2.783967e-003
1.565941e+003,2.674008e-003
1.567869e+003,2.885517e-003
1.569798e+003,2.829203e-003
1.571726e+003,2.613444e-003
1.573655e+003,2.638100e-003
1.575583e+003,3.043314e-003
1.577512e+003,2.812304e-003
1.579440e+003,2.714187e-003
1.581369e+003,2.632491e-003
1.583297e+003,2.649717e-003
1.585226e+003,2.591074e-003
1.587154e+003,2.667677e-003
1.589083e+003,2.649263e-003
1.591011e+003,2.656316e-003
1.592940e+003,2.637755e-003
1.594868e+003,2.733968e-003
1.596797e+003,2.634263e-003
1.598725e+003,2.627313e-003
1.600654e+003,2.611276e-003
1.602582e+003,2.676407e-003
1.604511e+003,2.612418e-003
1.606439e+003,2.689978e-003
1.608368e+003,2.670873e-003
1.610296e+003,2.697082e-003
1.612225e+003,2.685780e-003
1.614153e+003,2.925213e-003
1.616082e+003,3.071941e-003
1.618010e+003,2.948657e-003
1.619939e+003,2.901522e-003
1.621867e+003,3.188932e-003
1.623796e+003,3.302919e-003
1.625724e+003,3.320090e-003
1.627653e+003,3.331531e-003
1.629581e+003,3.348967e-003
1.631510e+003,3.375202e-003
1.633438e+003,3.645856e-003
1.635367e+003,3.936250e-003
1.637295e+003,3.937084e-003
1.639224e+003,3.892032e-003
1.641152e+003,3.943264e-003
1.643081e+003,3.901144e-003
1.645009e+003,4.144588e-003
1.646938e+003,4.070360e-003
1.648866e+003,3.593504e-003
1.650795e+003,3.545176e-003
1.652723e+003,3.944751e-003
1.654652e+003,3.385864e-003
1.656580e+003,3.184594e-003
1.658509e+003,3.038326e-003
1.660437e+003,3.078504e-003
1.662366e+003,3.073676e-003
1.664294e+003,2.883535e-003
1.666223e+003,2.819533e-003
1.668151e+003,3.007907e-003
1.670080e+003,2.854405e-003
1.672008e+003,2.746232e-003
1.673937e+003,2.634844e-003
1.675865e+003,2.480771e-003
1.677794e+003,2.327405e-003
1.679722e+003,2.373200e-003
1.681651e+003,2.359731e-003
1.683579e+003,2.621701e-003
1.685508e+003,2.185252e-003
1.687436e+003,2.193222e-003
1.689365e+003,2.007103e-003
1.691293e+003,1.773765e-003
1.693222e+003,1.780080e-003
1.695150e+003,1.983376e-003
1.697079e+003,1.859326e-003
1.699007e+003,2.012527e-003
1.700936e+003,1.690624e-003
1.702864e+003,1.602478e-003
1.704793e+003,1.632163e-003
1.706721e+003,1.563225e-003
1.708650e+003,1.466816e-003
1.710578e+003,1.508541e-003
1.712507e+003,1.489926e-003
1.714435e+003,1.808794e-003
1.716364e+003,1.898019e-003
1.718292e+003,1.684139e-003
1.720221e+003,1.509171e-003
1.722149e+003,1.685459e-003
1.724078e+003,1.689626e-003
1.726006e+003,1.698449e-003
1.727935e+003,1.769356e-003
1.729863e+003,1.934826e-003
1.731792e+003,1.993133e-003
1.733720e+003,2.135476e-003
1.735649e+003,1.707800e-003
1.737577e+003,1.821136e-003
1.739506e+003,1.939369e-003
1.741434e+003,1.839850e-003
1.743363e+003,1.788916e-003
1.745291e+003,1.734482e-003
1.747220e+003,1.616381e-003
1.749148e+003,1.614207e-003
1.751077e+003,1.358295e-003
1.753005e+003,1.050558e-003
1.754934e+003,8.574314e-004
1.756862e+003,8.027740e-004
1.758791e+003,6.757863e-004
1.760719e+003,7.119365e-004
1.762648e+003,4.492700e-004
1.764576e+003,3.497899e-004
1.766505e+003,4.345402e-004
1.768433e+003,5.803816e-004
1.770362e+003,6.009787e-004
1.772290e+003,5.820058e-004
1.774219e+003,2.228692e-004
1.776147e+003,1.809821e-004
1.778076e+003,1.965836e-004
1.780004e+003,3.684238e-004
1.781933e+003,2.959445e-004
1.783861e+003,3.567412e-004
1.785790e+003,2.315417e-004
1.787718e+003,2.089143e-004
1.789646e+003,3.058799e-004
1.791575e+003,4.861727e-004
1.793504e+003,2.402328e-004
1.795432e+003,2.190396e-004
1.797361e+003,1.774393e-004
1.799289e+003,2.994575e-004
1.801218e+003,2.300367e-004
1.803146e+003,9.129941e-005
1.805074e+003,-8.958951e-005
1.807003e+003,-5.223975e-005
1.808932e+003,-8.886680e-005
1.810860e+003,-9.469688e-005
1.812789e+003,-3.195740e-004
1.814717e+003,-5.911291e-004
1.816646e+003,-7.615611e-004
1.818574e+003,-4.745871e-004
1.820502e+003,-2.790168e-004
1.822431e+003,-1.176409e-004
1.824360e+003,-2.927035e-004
1.826288e+003,-4.226081e-004
1.828217e+003,-5.040839e-004
1.830145e+003,-4.298463e-004
1.832073e+003,-6.614104e-004
1.834002e+003,-6.207414e-004
1.835931e+003,-6.305240e-004
1.837859e+003,-5.659088e-004
1.839788e+003,-7.464141e-004
1.841716e+003,-8.492246e-004
1.843645e+003,-7.976331e-004
1.845573e+003,-6.205440e-004
1.847501e+003,-7.159933e-004
1.849430e+003,-6.987378e-004
1.851359e+003,-8.826926e-004
1.853287e+003,-8.337721e-004
1.855216e+003,-8.792989e-004
1.857144e+003,-8.494928e-004
1.859073e+003,-1.010634e-003
1.861001e+003,-9.345859e-004
1.862929e+003,-9.887107e-004
1.864858e+003,-8.249134e-004
1.866787e+003,-7.579662e-004
1.868715e+003,-6.799214e-004
1.870644e+003,-9.050295e-004
1.872572e+003,-1.057547e-003
1.874500e+003,-1.201108e-003
1.876429e+003,-1.087032e-003
1.878357e+003,-1.112778e-003
1.880286e+003,-1.014907e-003
1.882215e+003,-1.150738e-003
1.884143e+003,-9.974465e-004
1.886072e+003,-9.609275e-004
1.888000e+003,-7.434264e-004
1.889928e+003,-1.009125e-003
1.891857e+003,-1.128513e-003
1.893785e+003,-1.048464e-003
1.895714e+003,-6.611533e-004
1.897643e+003,-6.041154e-004
1.899571e+003,-6.875582e-004
1.901500e+003,-6.807894e-004
1.903428e+003,-6.740242e-004
1.905356e+003,-6.672591e-004
1.907285e+003,-6.604940e-004
1.909213e+003,-6.537288e-004
1.911142e+003,-6.469637e-004
1.913071e+003,-6.402060e-004
1.914999e+003,-6.334484e-004
1.916927e+003,-6.266907e-004
1.918856e+003,-6.199293e-004
1.920784e+003,-6.131716e-004
1.922713e+003,-6.064214e-004
1.924641e+003,-5.996712e-004
1.926570e+003,-5.929135e-004
1.928499e+003,-5.861633e-004
1.930427e+003,-5.794168e-004
1.932355e+003,-5.726703e-004
1.934284e+003,-5.659200e-004
1.936212e+003,-5.591735e-004
1.938141e+003,-5.524307e-004
1.940070e+003,-5.456880e-004
1.941998e+003,-5.389452e-004
1.943927e+003,-5.322061e-004
1.945855e+003,-5.254671e-004
1.947783e+003,-5.187280e-004
1.949712e+003,-5.119927e-004
1.951640e+003,-5.052574e-004
1.953569e+003,-4.985258e-004
1.955498e+003,-4.917942e-004
1.957426e+003,-4.850626e-004
1.959354e+003,-4.783310e-004
1.961283e+003,-4.716069e-004
1.963211e+003,-4.648790e-004
1.965140e+003,-4.581548e-004
1.967068e+003,-4.514307e-004
1.968997e+003,-4.447065e-004
1.970926e+003,-4.379787e-004
1.972854e+003,-4.312582e-004
1.974782e+003,-4.245453e-004
1.976711e+003,-4.178248e-004
1.978639e+003,-4.111044e-004
1.980568e+003,-4.043877e-004
1.982496e+003,-3.976785e-004
1.984425e+003,-3.909618e-004
1.986354e+003,-3.842488e-004
1.988282e+003,-3.775395e-004
1.990210e+003,-3.708340e-004
1.992139e+003,-3.641248e-004
1.994067e+003,-3.574155e-004
1.995996e+003,-3.507100e-004
1.997924e+003,-3.440082e-004
1.999853e+003,-3.373064e-004
2.001781e+003,-3.306046e-004
2.003710e+003,-3.239028e-004
2.005638e+003,-3.172047e-004
2.007567e+003,-3.105067e-004
2.009495e+003,-3.038123e-004
2.011424e+003,-2.971180e-004
2.013352e+003,-2.904199e-004
2.015281e+003,-2.837293e-004
2.017209e+003,-2.770387e-004
2.019138e+003,-2.703480e-004
2.021066e+003,-2.636574e-004
2.022995e+003,-2.569705e-004
2.024923e+003,-2.502836e-004
2.026852e+003,-2.436042e-004
2.028781e+003,-2.369173e-004
2.030709e+003,-2.302378e-004
2.032637e+003,-2.235547e-004
2.034566e+003,-2.168790e-004
2.036494e+003,-2.101958e-004
2.038423e+003,-2.035201e-004
2.040351e+003,-1.968443e-004
2.042280e+003,-1.901686e-004
2.044208e+003,-1.834966e-004
2.046137e+003,-1.768246e-004
2.048065e+003,-1.701526e-004
2.049994e+003,-1.634844e-004
2.051922e+003,-1.568161e-004
2.053851e+003,-1.501478e-004
2.055779e+003,-1.434870e-004
2.057708e+003,-1.368187e-004
2.059636e+003,-1.301579e-004
2.061565e+003,-1.234971e-004
2.063493e+003,-1.168363e-004
2.065422e+003,-1.101792e-004
2.067350e+003,-1.035221e-004
2.069279e+003,-9.686127e-005
2.071207e+003,-9.020790e-005
2.073136e+003,-8.355454e-005
2.075064e+003,-7.690489e-005
2.076993e+003,-7.025525e-005
2.078921e+003,-6.360561e-005
2.080850e+003,-5.695596e-005
2.082778e+003,-5.031005e-005
2.084707e+003,-4.366040e-005
2.086635e+003,-3.701448e-005
2.088564e+003,-3.037229e-005
2.090492e+003,-2.373382e-005
2.092421e+003,-1.708791e-005
2.094349e+003,-1.045316e-005
2.096278e+003,-3.810972e-006
2.098206e+003,2.831221e-006
2.100135e+003,9.462237e-006
2.102063e+003,1.610070e-005
2.103992e+003,2.272800e-005
2.105920e+003,2.935901e-005
2.107849e+003,3.599003e-005
2.109777e+003,4.262105e-005
2.111706e+003,4.924834e-005
2.113634e+003,5.587935e-005
2.115563e+003,6.249920e-005
2.117491e+003,6.912649e-005
2.119420e+003,7.574633e-005
2.121348e+003,8.236989e-005
2.123277e+003,8.898601e-005
2.125205e+003,9.560585e-005
2.127134e+003,1.022220e-004
2.129062e+003,1.088418e-004
2.130991e+003,1.154579e-004
2.132919e+003,1.220703e-004
2.134848e+003,1.286790e-004
2.136776e+003,1.352951e-004
2.138705e+003,1.419000e-004
2.140633e+003,1.485087e-004
2.142562e+003,1.551248e-004
2.144490e+003,1.617260e-004
2.146419e+003,1.683347e-004
2.148347e+003,1.749322e-004
2.150276e+003,1.815371e-004
2.152204e+003,1.881383e-004
2.154133e+003,1.947358e-004
2.156061e+003,2.013408e-004
2.157990e+003,2.079345e-004
2.159918e+003,2.145246e-004
2.161847e+003,2.211258e-004
2.163775e+003,2.277121e-004
2.165704e+003,2.343059e-004
2.167632e+003,2.408959e-004
2.169561e+003,2.474859e-004
2.171489e+003,2.540722e-004
2.173418e+003,2.606623e-004
2.175346e+003,2.672486e-004
2.177275e+003,2.738312e-004
2.179203e+003,2.804138e-004
2.181132e+003,2.869964e-004
2.183060e+003,2.935715e-004
2.184989e+003,3.001504e-004
2.186917e+003,3.067367e-004
2.188846e+003,3.133081e-004
2.190774e+003,3.198832e-004
2.192703e+003,3.264546e-004
2.194631e+003,3.330261e-004
2.196560e+003,3.396012e-004
2.198488e+003,3.461652e-004
2.200417e+003,3.527403e-004
2.202345e+003,3.593080e-004
2.204274e+003,3.658757e-004
2.206202e+003,3.724396e-004
2.208131e+003,3.789999e-004
2.210059e+003,3.855601e-004
2.211988e+003,3.921203e-004
2.213916e+003,3.986768e-004
2.215845e+003,4.052334e-004
2.217773e+003,4.117973e-004
2.219702e+003,4.183501e-004
2.221630e+003,4.249066e-004
2.223559e+003,4.314594e-004
2.225487e+003,4.380085e-004
2.227416e+003,4.445612e-004
2.229344e+003,4.511140e-004
2.231273e+003,4.576594e-004
2.233201e+003,4.642010e-004
2.235130e+003,4.707463e-004
2.237058e+003,4.772916e-004
2.238987e+003,4.838295e-004
2.240915e+003,4.903711e-004
2.242844e+003,4.969127e-004
2.244772e+003,5.034544e-004
2.246701e+003,5.099922e-004
2.248629e+003,5.165264e-004
2.250558e+003,5.230606e-004
2.252486e+003,5.295947e-004
2.254415e+003,5.361289e-004
2.256343e+003,5.426593e-004
2.258272e+003,5.491860e-004
2.260200e+003,5.557165e-004
2.262129e+003,5.622469e-004
2.264057e+003,5.687736e-004
2.265986e+003,5.752966e-004
2.267914e+003,5.818196e-004
2.269843e+003,5.883351e-004
2.271771e+003,5.948618e-004
2.273700e+003,6.013811e-004
2.275628e+003,6.079003e-004
2.277557e+003,6.144196e-004
2.279485e+003,6.209388e-004
2.281414e+003,6.274469e-004
2.283342e+003,6.339625e-004
2.285271e+003,6.404668e-004
2.287199e+003,6.469786e-004
2.289128e+003,6.534904e-004
2.291056e+003,6.599985e-004
2.292985e+003,6.665066e-004
2.294913e+003,6.730109e-004
2.296842e+003,6.795153e-004
2.298770e+003,6.860159e-004
2.300699e+003,6.925203e-004
2.302627e+003,6.990209e-004
2.304556e+003,7.055216e-004
2.306484e+003,7.120185e-004
2.308413e+003,7.185154e-004
2.310341e+003,7.250048e-004
2.312270e+003,7.314980e-004
2.314198e+003,7.379912e-004
2.316127e+003,7.444806e-004
2.318055e+003,7.509738e-004
2.319984e+003,7.574596e-004
2.321912e+003,7.639527e-004
2.323841e+003,7.704385e-004
2.325769e+003,7.769167e-004
2.327698e+003,7.834025e-004
2.329626e+003,7.898882e-004
2.331555e+003,7.963628e-004
2.333483e+003,8.028448e-004
2.335412e+003,8.093230e-004
2.337340e+003,8.158013e-004
2.339269e+003,8.222759e-004
2.341197e+003,8.287504e-004
2.343126e+003,8.352250e-004
2.345054e+003,8.416958e-004
2.346983e+003,8.481704e-004
2.348911e+003,8.546375e-004
2.350840e+003,8.611009e-004
2.352768e+003,8.675680e-004
2.354697e+003,8.740388e-004
2.356625e+003,8.804984e-004
2.358554e+003,8.869618e-004
2.360482e+003,8.934215e-004
2.362411e+003,8.998774e-004
2.364339e+003,9.063445e-004
2.366268e+003,9.128004e-004
2.368196e+003,9.192526e-004
2.370125e+003,9.257086e-004
2.372053e+003,9.321608e-004
2.373982e+003,9.386130e-004
2.375910e+003,9.450652e-004
2.377839e+003,9.515174e-004
2.379767e+003,9.579659e-004
2.381696e+003,9.644143e-004
2.383624e+003,9.708591e-004
2.385553e+003,9.773038e-004
2.387481e+003,9.837449e-004
2.389410e+003,9.901859e-004
2.391338e+003,9.966344e-004
2.393267e+003,1.003068e-003
2.395195e+003,1.009505e-003
2.397124e+003,1.015943e-003
2.399052e+003,1.022380e-003
2.400981e+003,9.767450e-004
2.402909e+003,1.032177e-003
2.404838e+003,1.058791e-003
2.406766e+003,1.185767e-003
2.408695e+003,1.391169e-003
2.410623e+003,1.445860e-003
2.412552e+003,1.645576e-003
2.414480e+003,1.788490e-003
2.416409e+003,1.710877e-003
2.418337e+003,1.555346e-003
2.420266e+003,1.530353e-003
2.422194e+003,1.582302e-003
2.424123e+003,1.651574e-003
2.426051e+003,1.624309e-003
2.427979e+003,1.602706e-003
2.429908e+003,1.570061e-003
2.431837e+003,1.608178e-003
2.433765e+003,1.718260e-003
2.435694e+003,1.778513e-003
2.437622e+003,1.744788e-003
2.439551e+003,1.785599e-003
2.441479e+003,1.790021e-003
2.443407e+003,1.790140e-003
2.445336e+003,1.755692e-003
2.447265e+003,1.865961e-003
2.449193e+003,1.916137e-003
2.451122e+003,1.961317e-003
2.453050e+003,1.999445e-003
2.454979e+003,1.916464e-003
2.456907e+003,1.831654e-003
2.458836e+003,1.963545e-003
2.460764e+003,2.118614e-003
2.462693e+003,2.089564e-003
2.464621e+003,1.950510e-003
2.466550e+003,1.971148e-003
2.468478e+003,1.988221e-003
2.470406e+003,2.154820e-003
2.472335e+003,2.255291e-003
2.474264e+003,2.373286e-003
2.476192e+003,2.347056e-003
2.478121e+003,2.326861e-003
2.480049e+003,2.407793e-003
2.481978e+003,2.490819e-003
2.483906e+003,2.581634e-003
2.485835e+003,2.495520e-003
2.487763e+003,2.417348e-003
2.489692e+003,2.478413e-003
2.491620e+003,2.376851e-003
2.493549e+003,2.411235e-003
2.495477e+003,2.629794e-003
2.497406e+003,2.811331e-003
2.499334e+003,2.838947e-003
2.501263e+003,2.860554e-003
2.503191e+003,2.892919e-003
2.505120e+003,3.001317e-003
2.507048e+003,2.954397e-003
2.508977e+003,2.805002e-003
2.510905e+003,2.764806e-003
2.512833e+003,2.914686e-003
2.514762e+003,3.010955e-003
2.516691e+003,3.117736e-003
2.518619e+003,3.231473e-003
2.520548e+003,3.367543e-003
2.522476e+003,3.489170e-003
2.524405e+003,3.554374e-003
2.526333e+003,3.626328e-003
2.528261e+003,3.772408e-003
2.530190e+003,3.737438e-003
2.532119e+003,3.603645e-003
2.534047e+003,3.684063e-003
2.535976e+003,3.849830e-003
2.537904e+003,3.750745e-003
2.539833e+003,3.643777e-003
2.541761e+003,3.828950e-003
2.543689e+003,4.101533e-003
2.545618e+003,4.166733e-003
2.547547e+003,4.167370e-003
2.549475e+003,4.209850e-003
2.551404e+003,4.377119e-003
2.553332e+003,4.290272e-003
2.555260e+003,4.447769e-003
2.557189e+003,4.556093e-003
2.559117e+003,4.508235e-003
2.561046e+003,4.717171e-003
2.562975e+003,4.893336e-003
2.564903e+003,4.944030e-003
2.566832e+003,5.046289e-003
2.568760e+003,5.118534e-003
2.570688e+003,5.194537e-003
2.572617e+003,5.239960e-003
2.574546e+003,5.575746e-003
2.576474e+003,5.891208e-003
2.578403e+003,5.987421e-003
2.580331e+003,6.070983e-003
2.582260e+003,6.223090e-003
2.584188e+003,6.241065e-003
2.586116e+003,6.430577e-003
2.588045e+003,6.603781e-003
2.589974e+003,6.728992e-003
2.591902e+003,6.874267e-003
2.593831e+003,7.115025e-003
2.595759e+003,7.345896e-003
2.597688e+003,7.595643e-003
2.599616e+003,7.695295e-003
2.601544e+003,7.819392e-003
2.603473e+003,8.001924e-003
2.605402e+003,8.321971e-003
2.607330e+003,8.520957e-003
2.609259e+003,8.684885e-003
2.611187e+003,8.949280e-003
2.613115e+003,9.248003e-003
2.615044e+003,9.453453e-003
2.616972e+003,9.668242e-003
2.618901e+003,1.000202e-002
2.620830e+003,1.032222e-002
2.622758e+003,1.064580e-002
2.624687e+003,1.110009e-002
2.626615e+003,1.151850e-002
2.628543e+003,1.182453e-002
2.630472e+003,1.211411e-002
2.632400e+003,1.237957e-002
2.634329e+003,1.255119e-002
2.636258e+003,1.264071e-002
2.638186e+003,1.262011e-002
2.640115e+003,1.261292e-002
2.642043e+003,1.263168e-002
2.643971e+003,1.270927e-002
2.645900e+003,1.279278e-002
2.647828e+003,1.285645e-002
2.649757e+003,1.290375e-002
2.651686e+003,1.298865e-002
2.653614e+003,1.313069e-002
2.655542e+003,1.331973e-002
2.657471e+003,1.341547e-002
2.659399e+003,1.335184e-002
2.661328e+003,1.318865e-002
2.663256e+003,1.294693e-002
2.665185e+003,1.266810e-002
2.667114e+003,1.250032e-002
2.669042e+003,1.236188e-002
2.670970e+003,1.218946e-002
2.672899e+003,1.200300e-002
2.674827e+003,1.191585e-002
2.676756e+003,1.185299e-002
2.678685e+003,1.176335e-002
2.680613e+003,1.173306e-002
2.682542e+003,1.174288e-002
2.684470e+003,1.174225e-002
2.686398e+003,1.169975e-002
2.688327e+003,1.169455e-002
2.690255e+003,1.178924e-002
2.692184e+003,1.181586e-002
2.694113e+003,1.183321e-002
2.696041e+003,1.189445e-002
2.697969e+003,1.200859e-002
2.699898e+003,1.218602e-002
2.701826e+003,1.240185e-002
2.703755e+003,1.256391e-002
2.705683e+003,1.269695e-002
2.707612e+003,1.287466e-002
2.709541e+003,1.303108e-002
2.711469e+003,1.312248e-002
2.713397e+003,1.328005e-002
2.715326e+003,1.351041e-002
2.717254e+003,1.366242e-002
2.719183e+003,1.383135e-002
2.721111e+003,1.409921e-002
2.723040e+003,1.428184e-002
2.724969e+003,1.449308e-002
2.726897e+003,1.471207e-002
2.728825e+003,1.495111e-002
2.730754e+003,1.523669e-002
2.732682e+003,1.548251e-002
2.734611e+003,1.570816e-002
2.736539e+003,1.596133e-002
2.738468e+003,1.619994e-002
2.740396e+003,1.640939e-002
2.742325e+003,1.653601e-002
2.744253e+003,1.659848e-002
2.746182e+003,1.665056e-002
2.748110e+003,1.679892e-002
2.750039e+003,1.693362e-002
2.751967e+003,1.707968e-002
2.753896e+003,1.734484e-002
2.755824e+003,1.763173e-002
2.757753e+003,1.800219e-002
2.759681e+003,1.840466e-002
2.761610e+003,1.883518e-002
2.763538e+003,1.925210e-002
2.765467e+003,1.969336e-002
2.767395e+003,2.012790e-002
2.769324e+003,2.063497e-002
2.771252e+003,2.117707e-002
2.773181e+003,2.175411e-002
2.775109e+003,2.240288e-002
2.777038e+003,2.315703e-002
2.778966e+003,2.401033e-002
2.780895e+003,2.488593e-002
2.782823e+003,2.588619e-002
2.784752e+003,2.697805e-002
2.786680e+003,2.810108e-002
2.788609e+003,2.931267e-002
2.790537e+003,3.058944e-002
2.792466e+003,3.189475e-002
2.794394e+003,3.323629e-002
2.796323e+003,3.455003e-002
2.798251e+003,3.597327e-002
2.800180e+003,3.755581e-002
2.802108e+003,3.916934e-002
2.804037e+003,4.089722e-002
2.805965e+003,4.277636e-002
2.807894e+003,4.489722e-002
2.809822e+003,4.729983e-002
2.811751e+003,5.005053e-002
2.813679e+003,5.319946e-002
2.815608e+003,5.682641e-002
2.817536e+003,6.100322e-002
2.819465e+003,6.588275e-002
2.821393e+003,7.174544e-002
2.823322e+003,7.866594e-002
2.825250e+003,8.703239e-002
2.827179e+003,9.728498e-002
2.829107e+003,1.100117e-001
2.831036e+003,1.261539e-001
2.832964e+003,1.469747e-001
2.834893e+003,1.747167e-001
2.836821e+003,2.124372e-001
2.838750e+003,2.648259e-001
2.840678e+003,3.390213e-001
2.842607e+003,4.417429e-001
2.844535e+003,5.672423e-001
2.846464e+003,6.671780e-001
2.848392e+003,6.529332e-001
2.850321e+003,5.238159e-001
2.852249e+003,3.799616e-001
2.854178e+003,2.757986e-001
2.856106e+003,2.066914e-001
2.858035e+003,1.595758e-001
2.859963e+003,1.273592e-001
2.861892e+003,1.060279e-001
2.863820e+003,9.275432e-002
2.865749e+003,8.543749e-002
2.867677e+003,8.265261e-002
2.869606e+003,8.346409e-002
2.871534e+003,8.750966e-002
2.873463e+003,9.468408e-002
2.875391e+003,1.051351e-001
2.877320e+003,1.186724e-001
2.879248e+003,1.345683e-001
2.881177e+003,1.518477e-001
2.883105e+003,1.697730e-001
2.885034e+003,1.880174e-001
2.886962e+003,2.064839e-001
2.888891e+003,2.250058e-001
2.890819e+003,2.433234e-001
2.892748e+003,2.613764e-001
2.894676e+003,2.792012e-001
2.896605e+003,2.971012e-001
2.898533e+003,3.159824e-001
2.900462e+003,3.374910e-001
2.902390e+003,3.639539e-001
2.904319e+003,3.988001e-001
2.906247e+003,4.461969e-001
2.908176e+003,5.095933e-001
2.910104e+003,5.896312e-001
2.912033e+003,6.759450e-001
2.913961e+003,7.347276e-001
2.915890e+003,7.251520e-001
2.917818e+003,6.504750e-001
2.919747e+003,5.520051e-001
2.921675e+003,4.583197e-001
2.923604e+003,3.783633e-001
2.925532e+003,3.133059e-001
2.927461e+003,2.606245e-001
2.929389e+003,2.168412e-001
2.931318e+003,1.796526e-001
2.933246e+003,1.480980e-001
2.935175e+003,1.215205e-001
2.937103e+003,9.927210e-002
2.939032e+003,8.074521e-002
2.940960e+003,6.543793e-002
2.942889e+003,5.302940e-002
2.944817e+003,4.328453e-002
2.946746e+003,3.584586e-002
2.948674e+003,3.033164e-002
2.950603e+003,2.627545e-002
2.952531e+003,2.314636e-002
2.954460e+003,2.049079e-002
2.956388e+003,1.817154e-002
2.958317e+003,1.598789e-002
2.960245e+003,1.392648e-002
2.962174e+003,1.203406e-002
2.964102e+003,1.040164e-002
2.966031e+003,8.995760e-003
2.967959e+003,7.756803e-003
2.969888e+003,6.673697e-003
2.971816e+003,5.767044e-003
2.973745e+003,4.909780e-003
2.975673e+003,4.198354e-003
2.977602e+003,3.633954e-003
2.979530e+003,3.136009e-003
2.981459e+003,2.616800e-003
2.983387e+003,2.225332e-003
2.985316e+003,1.957800e-003
2.987244e+003,1.691837e-003
2.989173e+003,1.405668e-003
2.991101e+003,1.198273e-003
2.993030e+003,1.086909e-003
2.994958e+003,9.490475e-004
2.996887e+003,8.190945e-004
2.998815e+003,8.618906e-004
3.000744e+003,9.327009e-004
3.002672e+003,8.546039e-004
3.004601e+003,6.975047e-004
3.006529e+003,6.196722e-004
3.008458e+003,6.001815e-004
3.010386e+003,5.862676e-004
3.012315e+003,5.314834e-004
3.014243e+003,5.973727e-004
3.016172e+003,6.362870e-004
3.018100e+003,5.362444e-004
3.020029e+003,4.522242e-004
3.021957e+003,4.956871e-004
3.023886e+003,5.790591e-004
3.025814e+003,6.308146e-004
3.027743e+003,5.785823e-004
3.029671e+003,6.019585e-004
3.031600e+003,5.956553e-004
3.033528e+003,5.046837e-004
3.035457e+003,4.011318e-004
3.037385e+003,2.687499e-004
3.039314e+003,1.261495e-004
3.041242e+003,5.501136e-005
3.043171e+003,-6.249174e-005
3.045099e+003,-1.761504e-004
3.047028e+003,-2.636760e-004
3.048956e+003,-3.453232e-004
3.050885e+003,-4.042424e-004
3.052813e+003,-4.545040e-004
3.054742e+003,-4.947223e-004
3.056670e+003,-5.276166e-004
3.058599e+003,-5.588643e-004
3.060527e+003,-5.659983e-004
3.062456e+003,-5.726032e-004
3.064384e+003,-5.408823e-004
3.066313e+003,-5.965270e-004
3.068241e+003,-5.058832e-004
3.070170e+003,-4.441068e-004
3.072098e+003,-5.119964e-004
3.074027e+003,-5.776249e-004
3.075955e+003,-5.945675e-004
3.077884e+003,-5.492605e-004
3.079812e+003,-4.935004e-004
3.081741e+003,-5.318858e-004
3.083669e+003,-5.874373e-004
3.085598e+003,-6.563552e-004
3.087526e+003,-7.518530e-004
3.089455e+003,-9.032525e-004
3.091383e+003,-9.802617e-004
3.093312e+003,-1.082826e-003
3.095240e+003,-1.205571e-003
3.097169e+003,-1.396321e-003
3.099097e+003,-1.489598e-003
3.101026e+003,-1.657654e-003
3.102954e+003,-1.887340e-003
3.104883e+003,-1.899712e-003
3.106811e+003,-1.989760e-003
3.108740e+003,-2.114385e-003
3.110668e+003,-2.129707e-003
3.112597e+003,-2.120182e-003
3.114525e+003,-2.073441e-003
3.116454e+003,-2.046913e-003
3.118382e+003,-2.091222e-003
3.120311e+003,-2.117217e-003
3.122239e+003,-2.044983e-003
3.124168e+003,-1.932524e-003
3.126096e+003,-1.968589e-003
3.128025e+003,-2.111759e-003
3.129953e+003,-1.980390e-003
3.131882e+003,-1.856081e-003
3.133810e+003,-1.972053e-003
3.135739e+003,-2.017312e-003
3.137667e+003,-1.921654e-003
3.139596e+003,-1.903921e-003
3.141524e+003,-1.907703e-003
3.143453e+003,-1.884099e-003
3.145381e+003,-1.849752e-003
3.147310e+003,-1.874529e-003
3.149238e+003,-1.806937e-003
3.151167e+003,-1.726463e-003
3.153095e+003,-1.750786e-003
3.155024e+003,-1.758073e-003
3.156952e+003,-1.703508e-003
3.158881e+003,-1.657147e-003
3.160809e+003,-1.589935e-003
3.162738e+003,-1.525249e-003
3.164666e+003,-1.405545e-003
3.166594e+003,-1.399893e-003
3.168523e+003,-1.454163e-003
3.170452e+003,-1.382250e-003
3.172380e+003,-1.336910e-003
3.174309e+003,-1.342699e-003
3.176237e+003,-1.240164e-003
3.178166e+003,-1.253560e-003
3.180094e+003,-1.228955e-003
3.182022e+003,-1.161568e-003
3.183951e+003,-1.106832e-003
3.185880e+003,-1.156956e-003
3.187808e+003,-1.101922e-003
3.189737e+003,-1.003303e-003
3.191665e+003,-9.515174e-004
3.193594e+003,-9.884834e-004
3.195522e+003,-9.844191e-004
3.197450e+003,-9.286702e-004
3.199379e+003,-9.823404e-004
3.201308e+003,-9.971373e-004
3.203236e+003,-8.795969e-004
3.205165e+003,-7.771552e-004
3.207093e+003,-7.752813e-004
3.209021e+003,-8.044764e-004
3.210950e+003,-7.602349e-004
3.212878e+003,-7.243603e-004
3.214807e+003,-6.498806e-004
3.216736e+003,-5.731955e-004
3.218664e+003,-5.555563e-004
3.220593e+003,-5.779713e-004
3.222521e+003,-5.924180e-004
3.224449e+003,-5.335212e-004
3.226378e+003,-5.045943e-004
3.228307e+003,-5.309395e-004
3.230235e+003,-5.059838e-004
3.232164e+003,-3.859587e-004
3.234092e+003,-3.438294e-004
3.236021e+003,-4.086345e-004
3.237949e+003,-4.299842e-004
3.239877e+003,-4.109293e-004
3.241806e+003,-3.354177e-004
3.243735e+003,-1.541339e-004
3.245663e+003,-9.984896e-005
3.247592e+003,-1.752898e-004
3.249520e+003,-1.714975e-004
3.251448e+003,-1.842976e-004
3.253377e+003,-1.422502e-004
3.255305e+003,-2.080202e-005
3.257234e+003,8.529425e-005
3.259163e+003,1.098141e-004
3.261091e+003,1.331195e-004
3.263020e+003,1.161732e-004
3.264948e+003,1.709238e-004
3.266876e+003,2.436452e-004
3.268805e+003,2.860241e-004
3.270733e+003,3.513508e-004
3.272662e+003,4.072748e-004
3.274591e+003,3.534704e-004
3.276519e+003,3.812090e-004
3.278448e+003,3.906488e-004
3.280376e+003,4.585907e-004
3.282304e+003,5.256049e-004
3.284233e+003,4.306994e-004
3.286161e+003,4.804246e-004
3.288090e+003,5.894080e-004
3.290019e+003,6.286167e-004
3.291947e+003,7.700846e-004
3.293875e+003,7.969402e-004
3.295804e+003,7.128529e-004
3.297732e+003,7.007904e-004
3.299661e+003,6.516054e-004
3.301589e+003,5.991757e-004
3.303518e+003,6.273612e-004
3.305447e+003,6.234273e-004
3.307375e+003,7.273071e-004
3.309303e+003,7.840469e-004
3.311232e+003,7.775612e-004
3.313160e+003,7.972494e-004
3.315089e+003,7.793121e-004
3.317018e+003,7.719994e-004
3.318946e+003,8.417442e-004
3.320875e+003,9.215362e-004
3.322803e+003,9.164587e-004
3.324731e+003,8.456483e-004
3.326660e+003,9.686202e-004
3.328588e+003,1.016855e-003
3.330517e+003,9.726323e-004
3.332446e+003,1.088075e-003
3.334374e+003,1.136687e-003
3.336302e+003,1.113854e-003
3.338231e+003,1.048144e-003
3.340159e+003,9.318776e-004
3.342088e+003,8.967705e-004
3.344016e+003,1.036793e-003
3.345945e+003,1.125243e-003
3.347874e+003,1.130261e-003
3.349802e+003,1.132753e-003
3.351730e+003,1.163226e-003
3.353659e+003,1.203809e-003
3.355587e+003,1.227412e-003
3.357516e+003,1.225196e-003
3.359444e+003,1.193296e-003
3.361373e+003,1.172144e-003
3.363302e+003,1.137506e-003
3.365230e+003,1.218729e-003
3.367158e+003,1.196846e-003
3.369087e+003,1.101702e-003
3.371015e+003,1.132417e-003
3.372944e+003,1.180056e-003
3.374872e+003,1.267813e-003
3.376801e+003,1.339354e-003
3.378729e+003,1.370274e-003
3.380658e+003,1.225285e-003
3.382586e+003,1.080021e-003
3.384515e+003,1.155451e-003
3.386443e+003,1.217529e-003
3.388372e+003,1.281671e-003
3.390300e+003,1.289949e-003
3.392229e+003,1.192406e-003
3.394157e+003,1.044974e-003
3.396086e+003,1.075506e-003
3.398014e+003,1.077574e-003
3.399943e+003,1.085043e-003
3.401871e+003,1.051906e-003
3.403800e+003,9.699874e-004
3.405728e+003,9.100661e-004
3.407657e+003,9.341389e-004
3.409585e+003,9.231791e-004
3.411514e+003,8.411184e-004
3.413442e+003,8.127801e-004
3.415371e+003,9.144954e-004
3.417299e+003,9.579696e-004
3.419228e+003,9.573661e-004
3.421156e+003,9.103641e-004
3.423085e+003,8.261092e-004
3.425013e+003,7.619672e-004
3.426942e+003,7.150099e-004
3.428870e+003,7.401630e-004
3.430799e+003,7.137395e-004
3.432727e+003,6.463043e-004
3.434656e+003,7.530898e-004
3.436584e+003,7.541291e-004
3.438513e+003,7.589571e-004
3.440441e+003,7.744655e-004
3.442370e+003,7.195696e-004
3.444298e+003,6.886087e-004
3.446227e+003,7.379949e-004
3.448155e+003,6.627627e-004
3.450084e+003,6.492101e-004
3.452012e+003,6.118231e-004
3.453941e+003,5.083941e-004
3.455869e+003,3.919750e-004
3.457798e+003,3.733523e-004
3.459726e+003,3.933683e-004
3.461655e+003,4.668906e-004
3.463583e+003,4.032291e-004
3.465512e+003,3.808551e-004
3.467440e+003,3.704131e-004
3.469369e+003,3.202260e-004
3.471297e+003,3.610924e-004
3.473226e+003,3.784075e-004
3.475154e+003,3.354512e-004
3.477083e+003,3.429316e-004
3.479011e+003,3.386624e-004
3.480940e+003,3.537126e-004
3.482868e+003,3.505088e-004
3.484797e+003,2.641529e-004
3.486725e+003,1.322404e-004
3.488654e+003,2.352521e-005
3.490582e+003,6.937236e-005
3.492511e+003,1.621060e-004
3.494439e+003,2.418235e-004
3.496368e+003,1.763254e-004
3.498296e+003,4.706159e-005
3.500225e+003,1.376867e-004
3.502153e+003,4.176833e-004
3.504082e+003,2.571344e-004
3.506010e+003,-1.612678e-005
3.507939e+003,4.135072e-006
3.509867e+003,2.393872e-005
3.511796e+003,7.099658e-005
3.513724e+003,8.684769e-005
3.515653e+003,-5.244091e-005
3.517581e+003,-2.072789e-004
3.519510e+003,-2.318509e-004
3.521438e+003,-1.505688e-004
3.523367e+003,-2.692267e-005
3.525295e+003,3.754720e-005
3.527224e+003,4.917756e-005
3.529152e+003,-1.772009e-004
3.531081e+003,-3.410988e-004
3.533009e+003,-3.531761e-004
3.534938e+003,-2.126805e-004
3.536866e+003,-3.396869e-004
3.538795e+003,-5.991682e-004
3.540723e+003,-5.120710e-004
3.542652e+003,-3.061667e-004
3.544580e+003,-7.557124e-005
3.546509e+003,-1.496747e-004
3.548437e+003,-4.155450e-004
3.550366e+003,-4.819483e-004
3.552294e+003,-5.500056e-004
3.554223e+003,-6.294176e-004
3.556151e+003,-6.498322e-004
3.558080e+003,-6.017126e-004
3.560008e+003,-6.387085e-004
3.561937e+003,-7.178485e-004
3.563865e+003,-2.855472e-004
3.565794e+003,3.134683e-004
3.567722e+003,-1.884066e-004
3.569651e+003,-7.116869e-004
3.571579e+003,-7.139146e-004
3.573508e+003,-6.275699e-004
3.575436e+003,-7.452108e-004
3.577365e+003,-8.868910e-004
3.579293e+003,-8.466579e-004
3.581222e+003,-8.219257e-004
3.583150e+003,-6.734319e-004
3.585079e+003,-2.499223e-004
3.587007e+003,1.480691e-004
3.588936e+003,-2.461039e-004
3.590864e+003,-3.363565e-004
3.592793e+003,-2.354756e-004
3.594721e+003,4.599243e-005
3.596650e+003,3.541037e-004
3.598578e+003,6.288327e-004
3.600507e+003,7.640496e-004
3.602435e+003,5.484596e-004
3.604364e+003,4.988834e-004
3.606292e+003,7.379800e-004
3.608221e+003,4.350431e-004
3.610149e+003,1.704395e-004
3.612078e+003,3.010593e-004
3.614006e+003,3.760308e-005
3.615935e+003,7.688254e-005
3.617863e+003,3.601089e-004
3.619792e+003,-7.599592e-005
3.621720e+003,-4.584938e-004
3.623649e+003,-3.752001e-004
3.625577e+003,2.843887e-005
3.627506e+003,9.385124e-004
3.629434e+003,5.303100e-004
3.631363e+003,-2.196580e-004
3.633291e+003,-2.087876e-004
3.635220e+003,-2.036765e-004
3.637148e+003,-1.173019e-004
3.639077e+003,-2.609268e-004
3.641005e+003,-2.579838e-004
3.642934e+003,-8.961558e-005
3.644862e+003,3.612489e-004
3.646791e+003,1.209445e-003
3.648719e+003,1.577348e-003
3.650648e+003,4.455224e-004
3.652576e+003,-2.186894e-004
3.654505e+003,2.296045e-004
3.656433e+003,1.823828e-004
3.658362e+003,-4.131868e-004
3.660290e+003,-5.957782e-004
3.662219e+003,-6.164759e-004
3.664147e+003,-7.133484e-004
3.666076e+003,-5.855486e-004
3.668004e+003,5.925447e-005
3.669933e+003,2.053753e-004
3.671861e+003,-1.726449e-004
3.673790e+003,3.235191e-004
3.675718e+003,2.938285e-004
3.677647e+003,-1.359954e-004
3.679575e+003,-1.847297e-004
3.681504e+003,-4.290864e-004
3.683432e+003,-3.652722e-004
3.685361e+003,-6.709248e-005
3.687289e+003,4.304647e-004
3.689218e+003,5.064383e-004
3.691146e+003,2.557039e-005
3.693075e+003,-1.442358e-004
3.695003e+003,-2.291203e-004
3.696932e+003,-4.621744e-004
3.698860e+003,-2.935603e-004
3.700789e+003,-3.531575e-005
3.702717e+003,-3.332570e-004
3.704646e+003,-2.987906e-004
3.706574e+003,-1.559258e-004
3.708503e+003,6.880611e-005
3.710431e+003,8.041933e-004
3.712360e+003,5.236790e-004
3.714288e+003,-9.943545e-005
3.716217e+003,-1.029223e-004
3.718145e+003,2.302527e-004
3.720074e+003,3.055632e-004
3.722002e+003,4.645288e-004
3.723931e+003,4.762039e-004
3.725859e+003,1.597181e-004
3.727788e+003,-1.820773e-004
3.729716e+003,1.280159e-004
3.731645e+003,5.424768e-004
3.733573e+003,8.044541e-004
3.735502e+003,1.475371e-003
3.737430e+003,1.016371e-003
3.739359e+003,6.867722e-004
3.741287e+003,7.911548e-004
3.743216e+003,1.386963e-003
3.745144e+003,1.561381e-003
3.747073e+003,1.814507e-003
3.749001e+003,2.481125e-003
3.750930e+003,2.365559e-003
3.752858e+003,1.494095e-003
3.754787e+003,1.463883e-003
3.756715e+003,1.827285e-003
3.758644e+003,1.742318e-003
3.760572e+003,1.068488e-003
3.762501e+003,8.148476e-004
3.764429e+003,1.135267e-003
3.766358e+003,1.134135e-003
3.768286e+003,1.480713e-003
3.770215e+003,1.371495e-003
3.772143e+003,8.140877e-004
3.774072e+003,8.409098e-004
3.776000e+003,9.684488e-004
3.777929e+003,1.182817e-003
3.779857e+003,1.010716e-003
3.781786e+003,8.328333e-004
3.783714e+003,1.062579e-003
3.785643e+003,7.248372e-004
3.787571e+003,7.605776e-004
3.789500e+003,8.151755e-004
3.791428e+003,6.290451e-004
3.793357e+003,8.576661e-004
3.795285e+003,1.259655e-003
3.797214e+003,9.955987e-004
3.799142e+003,1.315780e-003
3.801071e+003,1.465797e-003
3.802999e+003,9.602308e-004
3.804927e+003,1.385376e-003
3.806856e+003,1.377612e-003
3.808785e+003,6.832331e-004
3.810713e+003,7.872432e-004
3.812642e+003,1.186267e-003
3.814570e+003,1.681641e-003
3.816499e+003,1.412153e-003
3.818427e+003,1.700878e-003
3.820355e+003,2.381548e-003
3.822284e+003,1.439422e-003
3.824213e+003,1.606248e-003
3.826141e+003,1.548223e-003
3.828070e+003,9.615123e-004
3.829998e+003,1.265198e-003
3.831927e+003,1.437671e-003
3.833855e+003,1.498520e-003
3.835783e+003,1.989715e-003
3.837712e+003,2.305314e-003
3.839641e+003,2.332374e-003
3.841569e+003,2.130270e-003
3.843498e+003,1.877427e-003
3.845426e+003,1.453720e-003
3.847354e+003,1.481049e-003
3.849283e+003,2.056733e-003
3.851211e+003,3.094226e-003
3.853140e+003,3.385343e-003
3.855069e+003,2.027206e-003
3.856997e+003,2.033725e-003
3.858926e+003,1.959369e-003
3.860854e+003,2.137929e-003
3.862782e+003,2.211452e-003
3.864711e+003,1.904249e-003
3.866640e+003,1.981176e-003
3.868568e+003,2.766423e-003
3.870497e+003,2.575621e-003
3.872425e+003,2.712265e-003
3.874354e+003,2.427854e-003
3.876282e+003,1.823008e-003
3.878210e+003,2.382107e-003
3.880139e+003,2.576388e-003
3.882068e+003,2.180114e-003
3.883996e+003,2.782464e-003
3.885925e+003,2.529696e-003
3.887853e+003,2.208650e-003
3.889781e+003,2.747700e-003
3.891710e+003,2.634704e-003
3.893638e+003,2.170183e-003
3.895567e+003,2.236359e-003
3.897496e+003,2.625190e-003
3.899424e+003,2.952412e-003
3.901353e+003,3.125422e-003
3.903281e+003,3.154747e-003
3.905209e+003,2.460226e-003
3.907138e+003,2.220102e-003
3.909066e+003,2.286918e-003
3.910995e+003,2.213784e-003
3.912924e+003,2.265394e-003
3.914852e+003,2.610661e-003
3.916781e+003,2.705820e-003
3.918709e+003,2.454773e-003
3.920637e+003,2.250746e-003
3.922566e+003,2.419382e-003
3.924494e+003,2.640098e-003
3.926423e+003,2.197377e-003
3.928352e+003,2.318613e-003
3.930280e+003,2.484471e-003
3.932208e+003,2.376921e-003
3.934137e+003,2.195507e-003
3.936065e+003,2.059467e-003
3.937994e+003,2.000503e-003
3.939922e+003,2.258934e-003
3.941851e+003,2.665497e-003
3.943780e+003,2.284102e-003
3.945708e+003,2.173223e-003
3.947636e+003,2.422586e-003
3.949565e+003,2.227925e-003
3.951493e+003,1.956016e-003
3.953422e+003,1.956388e-003
3.955351e+003,2.103545e-003
3.957279e+003,2.167664e-003
3.959208e+003,2.174281e-003
3.961136e+003,2.120331e-003
3.963064e+003,2.030477e-003
3.964993e+003,2.102330e-003
3.966921e+003,2.182871e-003
3.968850e+003,2.176911e-003
3.970779e+003,2.158724e-003
3.972707e+003,2.197169e-003
3.974635e+003,2.112016e-003
3.976564e+003,1.993977e-003
3.978492e+003,2.032794e-003
3.980421e+003,2.070278e-003
3.982349e+003,2.061464e-003
3.984278e+003,2.042055e-003
3.986207e+003,2.048224e-003
3.988135e+003,2.096504e-003
3.990063e+003,2.080381e-003
3.991992e+003,2.009124e-003
3.993920e+003,1.976386e-003
3.995849e+003,1.959756e-003
3.997777e+003,1.871221e-003
3.999706e+003,1.757190e-003
4.001635e+003,0.000000e+000
