3.991992e+002,0.000000e+000
4.011277e+002,0.000000e+000
4.030562e+002,0.000000e+000
4.049846e+002,0.000000e+000
4.069131e+002,0.000000e+000
4.088416e+002,0.000000e+000
4.107701e+002,0.000000e+000
4.126986e+002,0.000000e+000
4.146271e+002,0.000000e+000
4.165556e+002,0.000000e+000
4.184841e+002,0.000000e+000
4.204126e+002,0.000000e+000
4.223411e+002,0.000000e+000
4.242697e+002,0.000000e+000
4.261982e+002,0.000000e+000
4.281266e+002,0.000000e+000
4.300551e+002,0.000000e+000
4.319836e+002,0.000000e+000
4.339121e+002,0.000000e+000
4.358406e+002,0.000000e+000
4.377691e+002,0.000000e+000
4.396976e+002,0.000000e+000
4.416261e+002,0.000000e+000
4.435546e+002,0.000000e+000
4.454831e+002,0.000000e+000
4.474116e+002,0.000000e+000
4.493401e+002,0.000000e+000
4.512686e+002,0.000000e+000
4.531971e+002,0.000000e+000
4.551256e+002,0.000000e+000
4.570541e+002,0.000000e+000
4.589826e+002,0.000000e+000
4.609111e+002,0.000000e+000
4.628396e+002,0.000000e+000
4.647681e+002,0.000000e+000
4.666966e+002,0.000000e+000
4.686251e+002,0.000000e+000
4.705536e+002,0.000000e+000
4.724821e+002,0.000000e+000
4.744106e+002,0.000000e+000
4.763391e+002,0.000000e+000
4.782676e+002,0.000000e+000
4.801961e+002,0.000000e+000
4.821246e+002,0.000000e+000
4.840531e+002,0.000000e+000
4.859816e+002,0.000000e+000
4.879101e+002,0.000000e+000
4.898386e+002,0.000000e+000
4.917671e+002,0.000000e+000
4.936956e+002,0.000000e+000
4.956241e+002,0.000000e+000
4.975526e+002,0.000000e+000
4.994811e+002,0.000000e+000
5.014096e+002,0.000000e+000
5.033381e+002,0.000000e+000
5.052666e+002,0.000000e+000
5.071951e+002,0.000000e+000
5.091236e+002,0.000000e+000
5.110521e+002,0.000000e+000
5.129806e+002,0.000000e+000
5.149091e+002,0.000000e+000
5.168376e+002,0.000000e+000
5.187661e+002,0.000000e+000
5.206946e+002,0.000000e+000
5.226230e+002,0.000000e+000
5.245516e+002,-6.137341e-004
5.264800e+002,-8.092239e-004
5.284086e+002,-8.388646e-004
5.303370e+002,-8.547199e-004
5.322656e+002,-7.939511e-004
5.341940e+002,-8.814768e-004
5.361226e+002,-8.512349e-004
5.380510e+002,-9.105573e-004
5.399796e+002,-1.071922e-003
5.419081e+002,-1.115745e-003
5.438365e+002,-1.077624e-003
5.457650e+002,-1.068388e-003
5.476935e+002,-9.855395e-004
5.496221e+002,-7.909550e-004
5.515505e+002,-5.156589e-004
5.534790e+002,-3.633015e-004
5.554075e+002,-4.366264e-004
5.573361e+002,-7.240931e-004
5.592645e+002,-8.629332e-004
5.611931e+002,-9.579081e-004
5.631215e+002,-1.042719e-003
5.650500e+002,-1.102198e-003
5.669785e+002,-1.018562e-003
5.689070e+002,-1.008950e-003
5.708355e+002,-1.077119e-003
5.727640e+002,-1.126981e-003
5.746925e+002,-1.041290e-003
5.766210e+002,-1.067477e-003
5.785495e+002,-1.136938e-003
5.804780e+002,-1.157180e-003
5.824065e+002,-1.009804e-003
5.843350e+002,-9.193374e-004
5.862635e+002,-9.642979e-004
5.881920e+002,-1.027543e-003
5.901205e+002,-9.801323e-004
5.920490e+002,-9.897891e-004
5.939775e+002,-9.312327e-004
5.959060e+002,-9.277374e-004
5.978345e+002,-9.288997e-004
5.997630e+002,-9.247558e-004
6.016915e+002,-8.207955e-004
6.036200e+002,-7.395665e-004
6.055485e+002,-5.937098e-004
6.074770e+002,-6.131562e-004
6.094055e+002,-7.246723e-004
6.113340e+002,-7.280582e-004
6.132625e+002,-6.649341e-004
6.151910e+002,-7.144022e-004
6.171195e+002,-7.005911e-004
6.190480e+002,-6.155255e-004
6.209765e+002,-4.331861e-004
6.229050e+002,-3.023222e-004
6.248335e+002,-1.863018e-004
6.267620e+002,-2.364162e-004
6.286905e+002,-2.473658e-004
6.306190e+002,-2.987050e-004
6.325475e+002,-2.337992e-004
6.344760e+002,-1.895847e-004
6.364045e+002,-3.825966e-005
6.383330e+002,-7.894821e-006
6.402615e+002,-2.038293e-005
6.421899e+002,-8.064229e-005
6.441185e+002,-5.915202e-005
6.460470e+002,-2.363045e-005
6.479755e+002,1.517776e-005
6.499039e+002,1.695193e-005
6.518325e+002,2.545770e-005
6.537610e+002,5.645771e-005
6.556895e+002,1.578452e-004
6.576179e+002,1.568487e-004
6.595464e+002,1.746407e-004
6.614750e+002,9.989738e-005
6.634034e+002,8.499343e-005
6.653319e+002,1.121769e-004
6.672604e+002,2.655815e-004
6.691890e+002,3.922274e-004
6.711174e+002,4.706960e-004
6.730460e+002,4.450940e-004
6.749745e+002,5.827555e-004
6.769030e+002,7.525329e-004
6.788314e+002,9.612925e-004
6.807599e+002,1.002548e-003
6.826885e+002,1.141201e-003
6.846169e+002,1.423579e-003
6.865454e+002,1.629723e-003
6.884739e+002,1.639633e-003
6.904025e+002,1.878655e-003
6.923309e+002,2.173712e-003
6.942594e+002,2.542256e-003
6.961879e+002,2.902750e-003
6.981165e+002,3.521425e-003
7.000449e+002,4.323800e-003
7.019734e+002,5.454066e-003
7.039019e+002,6.719860e-003
7.058304e+002,8.620515e-003
7.077589e+002,1.127972e-002
7.096874e+002,1.548687e-002
7.116159e+002,2.248457e-002
7.135444e+002,3.637971e-002
7.154729e+002,6.089067e-002
7.174014e+002,9.301726e-002
7.193299e+002,1.016577e-001
7.212584e+002,6.756672e-002
7.231869e+002,3.953284e-002
7.251154e+002,3.282828e-002
7.270439e+002,4.212194e-002
7.289724e+002,6.730177e-002
7.309009e+002,7.170779e-002
7.328294e+002,3.938536e-002
7.347579e+002,1.570924e-002
7.366864e+002,7.774362e-003
7.386149e+002,4.929918e-003
7.405434e+002,3.361877e-003
7.424719e+002,2.574911e-003
7.444004e+002,2.056257e-003
7.463289e+002,1.715488e-003
7.482574e+002,1.332617e-003
7.501859e+002,1.116897e-003
7.521144e+002,9.175027e-004
7.540428e+002,7.297574e-004
7.559714e+002,5.556121e-004
7.578999e+002,5.010543e-004
7.598284e+002,4.635295e-004
7.617568e+002,4.468560e-004
7.636854e+002,3.900705e-004
7.656139e+002,3.470546e-004
7.675424e+002,2.739495e-004
7.694709e+002,2.541952e-004
7.713994e+002,1.892783e-004
7.733279e+002,1.052804e-004
7.752563e+002,9.514485e-005
7.771849e+002,1.542941e-004
7.791134e+002,8.856971e-005
7.810419e+002,5.167909e-005
7.829703e+002,8.395966e-005
7.848989e+002,1.005130e-004
7.868274e+002,9.174645e-005
7.887559e+002,9.918213e-005
7.906843e+002,1.511872e-004
7.926129e+002,2.559442e-004
7.945414e+002,3.102701e-004
7.964698e+002,3.989497e-004
7.983983e+002,4.485445e-004
8.003268e+002,5.033156e-004
8.022554e+002,5.601831e-004
8.041838e+002,5.815523e-004
8.061123e+002,4.674308e-004
8.080408e+002,4.074695e-004
8.099694e+002,4.567942e-004
8.118978e+002,4.934631e-004
8.138263e+002,4.175706e-004
8.157548e+002,3.614016e-004
8.176833e+002,3.997162e-004
8.196118e+002,3.892481e-004
8.215403e+002,3.383234e-004
8.234689e+002,2.950225e-004
8.253973e+002,2.043312e-004
8.273258e+002,1.482246e-004
8.292543e+002,1.698621e-004
8.311829e+002,1.243539e-004
8.331113e+002,9.525660e-005
8.350398e+002,7.602014e-005
8.369683e+002,-8.037314e-007
8.388969e+002,-1.319312e-005
8.408253e+002,-5.433429e-005
8.427538e+002,-7.336773e-005
8.446823e+002,-3.384799e-005
8.466108e+002,-1.812447e-005
8.485393e+002,-5.327165e-007
8.504678e+002,-1.451932e-005
8.523963e+002,6.910414e-007
8.543248e+002,5.041808e-005
8.562533e+002,3.628060e-005
8.581818e+002,4.664809e-005
8.601103e+002,4.196540e-005
8.620388e+002,2.115965e-005
8.639673e+002,4.443526e-005
8.658958e+002,-1.528766e-005
8.678243e+002,-3.443100e-005
8.697528e+002,3.696233e-005
8.716813e+002,8.719694e-005
8.736098e+002,1.102341e-004
8.755383e+002,1.752563e-004
8.774668e+002,1.868689e-004
8.793953e+002,2.072565e-004
8.813238e+002,2.000928e-004
8.832523e+002,2.418980e-004
8.851808e+002,3.262982e-004
8.871093e+002,3.997451e-004
8.890378e+002,3.873575e-004
8.909663e+002,4.511075e-004
8.928948e+002,5.421964e-004
8.948232e+002,5.842587e-004
8.967518e+002,6.128913e-004
8.986803e+002,7.014815e-004
9.006088e+002,8.931849e-004
9.025372e+002,1.244600e-003
9.044658e+002,1.844934e-003
9.063943e+002,2.772700e-003
9.083228e+002,3.239688e-003
9.102512e+002,2.770757e-003
9.121797e+002,1.859214e-003
9.141083e+002,1.160194e-003
9.160367e+002,7.296978e-004
9.179653e+002,5.456544e-004
9.198937e+002,4.271185e-004
9.218223e+002,4.041810e-004
9.237507e+002,3.847443e-004
9.256793e+002,4.116334e-004
9.276077e+002,4.133973e-004
9.295363e+002,3.696214e-004
9.314647e+002,3.901469e-004
9.333932e+002,4.120376e-004
9.353217e+002,4.085684e-004
9.372502e+002,3.793649e-004
9.391787e+002,3.377236e-004
9.411072e+002,3.375011e-004
9.430358e+002,3.942158e-004
9.449642e+002,4.873378e-004
9.468928e+002,4.964080e-004
9.488212e+002,4.955251e-004
9.507498e+002,5.198997e-004
9.526782e+002,5.870396e-004
9.546068e+002,6.447686e-004
9.565352e+002,7.162113e-004
9.584637e+002,8.053947e-004
9.603922e+002,8.917088e-004
9.623207e+002,9.380206e-004
9.642492e+002,9.623049e-004
9.661777e+002,9.004511e-004
9.681062e+002,9.278329e-004
9.700347e+002,9.482456e-004
9.719632e+002,8.704588e-004
9.738917e+002,8.352399e-004
9.758202e+002,8.575330e-004
9.777487e+002,8.477531e-004
9.796772e+002,8.695284e-004
9.816057e+002,8.889185e-004
9.835342e+002,9.935172e-004
9.854627e+002,1.206293e-003
9.873912e+002,1.467497e-003
9.893197e+002,1.679151e-003
9.912482e+002,1.728457e-003
9.931767e+002,1.634303e-003
9.951052e+002,1.557899e-003
9.970337e+002,1.452160e-003
9.989622e+002,1.371365e-003
1.000891e+003,1.329307e-003
1.002819e+003,1.393792e-003
1.004748e+003,1.462855e-003
1.006676e+003,1.557685e-003
1.008605e+003,1.655068e-003
1.010533e+003,1.795372e-003
1.012462e+003,1.945151e-003
1.014390e+003,2.150514e-003
1.016319e+003,2.301686e-003
1.018247e+003,2.355981e-003
1.020176e+003,2.360105e-003
1.022104e+003,2.385998e-003
1.024033e+003,2.337718e-003
1.025961e+003,2.301689e-003
1.027890e+003,2.343864e-003
1.029818e+003,2.379294e-003
1.031747e+003,2.378901e-003
1.033675e+003,2.405399e-003
1.035604e+003,2.412428e-003
1.037532e+003,2.467245e-003
1.039461e+003,2.526863e-003
1.041389e+003,2.544526e-003
1.043318e+003,2.552792e-003
1.045246e+003,2.650981e-003
1.047175e+003,2.747648e-003
1.049103e+003,2.928353e-003
1.051032e+003,3.087735e-003
1.052960e+003,3.011631e-003
1.054889e+003,2.913542e-003
1.056817e+003,2.929538e-003
1.058746e+003,2.969349e-003
1.060674e+003,3.067926e-003
1.062603e+003,3.091929e-003
1.064531e+003,3.148785e-003
1.066460e+003,3.209535e-003
1.068388e+003,3.259489e-003
1.070317e+003,3.260975e-003
1.072245e+003,3.379124e-003
1.074174e+003,3.506859e-003
1.076102e+003,3.671170e-003
1.078031e+003,3.811602e-003
1.079959e+003,3.915539e-003
1.081888e+003,3.932778e-003
1.083816e+003,3.954056e-003
1.085745e+003,3.888289e-003
1.087673e+003,3.861406e-003
1.089602e+003,3.821906e-003
1.091530e+003,3.796083e-003
1.093459e+003,3.789558e-003
1.095387e+003,3.778386e-003
1.097316e+003,3.719637e-003
1.099244e+003,3.736691e-003
1.101173e+003,3.754518e-003
1.103101e+003,3.764460e-003
1.105030e+003,3.722743e-003
1.106958e+003,3.687293e-003
1.108887e+003,3.636300e-003
1.110815e+003,3.598684e-003
1.112744e+003,3.536643e-003
1.114672e+003,3.476270e-003
1.116601e+003,3.381151e-003
1.118529e+003,3.307726e-003
1.120458e+003,3.208650e-003
1.122386e+003,3.180834e-003
1.124315e+003,3.160206e-003
1.126243e+003,3.160921e-003
1.128172e+003,3.149158e-003
1.130100e+003,3.197967e-003
1.132029e+003,3.225352e-003
1.133957e+003,3.294706e-003
1.135885e+003,3.364313e-003
1.137814e+003,3.477512e-003
1.139743e+003,3.625222e-003
1.141671e+003,3.854225e-003
1.143600e+003,4.253015e-003
1.145528e+003,4.870468e-003
1.147457e+003,5.637750e-003
1.149385e+003,6.577129e-003
1.151314e+003,7.465266e-003
1.153242e+003,8.087558e-003
1.155171e+003,8.356958e-003
1.157099e+003,8.403904e-003
1.159028e+003,8.335235e-003
1.160956e+003,8.268700e-003
1.162885e+003,8.098568e-003
1.164813e+003,7.857039e-003
1.166742e+003,7.483093e-003
1.168670e+003,7.073513e-003
1.170599e+003,6.612494e-003
1.172527e+003,6.188624e-003
1.174456e+003,5.844351e-003
1.176384e+003,5.519698e-003
1.178313e+003,4.957814e-003
1.180241e+003,4.502548e-003
1.182170e+003,4.264856e-003
1.184098e+003,4.230790e-003
1.186027e+003,4.274802e-003
1.187955e+003,4.381436e-003
1.189884e+003,4.466350e-003
1.191812e+003,4.618714e-003
1.193740e+003,4.792802e-003
1.195669e+003,5.058708e-003
1.197598e+003,5.347949e-003
1.199526e+003,5.765030e-003
1.201455e+003,6.281083e-003
1.203383e+003,6.839752e-003
1.205312e+003,7.375575e-003
1.207240e+003,7.870858e-003
1.209168e+003,8.206865e-003
1.211097e+003,8.485648e-003
1.213026e+003,8.680409e-003
1.214954e+003,8.881711e-003
1.216883e+003,9.019618e-003
1.218811e+003,9.212684e-003
1.220740e+003,9.381844e-003
1.222668e+003,9.587472e-003
1.224596e+003,9.775301e-003
1.226525e+003,9.968644e-003
1.228453e+003,1.012073e-002
1.230382e+003,1.031762e-002
1.232311e+003,1.053963e-002
1.234239e+003,1.080577e-002
1.236167e+003,1.094594e-002
1.238096e+003,1.108104e-002
1.240025e+003,1.115926e-002
1.241953e+003,1.117238e-002
1.243882e+003,1.101852e-002
1.245810e+003,1.076428e-002
1.247739e+003,1.036806e-002
1.249667e+003,9.939906e-003
1.251595e+003,9.426076e-003
1.253524e+003,8.948471e-003
1.255453e+003,8.414770e-003
1.257381e+003,7.867698e-003
1.259310e+003,7.332495e-003
1.261238e+003,6.811103e-003
1.263167e+003,6.207867e-003
1.265095e+003,5.660940e-003
1.267023e+003,5.135271e-003
1.268952e+003,4.752851e-003
1.270880e+003,4.507137e-003
1.272809e+003,4.366625e-003
1.274738e+003,4.221067e-003
1.276666e+003,4.196366e-003
1.278594e+003,4.140458e-003
1.280523e+003,4.170514e-003
1.282451e+003,4.205070e-003
1.284380e+003,4.287310e-003
1.286308e+003,4.365196e-003
1.288237e+003,4.515882e-003
1.290166e+003,4.618988e-003
1.292094e+003,4.806125e-003
1.294022e+003,5.003166e-003
1.295951e+003,5.260247e-003
1.297879e+003,5.388623e-003
1.299808e+003,5.482484e-003
1.301736e+003,5.472981e-003
1.303665e+003,5.506923e-003
1.305594e+003,5.481807e-003
1.307522e+003,5.440375e-003
1.309450e+003,5.247390e-003
1.311379e+003,5.102769e-003
1.313307e+003,4.843296e-003
1.315236e+003,4.618675e-003
1.317164e+003,4.416157e-003
1.319093e+003,4.216350e-003
1.321021e+003,3.909405e-003
1.322950e+003,3.767168e-003
1.324878e+003,3.613738e-003
1.326807e+003,3.548793e-003
1.328735e+003,3.476546e-003
1.330664e+003,3.500568e-003
1.332592e+003,3.595874e-003
1.334521e+003,3.858633e-003
1.336449e+003,4.167311e-003
1.338378e+003,4.658985e-003
1.340306e+003,4.938442e-003
1.342235e+003,5.080127e-003
1.344163e+003,5.334965e-003
1.346092e+003,5.727055e-003
1.348021e+003,6.076263e-003
1.349949e+003,6.448390e-003
1.351877e+003,6.609781e-003
1.353806e+003,6.657952e-003
1.355734e+003,6.474071e-003
1.357663e+003,6.441750e-003
1.359591e+003,6.648992e-003
1.361520e+003,7.258276e-003
1.363448e+003,7.810248e-003
1.365377e+003,8.211870e-003
1.367305e+003,8.528823e-003
1.369234e+003,8.398654e-003
1.371162e+003,7.616430e-003
1.373091e+003,6.868435e-003
1.375019e+003,6.024274e-003
1.376948e+003,5.549161e-003
1.378876e+003,4.953779e-003
1.380805e+003,4.340245e-003
1.382733e+003,3.843866e-003
1.384662e+003,3.687573e-003
1.386590e+003,3.647786e-003
1.388519e+003,3.580952e-003
1.390447e+003,3.444414e-003
1.392376e+003,3.606438e-003
1.394304e+003,3.757909e-003
1.396233e+003,3.871075e-003
1.398161e+003,3.834924e-003
1.400090e+003,3.847598e-003
1.402018e+003,3.707023e-003
1.403947e+003,3.953564e-003
1.405875e+003,3.972343e-003
1.407804e+003,4.083195e-003
1.409732e+003,4.197094e-003
1.411661e+003,4.462557e-003
1.413589e+003,4.541185e-003
1.415518e+003,4.928298e-003
1.417446e+003,5.314529e-003
1.419375e+003,5.835395e-003
1.421303e+003,5.833108e-003
1.423232e+003,6.461579e-003
1.425160e+003,7.135954e-003
1.427089e+003,8.151941e-003
1.429017e+003,9.462673e-003
1.430946e+003,1.130716e-002
1.432874e+003,1.262312e-002
1.434803e+003,1.407735e-002
1.436731e+003,1.543443e-002
1.438660e+003,1.652717e-002
1.440588e+003,1.713923e-002
1.442517e+003,1.811625e-002
1.444445e+003,1.881331e-002
1.446374e+003,2.009020e-002
1.448302e+003,2.165446e-002
1.450231e+003,2.420716e-002
1.452159e+003,2.817900e-002
1.454088e+003,3.390091e-002
1.456016e+003,4.083007e-002
1.457945e+003,6.415230e-002
1.459873e+003,1.058955e-001
1.461802e+003,1.370900e-001
1.463730e+003,1.228452e-001
1.465659e+003,8.684199e-002
1.467587e+003,8.484542e-002
1.469516e+003,9.754733e-002
1.471444e+003,1.320732e-001
1.473373e+003,1.260119e-001
1.475301e+003,6.364992e-002
1.477230e+003,2.377322e-002
1.479158e+003,1.284021e-002
1.481087e+003,8.478949e-003
1.483015e+003,6.637419e-003
1.484944e+003,5.348545e-003
1.486872e+003,5.267503e-003
1.488801e+003,4.659003e-003
1.490729e+003,4.415091e-003
1.492658e+003,3.461914e-003
1.494586e+003,3.579466e-003
1.496515e+003,3.236359e-003
1.498443e+003,3.354199e-003
1.500372e+003,2.834909e-003
1.502300e+003,2.789216e-003
1.504229e+003,2.622981e-003
1.506157e+003,3.591089e-003
1.508086e+003,2.960505e-003
1.510014e+003,2.676738e-003
1.511943e+003,2.107885e-003
1.513871e+003,2.285069e-003
1.515800e+003,2.456320e-003
1.517728e+003,2.706328e-003
1.519657e+003,2.581608e-003
1.521585e+003,3.120359e-003
1.523514e+003,2.494095e-003
1.525442e+003,2.606086e-003
1.527371e+003,2.207909e-003
1.529299e+003,2.063286e-003
1.531228e+003,2.068613e-003
1.533156e+003,2.575587e-003
1.535085e+003,2.289945e-003
1.537013e+003,2.507543e-003
1.538942e+003,2.806019e-003
1.540870e+003,3.422350e-003
1.542799e+003,2.910575e-003
1.544727e+003,2.602100e-003
1.546656e+003,1.940779e-003
1.548584e+003,2.057068e-003
1.550513e+003,2.012474e-003
1.552441e+003,2.137216e-003
1.554370e+003,2.193393e-003
1.556298e+003,2.477715e-003
1.558227e+003,2.972908e-003
1.560155e+003,2.316097e-003
1.562084e+003,1.733104e-003
1.564012e+003,1.747468e-003
1.565941e+003,1.549792e-003
1.567869e+003,1.843607e-003
1.569798e+003,1.956372e-003
1.571726e+003,1.727663e-003
1.573655e+003,1.697117e-003
1.575583e+003,2.077231e-003
1.577512e+003,1.865106e-003
1.579440e+003,1.705673e-003
1.581369e+003,1.627073e-003
1.583297e+003,1.683997e-003
1.585226e+003,1.661466e-003
1.587154e+003,1.685083e-003
1.589083e+003,1.606952e-003
1.591011e+003,1.587242e-003
1.592940e+003,1.481561e-003
1.594868e+003,1.597285e-003
1.596797e+003,1.537113e-003
1.598725e+003,1.527518e-003
1.600654e+003,1.519963e-003
1.602582e+003,1.604483e-003
1.604511e+003,1.493990e-003
1.606439e+003,1.540694e-003
1.608368e+003,1.634767e-003
1.610296e+003,1.708552e-003
1.612225e+003,1.567122e-003
1.614153e+003,1.741728e-003
1.616082e+003,2.039555e-003
1.618010e+003,1.942284e-003
1.619939e+003,1.760688e-003
1.621867e+003,2.012765e-003
1.623796e+003,2.050165e-003
1.625724e+003,2.049750e-003
1.627653e+003,2.146987e-003
1.629581e+003,2.148492e-003
1.631510e+003,2.131697e-003
1.633438e+003,2.471412e-003
1.635367e+003,2.967540e-003
1.637295e+003,2.889648e-003
1.639224e+003,2.741799e-003
1.641152e+003,2.751261e-003
1.643081e+003,2.670631e-003
1.645009e+003,3.041495e-003
1.646938e+003,3.349425e-003
1.648866e+003,2.701908e-003
1.650795e+003,2.501538e-003
1.652723e+003,3.074199e-003
1.654652e+003,2.418330e-003
1.656580e+003,1.994604e-003
1.658509e+003,1.715759e-003
1.660437e+003,1.853358e-003
1.662366e+003,2.068922e-003
1.664294e+003,1.762206e-003
1.666223e+003,1.591716e-003
1.668151e+003,1.906460e-003
1.670080e+003,1.911307e-003
1.672008e+003,1.641551e-003
1.673937e+003,1.505611e-003
1.675865e+003,1.413751e-003
1.677794e+003,1.350567e-003
1.679722e+003,1.541857e-003
1.681651e+003,1.641845e-003
1.683579e+003,2.246469e-003
1.685508e+003,1.393750e-003
1.687436e+003,1.173271e-003
1.689365e+003,1.025833e-003
1.691293e+003,8.836035e-004
1.693222e+003,1.013838e-003
1.695150e+003,1.557061e-003
1.697079e+003,1.611853e-003
1.699007e+003,1.833875e-003
1.700936e+003,1.313210e-003
1.702864e+003,1.086919e-003
1.704793e+003,1.252705e-003
1.706721e+003,1.121799e-003
1.708650e+003,8.596927e-004
1.710578e+003,9.024180e-004
1.712507e+003,1.018690e-003
1.714435e+003,1.525845e-003
1.716364e+003,1.952458e-003
1.718292e+003,1.637289e-003
1.720221e+003,9.548087e-004
1.722149e+003,9.160023e-004
1.724078e+003,9.000264e-004
1.726006e+003,9.927750e-004
1.727935e+003,1.110185e-003
1.729863e+003,1.380296e-003
1.731792e+003,1.716949e-003
1.733720e+003,2.383154e-003
1.735649e+003,1.740726e-003
1.737577e+003,1.665004e-003
1.739506e+003,1.695041e-003
1.741434e+003,1.579845e-003
1.743363e+003,1.532340e-003
1.745291e+003,1.562944e-003
1.747220e+003,1.664378e-003
1.749148e+003,1.720836e-003
1.751077e+003,1.280952e-003
1.753005e+003,6.971899e-004
1.754934e+003,4.376043e-004
1.756862e+003,3.830437e-004
1.758791e+003,1.508389e-004
1.760719e+003,2.848636e-004
1.762648e+003,5.127676e-005
1.764576e+003,-1.397915e-004
1.766505e+003,-1.120772e-004
1.768433e+003,-2.299249e-005
1.770362e+003,2.520569e-004
1.772290e+003,5.510524e-004
1.774219e+003,-9.050593e-005
1.776147e+003,-3.122333e-004
1.778076e+003,-3.079940e-004
1.780004e+003,-7.915869e-005
1.781933e+003,-2.007000e-004
1.783861e+003,-1.861043e-004
1.785790e+003,-3.933758e-004
1.787718e+003,-4.374664e-004
1.789646e+003,-1.549218e-004
1.791575e+003,3.048275e-004
1.793504e+003,-3.258698e-005
1.795432e+003,-1.943093e-004
1.797361e+003,-3.872830e-004
1.799289e+003,-2.721548e-004
1.801218e+003,-1.758430e-004
1.803146e+003,-3.202241e-004
1.805074e+003,-5.121939e-004
1.807003e+003,-5.353503e-004
1.808932e+003,-5.667880e-004
1.810860e+003,-5.199406e-004
1.812789e+003,-8.174032e-004
1.814717e+003,-1.105363e-003
1.816646e+003,-1.174800e-003
1.818574e+003,-8.178819e-004
1.820502e+003,-7.646717e-004
1.822431e+003,-5.865563e-004
1.824360e+003,-4.988052e-004
1.826288e+003,-5.873851e-004
1.828217e+003,-5.085152e-004
1.830145e+003,-4.772432e-004
1.832073e+003,-1.000741e-003
1.834002e+003,-1.086766e-003
1.835931e+003,-1.183422e-003
1.837859e+003,-1.149407e-003
1.839788e+003,-1.271158e-003
1.841716e+003,-1.017714e-003
1.843645e+003,-7.150564e-004
1.845573e+003,-7.355083e-004
1.847501e+003,-1.062075e-003
1.849430e+003,-1.284607e-003
1.851359e+003,-1.390694e-003
1.853287e+003,-1.208492e-003
1.855216e+003,-1.394613e-003
1.857144e+003,-1.222175e-003
1.859073e+003,-1.205118e-003
1.861001e+003,-1.139192e-003
1.862929e+003,-1.209890e-003
1.864858e+003,-1.014384e-003
1.866787e+003,-7.887278e-004
1.868715e+003,-2.817679e-004
1.870644e+003,-6.361157e-004
1.872572e+003,-8.417219e-004
1.874500e+003,-1.143491e-003
1.876429e+003,-1.000164e-003
1.878357e+003,-1.070328e-003
1.880286e+003,-1.093319e-003
1.882215e+003,-1.158936e-003
1.884143e+003,-1.040874e-003
1.886072e+003,-1.319015e-003
1.888000e+003,-7.534418e-004
1.889928e+003,-5.239900e-004
1.891857e+003,-5.984101e-004
1.893785e+003,-4.678592e-004
1.895714e+003,-2.137367e-004
1.897643e+003,-3.904589e-004
1.899571e+003,-2.511516e-004
1.901500e+003,-2.476238e-004
1.903428e+003,-2.440959e-004
1.905356e+003,-2.405643e-004
1.907285e+003,-2.370384e-004
1.909213e+003,-2.335142e-004
1.911142e+003,-2.299901e-004
1.913071e+003,-2.264660e-004
1.914999e+003,-2.229419e-004
1.916927e+003,-2.194233e-004
1.918856e+003,-2.159011e-004
1.920784e+003,-2.123807e-004
1.922713e+003,-2.088603e-004
1.924641e+003,-2.053492e-004
1.926570e+003,-2.018306e-004
1.928499e+003,-1.983158e-004
1.930427e+003,-1.948029e-004
1.932355e+003,-1.912918e-004
1.934284e+003,-1.877770e-004
1.936212e+003,-1.842659e-004
1.938141e+003,-1.807604e-004
1.940070e+003,-1.772512e-004
1.941998e+003,-1.737420e-004
1.943927e+003,-1.702383e-004
1.945855e+003,-1.667328e-004
1.947783e+003,-1.632273e-004
1.949712e+003,-1.597255e-004
1.951640e+003,-1.562238e-004
1.953569e+003,-1.527220e-004
1.955498e+003,-1.492184e-004
1.957426e+003,-1.457222e-004
1.959354e+003,-1.422241e-004
1.961283e+003,-1.387298e-004
1.963211e+003,-1.352318e-004
1.965140e+003,-1.317374e-004
1.967068e+003,-1.282487e-004
1.968997e+003,-1.247544e-004
1.970926e+003,-1.212638e-004
1.972854e+003,-1.177732e-004
1.974782e+003,-1.142863e-004
1.976711e+003,-1.107976e-004
1.978639e+003,-1.073107e-004
1.980568e+003,-1.038276e-004
1.982496e+003,-1.003407e-004
1.984425e+003,-9.685755e-005
1.986354e+003,-9.337440e-005
1.988282e+003,-8.989498e-005
1.990210e+003,-8.641183e-005
1.992139e+003,-8.293241e-005
1.994067e+003,-7.945672e-005
1.995996e+003,-7.597916e-005
1.997924e+003,-7.250346e-005
1.999853e+003,-6.902777e-005
2.001781e+003,-6.555580e-005
2.003710e+003,-6.208383e-005
2.005638e+003,-5.861372e-005
2.007567e+003,-5.514547e-005
2.009495e+003,-5.167350e-005
2.011424e+003,-4.820526e-005
2.013352e+003,-4.473701e-005
2.015281e+003,-4.127249e-005
2.017209e+003,-3.780797e-005
2.019138e+003,-3.434531e-005
2.021066e+003,-3.087893e-005
2.022995e+003,-2.741814e-005
2.024923e+003,-2.395920e-005
2.026852e+003,-2.049841e-005
2.028781e+003,-1.704134e-005
2.030709e+003,-1.358427e-005
2.032637e+003,-1.012720e-005
2.034566e+003,-6.671995e-006
2.036494e+003,-3.218651e-006
2.038423e+003,2.346933e-007
2.040351e+003,3.688037e-006
2.042280e+003,7.137656e-006
2.044208e+003,1.058728e-005
2.046137e+003,1.403689e-005
2.048065e+003,1.748279e-005
2.049994e+003,2.092682e-005
2.051922e+003,2.437271e-005
2.053851e+003,2.782047e-005
2.055779e+003,3.126264e-005
2.057708e+003,3.470294e-005
2.059636e+003,3.814511e-005
2.061565e+003,4.158169e-005
2.063493e+003,4.502013e-005
2.065422e+003,4.845858e-005
2.067350e+003,5.189702e-005
2.069279e+003,5.533174e-005
2.071207e+003,5.876645e-005
2.073136e+003,6.220117e-005
2.075064e+003,6.563216e-005
2.076993e+003,6.906316e-005
2.078921e+003,7.249415e-005
2.080850e+003,7.591769e-005
2.082778e+003,7.934868e-005
2.084707e+003,8.277595e-005
2.086635e+003,8.620322e-005
2.088564e+003,8.962862e-005
2.090492e+003,9.305216e-005
2.092421e+003,9.647012e-005
2.094349e+003,9.989366e-005
2.096278e+003,1.033135e-004
2.098206e+003,1.067352e-004
2.100135e+003,1.101494e-004
2.102063e+003,1.135692e-004
2.103992e+003,1.169853e-004
2.105920e+003,1.203977e-004
2.107849e+003,1.238137e-004
2.109777e+003,1.272243e-004
2.111706e+003,1.306348e-004
2.113634e+003,1.340471e-004
2.115563e+003,1.374576e-004
2.117491e+003,1.408663e-004
2.119420e+003,1.442712e-004
2.121348e+003,1.476780e-004
2.123277e+003,1.510829e-004
2.125205e+003,1.544878e-004
2.127134e+003,1.578890e-004
2.129062e+003,1.612902e-004
2.130991e+003,1.646914e-004
2.132919e+003,1.680925e-004
2.134848e+003,1.714900e-004
2.136776e+003,1.748856e-004
2.138705e+003,1.782831e-004
2.140633e+003,1.816750e-004
2.142562e+003,1.850724e-004
2.144490e+003,1.884643e-004
2.146419e+003,1.918580e-004
2.148347e+003,1.952462e-004
2.150276e+003,1.986362e-004
2.152204e+003,2.020262e-004
2.154133e+003,2.054162e-004
2.156061e+003,2.088025e-004
2.157990e+003,2.121869e-004
2.159918e+003,2.155714e-004
2.161847e+003,2.189539e-004
2.163775e+003,2.223365e-004
2.165704e+003,2.257153e-004
2.167632e+003,2.290942e-004
2.169561e+003,2.324730e-004
2.171489e+003,2.358519e-004
2.173418e+003,2.392307e-004
2.175346e+003,2.426039e-004
2.177275e+003,2.459791e-004
2.179203e+003,2.493523e-004
2.181132e+003,2.527274e-004
2.183060e+003,2.560951e-004
2.184989e+003,2.594665e-004
2.186917e+003,2.628379e-004
2.188846e+003,2.662055e-004
2.190774e+003,2.695695e-004
2.192703e+003,2.729371e-004
2.194631e+003,2.763029e-004
2.196560e+003,2.796650e-004
2.198488e+003,2.830252e-004
2.200417e+003,2.863929e-004
2.202345e+003,2.897512e-004
2.204274e+003,2.931077e-004
2.206202e+003,2.964698e-004
2.208131e+003,2.998244e-004
2.210059e+003,3.031790e-004
2.211988e+003,3.065355e-004
2.213916e+003,3.098864e-004
2.215845e+003,3.132392e-004
2.217773e+003,3.165938e-004
2.219702e+003,3.199410e-004
2.221630e+003,3.232956e-004
2.223559e+003,3.266428e-004
2.225487e+003,3.299881e-004
2.227416e+003,3.333334e-004
2.229344e+003,3.366787e-004
2.231273e+003,3.400240e-004
2.233201e+003,3.433656e-004
2.235130e+003,3.467109e-004
2.237058e+003,3.500506e-004
2.238987e+003,3.533885e-004
2.240915e+003,3.567263e-004
2.242844e+003,3.600642e-004
2.244772e+003,3.634021e-004
2.246701e+003,3.667362e-004
2.248629e+003,3.700703e-004
2.250558e+003,3.734045e-004
2.252486e+003,3.767386e-004
2.254415e+003,3.800690e-004
2.256343e+003,3.833976e-004
2.258272e+003,3.867261e-004
2.260200e+003,3.900528e-004
2.262129e+003,3.933813e-004
2.264057e+003,3.967062e-004
2.265986e+003,4.000291e-004
2.267914e+003,4.033502e-004
2.269843e+003,4.066732e-004
2.271771e+003,4.099961e-004
2.273700e+003,4.133154e-004
2.275628e+003,4.166365e-004
2.277557e+003,4.199557e-004
2.279485e+003,4.232712e-004
2.281414e+003,4.265867e-004
2.283342e+003,4.299004e-004
2.285271e+003,4.332159e-004
2.287199e+003,4.365277e-004
2.289128e+003,4.398394e-004
2.291056e+003,4.431512e-004
2.292985e+003,4.464574e-004
2.294913e+003,4.497655e-004
2.296842e+003,4.530735e-004
2.298770e+003,4.563779e-004
2.300699e+003,4.596859e-004
2.302627e+003,4.629884e-004
2.304556e+003,4.662927e-004
2.306484e+003,4.695915e-004
2.308413e+003,4.728958e-004
2.310341e+003,4.761927e-004
2.312270e+003,4.794933e-004
2.314198e+003,4.827864e-004
2.316127e+003,4.860796e-004
2.318055e+003,4.893765e-004
2.319984e+003,4.926752e-004
2.321912e+003,4.959684e-004
2.323841e+003,4.992560e-004
2.325769e+003,5.025491e-004
2.327698e+003,5.058385e-004
2.329626e+003,5.091242e-004
2.331555e+003,5.124118e-004
2.333483e+003,5.156994e-004
2.335412e+003,5.189832e-004
2.337340e+003,5.222689e-004
2.339269e+003,5.255509e-004
2.341197e+003,5.288329e-004
2.343126e+003,5.321130e-004
2.345054e+003,5.353913e-004
2.346983e+003,5.386751e-004
2.348911e+003,5.419534e-004
2.350840e+003,5.452279e-004
2.352768e+003,5.485024e-004
2.354697e+003,5.517807e-004
2.356625e+003,5.550496e-004
2.358554e+003,5.583242e-004
2.360482e+003,5.615931e-004
2.362411e+003,5.648639e-004
2.364339e+003,5.681366e-004
2.366268e+003,5.713999e-004
2.368196e+003,5.746689e-004
2.370125e+003,5.779304e-004
2.372053e+003,5.811937e-004
2.373982e+003,5.844608e-004
2.375910e+003,5.877241e-004
2.377839e+003,5.909875e-004
2.379767e+003,5.942471e-004
2.381696e+003,5.975030e-004
2.383624e+003,6.007627e-004
2.385553e+003,6.040186e-004
2.387481e+003,6.072745e-004
2.389410e+003,6.105285e-004
2.391338e+003,6.137881e-004
2.393267e+003,6.170347e-004
2.395195e+003,6.202850e-004
2.397124e+003,6.235372e-004
2.399052e+003,6.267894e-004
2.400981e+003,6.583687e-004
2.402909e+003,6.150138e-004
2.404838e+003,5.644001e-004
2.406766e+003,8.083358e-004
2.408695e+003,1.308218e-003
2.410623e+003,1.427963e-003
2.412552e+003,1.348346e-003
2.414480e+003,1.334151e-003
2.416409e+003,1.278717e-003
2.418337e+003,1.074722e-003
2.420266e+003,1.134932e-003
2.422194e+003,1.231605e-003
2.424123e+003,1.196979e-003
2.426051e+003,1.139212e-003
2.427979e+003,1.247574e-003
2.429908e+003,1.215750e-003
2.431837e+003,1.184450e-003
2.433765e+003,1.165424e-003
2.435694e+003,1.132367e-003
2.437622e+003,1.168413e-003
2.439551e+003,1.174588e-003
2.441479e+003,1.075428e-003
2.443407e+003,1.267975e-003
2.445336e+003,1.453621e-003
2.447265e+003,1.499362e-003
2.449193e+003,1.456935e-003
2.451122e+003,1.459509e-003
2.453050e+003,1.453832e-003
2.454979e+003,1.549164e-003
2.456907e+003,1.544697e-003
2.458836e+003,1.534458e-003
2.460764e+003,1.501029e-003
2.462693e+003,1.506042e-003
2.464621e+003,1.418173e-003
2.466550e+003,1.473412e-003
2.468478e+003,1.547018e-003
2.470406e+003,1.768438e-003
2.472335e+003,1.956617e-003
2.474264e+003,1.991674e-003
2.476192e+003,1.855385e-003
2.478121e+003,1.755787e-003
2.480049e+003,1.769334e-003
2.481978e+003,1.888357e-003
2.483906e+003,1.974132e-003
2.485835e+003,1.822151e-003
2.487763e+003,1.693705e-003
2.489692e+003,1.852108e-003
2.491620e+003,1.976550e-003
2.493549e+003,2.118491e-003
2.495477e+003,2.286123e-003
2.497406e+003,2.303442e-003
2.499334e+003,2.299186e-003
2.501263e+003,2.295183e-003
2.503191e+003,2.065860e-003
2.505120e+003,2.073323e-003
2.507048e+003,2.255207e-003
2.508977e+003,2.447378e-003
2.510905e+003,2.473842e-003
2.512833e+003,2.423080e-003
2.514762e+003,2.516864e-003
2.516691e+003,2.736557e-003
2.518619e+003,2.865871e-003
2.520548e+003,3.002508e-003
2.522476e+003,2.997302e-003
2.524405e+003,3.135370e-003
2.526333e+003,3.278822e-003
2.528261e+003,3.298832e-003
2.530190e+003,3.361411e-003
2.532119e+003,3.493471e-003
2.534047e+003,3.360821e-003
2.535976e+003,3.103876e-003
2.537904e+003,3.054535e-003
2.539833e+003,3.184186e-003
2.541761e+003,3.351506e-003
2.543689e+003,3.548542e-003
2.545618e+003,3.670674e-003
2.547547e+003,3.746752e-003
2.549475e+003,3.812883e-003
2.551404e+003,3.936967e-003
2.553332e+003,4.063157e-003
2.555260e+003,4.153688e-003
2.557189e+003,4.157513e-003
2.559117e+003,4.074348e-003
2.561046e+003,4.022015e-003
2.562975e+003,4.137719e-003
2.564903e+003,4.386844e-003
2.566832e+003,4.545432e-003
2.568760e+003,4.665665e-003
2.570688e+003,4.805714e-003
2.572617e+003,4.882053e-003
2.574546e+003,5.079880e-003
2.576474e+003,5.169712e-003
2.578403e+003,5.367462e-003
2.580331e+003,5.538076e-003
2.582260e+003,5.782936e-003
2.584188e+003,5.927887e-003
2.586116e+003,5.945839e-003
2.588045e+003,6.137043e-003
2.589974e+003,6.510098e-003
2.591902e+003,6.585117e-003
2.593831e+003,6.583575e-003
2.595759e+003,6.795995e-003
2.597688e+003,7.054534e-003
2.599616e+003,7.216904e-003
2.601544e+003,7.391967e-003
2.603473e+003,7.635869e-003
2.605402e+003,7.842794e-003
2.607330e+003,8.041490e-003
2.609259e+003,8.279558e-003
2.611187e+003,8.575153e-003
2.613115e+003,8.806724e-003
2.615044e+003,9.081069e-003
2.616972e+003,9.405375e-003
2.618901e+003,9.742256e-003
2.620830e+003,1.012556e-002
2.622758e+003,1.049229e-002
2.624687e+003,1.083943e-002
2.626615e+003,1.115277e-002
2.628543e+003,1.148846e-002
2.630472e+003,1.188721e-002
2.632400e+003,1.221651e-002
2.634329e+003,1.240594e-002
2.636258e+003,1.247095e-002
2.638186e+003,1.248046e-002
2.640115e+003,1.246797e-002
2.642043e+003,1.242671e-002
2.643971e+003,1.247770e-002
2.645900e+003,1.252957e-002
2.647828e+003,1.260948e-002
2.649757e+003,1.270468e-002
2.651686e+003,1.279536e-002
2.653614e+003,1.295964e-002
2.655542e+003,1.313101e-002
2.657471e+003,1.319335e-002
2.659399e+003,1.317098e-002
2.661328e+003,1.305905e-002
2.663256e+003,1.278357e-002
2.665185e+003,1.248599e-002
2.667114e+003,1.230191e-002
2.669042e+003,1.211978e-002
2.670970e+003,1.199115e-002
2.672899e+003,1.186866e-002
2.674827e+003,1.173059e-002
2.676756e+003,1.161958e-002
2.678685e+003,1.159460e-002
2.680613e+003,1.155835e-002
2.682542e+003,1.151460e-002
2.684470e+003,1.148200e-002
2.686398e+003,1.140782e-002
2.688327e+003,1.139690e-002
2.690255e+003,1.152791e-002
2.692184e+003,1.155162e-002
2.694113e+003,1.153694e-002
2.696041e+003,1.164096e-002
2.697969e+003,1.185210e-002
2.699898e+003,1.203774e-002
2.701826e+003,1.211963e-002
2.703755e+003,1.230314e-002
2.705683e+003,1.261033e-002
2.707612e+003,1.279533e-002
2.709541e+003,1.288978e-002
2.711469e+003,1.303003e-002
2.713397e+003,1.318827e-002
2.715326e+003,1.336145e-002
2.717254e+003,1.350895e-002
2.719183e+003,1.364752e-002
2.721111e+003,1.386934e-002
2.723040e+003,1.416180e-002
2.724969e+003,1.449057e-002
2.726897e+003,1.474522e-002
2.728825e+003,1.496715e-002
2.730754e+003,1.526102e-002
2.732682e+003,1.549674e-002
2.734611e+003,1.571730e-002
2.736539e+003,1.600521e-002
2.738468e+003,1.622526e-002
2.740396e+003,1.638059e-002
2.742325e+003,1.653020e-002
2.744253e+003,1.660693e-002
2.746182e+003,1.664067e-002
2.748110e+003,1.677817e-002
2.750039e+003,1.694074e-002
2.751967e+003,1.713065e-002
2.753896e+003,1.742424e-002
2.755824e+003,1.777837e-002
2.757753e+003,1.809441e-002
2.759681e+003,1.845764e-002
2.761610e+003,1.889266e-002
2.763538e+003,1.937863e-002
2.765467e+003,1.982002e-002
2.767395e+003,2.028662e-002
2.769324e+003,2.091099e-002
2.771252e+003,2.154102e-002
2.773181e+003,2.218765e-002
2.775109e+003,2.289219e-002
2.777038e+003,2.361673e-002
2.778966e+003,2.445243e-002
2.780895e+003,2.539439e-002
2.782823e+003,2.642904e-002
2.784752e+003,2.754965e-002
2.786680e+003,2.880960e-002
2.788609e+003,3.013104e-002
2.790537e+003,3.151445e-002
2.792466e+003,3.293973e-002
2.794394e+003,3.437423e-002
2.796323e+003,3.588983e-002
2.798251e+003,3.745413e-002
2.800180e+003,3.906176e-002
2.802108e+003,4.074469e-002
2.804037e+003,4.261057e-002
2.805965e+003,4.468954e-002
2.807894e+003,4.706020e-002
2.809822e+003,4.971290e-002
2.811751e+003,5.270528e-002
2.813679e+003,5.608396e-002
2.815608e+003,5.991031e-002
2.817536e+003,6.437627e-002
2.819465e+003,6.967771e-002
2.821393e+003,7.593394e-002
2.823322e+003,8.345489e-002
2.825250e+003,9.261244e-002
2.827179e+003,1.039261e-001
2.829107e+003,1.179659e-001
2.831036e+003,1.355207e-001
2.832964e+003,1.581242e-001
2.834893e+003,1.884062e-001
2.836821e+003,2.296251e-001
2.838750e+003,2.869336e-001
2.840678e+003,3.685015e-001
2.842607e+003,4.825228e-001
2.844535e+003,6.233347e-001
2.846464e+003,7.363545e-001
2.848392e+003,7.211681e-001
2.850321e+003,5.794949e-001
2.852249e+003,4.222871e-001
2.854178e+003,3.073824e-001
2.856106e+003,2.302282e-001
2.858035e+003,1.773539e-001
2.859963e+003,1.412291e-001
2.861892e+003,1.173465e-001
2.863820e+003,1.023740e-001
2.865749e+003,9.398450e-002
2.867677e+003,9.066756e-002
2.869606e+003,9.124708e-002
2.871534e+003,9.533478e-002
2.873463e+003,1.028672e-001
2.875391e+003,1.139678e-001
2.877320e+003,1.284262e-001
2.879248e+003,1.453955e-001
2.881177e+003,1.638426e-001
2.883105e+003,1.831118e-001
2.885034e+003,2.028069e-001
2.886962e+003,2.227372e-001
2.888891e+003,2.428174e-001
2.890819e+003,2.628932e-001
2.892748e+003,2.827001e-001
2.894676e+003,3.022370e-001
2.896605e+003,3.219988e-001
2.898533e+003,3.429373e-001
2.900462e+003,3.667208e-001
2.902390e+003,3.960210e-001
2.904319e+003,4.349218e-001
2.906247e+003,4.883615e-001
2.908176e+003,5.611065e-001
2.910104e+003,6.560090e-001
2.912033e+003,7.632245e-001
2.913961e+003,8.404562e-001
2.915890e+003,8.321363e-001
2.917818e+003,7.429264e-001
2.919747e+003,6.278018e-001
2.921675e+003,5.208068e-001
2.923604e+003,4.303164e-001
2.925532e+003,3.566229e-001
2.927461e+003,2.968266e-001
2.929389e+003,2.470330e-001
2.931318e+003,2.047684e-001
2.933246e+003,1.689574e-001
2.935175e+003,1.388134e-001
2.937103e+003,1.136816e-001
2.939032e+003,9.270532e-002
2.940960e+003,7.532051e-002
2.942889e+003,6.135286e-002
2.944817e+003,5.038720e-002
2.946746e+003,4.200711e-002
2.948674e+003,3.571274e-002
2.950603e+003,3.101724e-002
2.952531e+003,2.740952e-002
2.954460e+003,2.426556e-002
2.956388e+003,2.149422e-002
2.958317e+003,1.906476e-002
2.960245e+003,1.683527e-002
2.962174e+003,1.474002e-002
2.964102e+003,1.284982e-002
2.966031e+003,1.116924e-002
2.967959e+003,9.712763e-003
2.969888e+003,8.423783e-003
2.971816e+003,7.259123e-003
2.973745e+003,6.335083e-003
2.975673e+003,5.577981e-003
2.977602e+003,4.822884e-003
2.979530e+003,4.191570e-003
2.981459e+003,3.648289e-003
2.983387e+003,3.205899e-003
2.985316e+003,2.829868e-003
2.987244e+003,2.407461e-003
2.989173e+003,2.001304e-003
2.991101e+003,1.774695e-003
2.993030e+003,1.610458e-003
2.994958e+003,1.485996e-003
2.996887e+003,1.378790e-003
2.998815e+003,1.290701e-003
3.000744e+003,1.175907e-003
3.002672e+003,1.059547e-003
3.004601e+003,1.002718e-003
3.006529e+003,9.031482e-004
3.008458e+003,7.859953e-004
3.010386e+003,7.367469e-004
3.012315e+003,7.322282e-004
3.014243e+003,7.527694e-004
3.016172e+003,6.586611e-004
3.018100e+003,5.959906e-004
3.020029e+003,6.773621e-004
3.021957e+003,6.609820e-004
3.023886e+003,6.756708e-004
3.025814e+003,6.944910e-004
3.027743e+003,6.312206e-004
3.029671e+003,5.860627e-004
3.031600e+003,5.396120e-004
3.033528e+003,5.245097e-004
3.035457e+003,4.321188e-004
3.037385e+003,2.332479e-004
3.039314e+003,9.148568e-005
3.041242e+003,-4.146621e-005
3.043171e+003,-1.597125e-004
3.045099e+003,-2.218131e-004
3.047028e+003,-2.643466e-004
3.048956e+003,-3.081784e-004
3.050885e+003,-4.778840e-004
3.052813e+003,-6.594900e-004
3.054742e+003,-6.905962e-004
3.056670e+003,-6.608013e-004
3.058599e+003,-6.346032e-004
3.060527e+003,-7.144269e-004
3.062456e+003,-7.509422e-004
3.064384e+003,-7.200837e-004
3.066313e+003,-7.597767e-004
3.068241e+003,-7.681027e-004
3.070170e+003,-8.062106e-004
3.072098e+003,-7.743780e-004
3.074027e+003,-7.897168e-004
3.075955e+003,-8.585714e-004
3.077884e+003,-8.770097e-004
3.079812e+003,-8.201972e-004
3.081741e+003,-8.338317e-004
3.083669e+003,-9.391680e-004
3.085598e+003,-9.823944e-004
3.087526e+003,-9.503178e-004
3.089455e+003,-1.074040e-003
3.091383e+003,-1.261717e-003
3.093312e+003,-1.407987e-003
3.095240e+003,-1.580751e-003
3.097169e+003,-1.746783e-003
3.099097e+003,-1.883077e-003
3.101026e+003,-2.094323e-003
3.102954e+003,-2.252515e-003
3.104883e+003,-2.278717e-003
3.106811e+003,-2.243284e-003
3.108740e+003,-2.253614e-003
3.110668e+003,-2.360774e-003
3.112597e+003,-2.479857e-003
3.114525e+003,-2.423594e-003
3.116454e+003,-2.398599e-003
3.118382e+003,-2.464177e-003
3.120311e+003,-2.587104e-003
3.122239e+003,-2.635220e-003
3.124168e+003,-2.526302e-003
3.126096e+003,-2.408354e-003
3.128025e+003,-2.452435e-003
3.129953e+003,-2.509492e-003
3.131882e+003,-2.539363e-003
3.133810e+003,-2.523432e-003
3.135739e+003,-2.510348e-003
3.137667e+003,-2.481947e-003
3.139596e+003,-2.458511e-003
3.141524e+003,-2.414934e-003
3.143453e+003,-2.428368e-003
3.145381e+003,-2.435742e-003
3.147310e+003,-2.334518e-003
3.149238e+003,-2.296411e-003
3.151167e+003,-2.336161e-003
3.153095e+003,-2.326842e-003
3.155024e+003,-2.285348e-003
3.156952e+003,-2.143931e-003
3.158881e+003,-2.103658e-003
3.160809e+003,-2.105201e-003
3.162738e+003,-2.090570e-003
3.164666e+003,-2.060812e-003
3.166594e+003,-1.966322e-003
3.168523e+003,-1.969289e-003
3.170452e+003,-1.956480e-003
3.172380e+003,-1.906028e-003
3.174309e+003,-1.868961e-003
3.176237e+003,-1.752757e-003
3.178166e+003,-1.732033e-003
3.180094e+003,-1.728291e-003
3.182022e+003,-1.748279e-003
3.183951e+003,-1.652531e-003
3.185880e+003,-1.496851e-003
3.187808e+003,-1.508845e-003
3.189737e+003,-1.550479e-003
3.191665e+003,-1.565013e-003
3.193594e+003,-1.563767e-003
3.195522e+003,-1.438420e-003
3.197450e+003,-1.194675e-003
3.199379e+003,-1.240600e-003
3.201308e+003,-1.345813e-003
3.203236e+003,-1.400992e-003
3.205165e+003,-1.446243e-003
3.207093e+003,-1.335479e-003
3.209021e+003,-1.217283e-003
3.210950e+003,-1.210496e-003
3.212878e+003,-1.148056e-003
3.214807e+003,-1.067881e-003
3.216736e+003,-1.216147e-003
3.218664e+003,-1.227785e-003
3.220593e+003,-1.076456e-003
3.222521e+003,-9.382553e-004
3.224449e+003,-8.634962e-004
3.226378e+003,-8.936673e-004
3.228307e+003,-9.055920e-004
3.230235e+003,-8.999035e-004
3.232164e+003,-9.258725e-004
3.234092e+003,-9.006746e-004
3.236021e+003,-8.314550e-004
3.237949e+003,-8.029863e-004
3.239877e+003,-8.378625e-004
3.241806e+003,-8.004718e-004
3.243735e+003,-6.367639e-004
3.245663e+003,-6.171353e-004
3.247592e+003,-6.962679e-004
3.249520e+003,-7.042028e-004
3.251448e+003,-5.811788e-004
3.253377e+003,-4.597530e-004
3.255305e+003,-4.112646e-004
3.257234e+003,-3.070459e-004
3.259163e+003,-3.070459e-004
3.261091e+003,-3.313832e-004
3.263020e+003,-3.426895e-004
3.264948e+003,-2.665333e-004
3.266876e+003,-1.868494e-004
3.268805e+003,-1.633950e-004
3.270733e+003,-1.552179e-004
3.272662e+003,-3.524870e-005
3.274591e+003,1.632422e-005
3.276519e+003,-5.708262e-005
3.278448e+003,-1.788326e-004
3.280376e+003,-1.767762e-004
3.282304e+003,-1.378693e-004
3.284233e+003,-1.251996e-004
3.286161e+003,-5.110726e-005
3.288090e+003,1.007169e-004
3.290019e+003,1.529381e-004
3.291947e+003,1.602136e-004
3.293875e+003,1.519658e-004
3.295804e+003,1.040101e-004
3.297732e+003,6.605685e-005
3.299661e+003,1.430325e-004
3.301589e+003,2.395883e-004
3.303518e+003,3.008433e-004
3.305447e+003,3.742799e-004
3.307375e+003,4.387163e-004
3.309303e+003,3.733039e-004
3.311232e+003,3.391579e-004
3.313160e+003,4.422404e-004
3.315089e+003,4.722103e-004
3.317018e+003,3.860518e-004
3.318946e+003,3.478862e-004
3.320875e+003,4.021898e-004
3.322803e+003,5.438216e-004
3.324731e+003,6.513298e-004
3.326660e+003,6.511472e-004
3.328588e+003,6.707273e-004
3.330517e+003,6.292984e-004
3.332446e+003,5.193949e-004
3.334374e+003,6.930530e-004
3.336302e+003,7.642135e-004
3.338231e+003,6.930418e-004
3.340159e+003,6.616935e-004
3.342088e+003,6.798692e-004
3.344016e+003,6.967150e-004
3.345945e+003,7.238947e-004
3.347874e+003,7.812232e-004
3.349802e+003,8.151904e-004
3.351730e+003,8.833334e-004
3.353659e+003,9.466559e-004
3.355587e+003,1.052085e-003
3.357516e+003,1.022115e-003
3.359444e+003,1.020167e-003
3.361373e+003,1.101736e-003
3.363302e+003,1.011685e-003
3.365230e+003,1.007091e-003
3.367158e+003,1.014598e-003
3.369087e+003,1.016408e-003
3.371015e+003,9.690002e-004
3.372944e+003,9.023063e-004
3.374872e+003,9.362325e-004
3.376801e+003,9.454302e-004
3.378729e+003,1.015998e-003
3.380658e+003,9.810701e-004
3.382586e+003,9.581558e-004
3.384515e+003,9.903572e-004
3.386443e+003,9.110905e-004
3.388372e+003,8.548573e-004
3.390300e+003,8.870438e-004
3.392229e+003,9.770729e-004
3.394157e+003,9.257160e-004
3.396086e+003,9.218007e-004
3.398014e+003,8.535124e-004
3.399943e+003,8.357018e-004
3.401871e+003,9.179711e-004
3.403800e+003,9.017885e-004
3.405728e+003,8.187667e-004
3.407657e+003,7.115975e-004
3.409585e+003,6.084703e-004
3.411514e+003,6.220527e-004
3.413442e+003,6.494299e-004
3.415371e+003,6.309412e-004
3.417299e+003,6.150901e-004
3.419228e+003,6.727912e-004
3.421156e+003,7.136054e-004
3.423085e+003,7.493496e-004
3.425013e+003,7.628165e-004
3.426942e+003,6.205663e-004
3.428870e+003,5.261078e-004
3.430799e+003,6.211922e-004
3.432727e+003,6.429926e-004
3.434656e+003,5.389377e-004
3.436584e+003,5.410053e-004
3.438513e+003,6.324537e-004
3.440441e+003,7.110499e-004
3.442370e+003,6.057359e-004
3.444298e+003,5.247258e-004
3.446227e+003,7.169470e-004
3.448155e+003,5.559847e-004
3.450084e+003,4.487075e-004
3.452012e+003,5.218163e-004
3.453941e+003,6.022789e-004
3.455869e+003,4.260056e-004
3.457798e+003,2.631582e-004
3.459726e+003,3.770441e-004
3.461655e+003,4.540682e-004
3.463583e+003,4.894547e-004
3.465512e+003,5.400442e-004
3.467440e+003,3.370270e-004
3.469369e+003,1.867674e-004
3.471297e+003,2.137013e-004
3.473226e+003,2.399608e-004
3.475154e+003,2.073012e-004
3.477083e+003,8.530542e-005
3.479011e+003,1.639351e-004
3.480940e+003,3.908724e-004
3.482868e+003,2.514981e-004
3.484797e+003,1.777261e-004
3.486725e+003,2.443865e-004
3.488654e+003,9.950250e-005
3.490582e+003,-4.374236e-005
3.492511e+003,-9.522215e-005
3.494439e+003,4.645810e-005
3.496368e+003,1.087151e-004
3.498296e+003,1.972914e-005
3.500225e+003,2.595596e-004
3.502153e+003,5.013570e-004
3.504082e+003,2.269447e-004
3.506010e+003,-2.998859e-006
3.507939e+003,1.214184e-004
3.509867e+003,7.988140e-005
3.511796e+003,-1.626611e-004
3.513724e+003,-3.337003e-004
3.515653e+003,-2.827831e-004
3.517581e+003,-1.978166e-004
3.519510e+003,-1.768544e-004
3.521438e+003,6.032735e-005
3.523367e+003,2.097078e-004
3.525295e+003,1.159981e-004
3.527224e+003,2.287216e-004
3.529152e+003,1.005456e-004
3.531081e+003,-1.604632e-004
3.533009e+003,-4.207529e-004
3.534938e+003,-3.896430e-004
3.536866e+003,-4.070885e-004
3.538795e+003,-5.456284e-004
3.540723e+003,-6.700233e-004
3.542652e+003,-4.290119e-004
3.544580e+003,8.666888e-005
3.546509e+003,8.675829e-005
3.548437e+003,-1.850650e-004
3.550366e+003,-2.135485e-004
3.552294e+003,-3.026649e-004
3.554223e+003,-5.272254e-004
3.556151e+003,-6.811060e-004
3.558080e+003,-7.428490e-004
3.560008e+003,-4.906990e-004
3.561937e+003,-2.921149e-004
3.563865e+003,2.590567e-005
3.565794e+003,7.026047e-004
3.567722e+003,3.573671e-004
3.569651e+003,-3.676042e-004
3.571579e+003,-6.768592e-004
3.573508e+003,-6.509200e-004
3.575436e+003,-4.972853e-004
3.577365e+003,-4.547201e-004
3.579293e+003,-4.303195e-004
3.581222e+003,-4.742593e-004
3.583150e+003,-3.080331e-004
3.585079e+003,4.334375e-005
3.587007e+003,5.554818e-004
3.588936e+003,1.681931e-004
3.590864e+003,-4.975870e-005
3.592793e+003,3.766827e-004
3.594721e+003,7.486753e-004
3.596650e+003,6.535016e-004
3.598578e+003,7.857382e-004
3.600507e+003,1.072969e-003
3.602435e+003,9.005144e-004
3.604364e+003,8.943714e-004
3.606292e+003,1.601730e-003
3.608221e+003,1.830347e-003
3.610149e+003,1.518585e-003
3.612078e+003,1.880113e-003
3.614006e+003,1.475379e-003
3.615935e+003,9.593703e-004
3.617863e+003,1.165796e-003
3.619792e+003,8.602105e-004
3.621720e+003,2.945848e-004
3.623649e+003,1.731291e-004
3.625577e+003,3.980435e-004
3.627506e+003,1.614589e-003
3.629434e+003,1.700822e-003
3.631363e+003,7.609874e-004
3.633291e+003,5.020648e-004
3.635220e+003,9.270757e-005
3.637148e+003,2.903864e-004
3.639077e+003,4.394092e-004
3.641005e+003,4.741848e-004
3.642934e+003,4.285388e-004
3.644862e+003,6.922819e-004
3.646791e+003,1.782641e-003
3.648719e+003,3.283761e-003
3.650648e+003,2.560932e-003
3.652576e+003,8.108132e-004
3.654505e+003,8.755587e-004
3.656433e+003,7.265620e-004
3.658362e+003,2.524592e-004
3.660290e+003,1.397766e-004
3.662219e+003,-7.294118e-006
3.664147e+003,-6.316602e-005
3.666076e+003,6.001443e-006
3.668004e+003,1.018304e-003
3.669933e+003,1.983829e-003
3.671861e+003,1.424719e-003
3.673790e+003,2.036806e-003
3.675718e+003,1.884505e-003
3.677647e+003,1.156576e-003
3.679575e+003,8.417629e-004
3.681504e+003,3.610402e-004
3.683432e+003,3.758967e-004
3.685361e+003,6.623827e-004
3.687289e+003,1.655959e-003
3.689218e+003,2.468318e-003
3.691146e+003,1.554750e-003
3.693075e+003,6.269701e-004
3.695003e+003,5.776845e-004
3.696932e+003,5.277172e-004
3.698860e+003,6.718747e-004
3.700789e+003,9.630136e-004
3.702717e+003,7.661209e-004
3.704646e+003,6.982908e-004
3.706574e+003,7.463507e-004
3.708503e+003,1.483053e-003
3.710431e+003,2.675004e-003
3.712360e+003,1.606409e-003
3.714288e+003,6.305464e-004
3.716217e+003,5.298927e-004
3.718145e+003,7.027797e-004
3.720074e+003,1.157824e-003
3.722002e+003,1.328636e-003
3.723931e+003,1.288626e-003
3.725859e+003,1.512945e-003
3.727788e+003,9.793490e-004
3.729716e+003,1.213949e-003
3.731645e+003,2.101790e-003
3.733573e+003,3.128074e-003
3.735502e+003,3.796469e-003
3.737430e+003,2.277467e-003
3.739359e+003,1.655359e-003
3.741287e+003,1.875494e-003
3.743216e+003,3.348261e-003
3.745144e+003,3.623445e-003
3.747073e+003,2.896957e-003
3.749001e+003,3.069922e-003
3.750930e+003,3.668945e-003
3.752858e+003,2.650082e-003
3.754787e+003,1.768891e-003
3.756715e+003,1.821075e-003
3.758644e+003,2.281677e-003
3.760572e+003,1.956630e-003
3.762501e+003,1.534857e-003
3.764429e+003,1.804691e-003
3.766358e+003,1.852792e-003
3.768286e+003,2.184041e-003
3.770215e+003,1.864132e-003
3.772143e+003,1.293723e-003
3.774072e+003,1.058005e-003
3.776000e+003,1.026992e-003
3.777929e+003,1.785364e-003
3.779857e+003,2.091628e-003
3.781786e+003,1.859557e-003
3.783714e+003,1.927037e-003
3.785643e+003,1.357026e-003
3.787571e+003,1.207892e-003
3.789500e+003,1.195997e-003
3.791428e+003,7.919893e-004
3.793357e+003,1.126710e-003
3.795285e+003,2.071023e-003
3.797214e+003,2.182432e-003
3.799142e+003,2.769303e-003
3.801071e+003,3.656216e-003
3.802999e+003,2.410658e-003
3.804927e+003,2.150897e-003
3.806856e+003,1.977395e-003
3.808785e+003,1.669880e-003
3.810713e+003,1.754005e-003
3.812642e+003,2.028547e-003
3.814570e+003,3.273394e-003
3.816499e+003,3.163058e-003
3.818427e+003,3.246486e-003
3.820355e+003,3.930259e-003
3.822284e+003,2.492990e-003
3.824213e+003,2.360255e-003
3.826141e+003,2.490446e-003
3.828070e+003,2.178133e-003
3.829998e+003,2.559185e-003
3.831927e+003,2.755690e-003
3.833855e+003,2.980288e-003
3.835783e+003,3.542155e-003
3.837712e+003,3.999460e-003
3.839641e+003,3.507596e-003
3.841569e+003,2.801690e-003
3.843498e+003,2.589907e-003
3.845426e+003,2.243411e-003
3.847354e+003,2.396312e-003
3.849283e+003,2.956502e-003
3.851211e+003,4.247278e-003
3.853140e+003,5.103983e-003
3.855069e+003,3.185499e-003
3.856997e+003,2.592415e-003
3.858926e+003,2.363168e-003
3.860854e+003,2.798542e-003
3.862782e+003,3.736801e-003
3.864711e+003,3.760383e-003
3.866640e+003,3.269304e-003
3.868568e+003,3.993195e-003
3.870497e+003,3.162146e-003
3.872425e+003,3.253508e-003
3.874354e+003,3.057931e-003
3.876282e+003,2.212994e-003
3.878210e+003,2.877071e-003
3.880139e+003,3.594037e-003
3.882068e+003,3.419437e-003
3.883996e+003,4.041597e-003
3.885925e+003,3.445070e-003
3.887853e+003,2.688333e-003
3.889781e+003,3.105357e-003
3.891710e+003,3.330830e-003
3.893638e+003,2.965190e-003
3.895567e+003,2.825178e-003
3.897496e+003,3.460757e-003
3.899424e+003,4.072532e-003
3.901353e+003,4.163969e-003
3.903281e+003,4.288420e-003
3.905209e+003,3.530975e-003
3.907138e+003,2.645690e-003
3.909066e+003,2.514742e-003
3.910995e+003,2.755944e-003
3.912924e+003,2.876565e-003
3.914852e+003,3.160797e-003
3.916781e+003,3.271636e-003
3.918709e+003,3.158864e-003
3.920637e+003,2.912086e-003
3.922566e+003,3.227152e-003
3.924494e+003,3.530718e-003
3.926423e+003,3.163602e-003
3.928352e+003,3.205474e-003
3.930280e+003,3.358379e-003
3.932208e+003,3.385808e-003
3.934137e+003,2.942532e-003
3.936065e+003,2.671167e-003
3.937994e+003,2.601828e-003
3.939922e+003,2.782311e-003
3.941851e+003,3.221378e-003
3.943780e+003,2.981313e-003
3.945708e+003,2.801366e-003
3.947636e+003,2.954144e-003
3.949565e+003,2.826884e-003
3.951493e+003,2.655331e-003
3.953422e+003,2.719995e-003
3.955351e+003,2.865359e-003
3.957279e+003,2.802063e-003
3.959208e+003,2.776366e-003
3.961136e+003,2.841886e-003
3.963064e+003,2.637777e-003
3.964993e+003,2.509188e-003
3.966921e+003,2.655920e-003
3.968850e+003,2.857409e-003
3.970779e+003,2.933778e-003
3.972707e+003,2.921265e-003
3.974635e+003,2.913460e-003
3.976564e+003,2.886191e-003
3.978492e+003,2.790369e-003
3.980421e+003,2.749357e-003
3.982349e+003,2.750237e-003
3.984278e+003,2.760459e-003
3.986207e+003,2.641905e-003
3.988135e+003,2.513759e-003
3.990063e+003,2.613325e-003
3.991992e+003,2.673808e-003
3.993920e+003,2.683595e-003
3.995849e+003,2.589416e-003
3.997777e+003,2.517957e-003
3.999706e+003,2.423879e-003
4.001635e+003,0.000000e+000
