3.991992e+002,0.000000e+000
4.011277e+002,0.000000e+000
4.030562e+002,0.000000e+000
4.049846e+002,0.000000e+000
4.069131e+002,0.000000e+000
4.088416e+002,0.000000e+000
4.107701e+002,0.000000e+000
4.126986e+002,0.000000e+000
4.146271e+002,0.000000e+000
4.165556e+002,0.000000e+000
4.184841e+002,0.000000e+000
4.204126e+002,0.000000e+000
4.223411e+002,0.000000e+000
4.242697e+002,0.000000e+000
4.261982e+002,0.000000e+000
4.281266e+002,0.000000e+000
4.300551e+002,0.000000e+000
4.319836e+002,0.000000e+000
4.339121e+002,0.000000e+000
4.358406e+002,0.000000e+000
4.377691e+002,0.000000e+000
4.396976e+002,0.000000e+000
4.416261e+002,0.000000e+000
4.435546e+002,0.000000e+000
4.454831e+002,0.000000e+000
4.474116e+002,0.000000e+000
4.493401e+002,0.000000e+000
4.512686e+002,0.000000e+000
4.531971e+002,0.000000e+000
4.551256e+002,0.000000e+000
4.570541e+002,0.000000e+000
4.589826e+002,0.000000e+000
4.609111e+002,0.000000e+000
4.628396e+002,0.000000e+000
4.647681e+002,0.000000e+000
4.666966e+002,0.000000e+000
4.686251e+002,0.000000e+000
4.705536e+002,0.000000e+000
4.724821e+002,0.000000e+000
4.744106e+002,0.000000e+000
4.763391e+002,0.000000e+000
4.782676e+002,0.000000e+000
4.801961e+002,0.000000e+000
4.821246e+002,0.000000e+000
4.840531e+002,0.000000e+000
4.859816e+002,0.000000e+000
4.879101e+002,0.000000e+000
4.898386e+002,0.000000e+000
4.917671e+002,0.000000e+000
4.936956e+002,0.000000e+000
4.956241e+002,0.000000e+000
4.975526e+002,0.000000e+000
4.994811e+002,0.000000e+000
5.014096e+002,0.000000e+000
5.033381e+002,0.000000e+000
5.052666e+002,0.000000e+000
5.071951e+002,0.000000e+000
5.091236e+002,0.000000e+000
5.110521e+002,0.000000e+000
5.129806e+002,0.000000e+000
5.149091e+002,0.000000e+000
5.168376e+002,0.000000e+000
5.187661e+002,0.000000e+000
5.206946e+002,0.000000e+000
5.226230e+002,0.000000e+000
5.245516e+002,-5.539441e-004
5.264800e+002,-5.028583e-004
5.284086e+002,-5.242322e-004
5.303370e+002,-6.168736e-004
5.322656e+002,-5.644532e-004
5.341940e+002,-4.357044e-004
5.361226e+002,-3.857724e-004
5.380510e+002,-3.960226e-004
5.399796e+002,-5.117143e-004
5.419081e+002,-5.242154e-004
5.438365e+002,-4.647821e-004
5.457650e+002,-4.171403e-004
5.476935e+002,-3.408110e-004
5.496221e+002,-3.497060e-004
5.515505e+002,-2.581812e-004
5.534790e+002,-1.226943e-004
5.554075e+002,-1.961086e-004
5.573361e+002,-4.020408e-004
5.592645e+002,-4.488779e-004
5.611931e+002,-4.510619e-004
5.631215e+002,-3.846018e-004
5.650500e+002,-3.683753e-004
5.669785e+002,-4.415559e-004
5.689070e+002,-3.999677e-004
5.708355e+002,-3.174962e-004
5.727640e+002,-3.322344e-004
5.746925e+002,-2.760077e-004
5.766210e+002,-2.366956e-004
5.785495e+002,-2.916278e-004
5.804780e+002,-4.235180e-004
5.824065e+002,-3.845422e-004
5.843350e+002,-2.292404e-004
5.862635e+002,-6.685033e-005
5.881920e+002,-1.552608e-004
5.901205e+002,-2.775146e-004
5.920490e+002,-2.943808e-004
5.939775e+002,-2.723783e-004
5.959060e+002,-2.596872e-004
5.978345e+002,-8.140132e-005
5.997630e+002,3.638864e-005
6.016915e+002,1.252145e-004
6.036200e+002,1.421086e-004
6.055485e+002,2.095047e-004
6.074770e+002,2.882257e-004
6.094055e+002,3.111195e-004
6.113340e+002,3.094589e-004
6.132625e+002,2.567191e-004
6.151910e+002,1.631668e-004
6.171195e+002,1.343358e-004
6.190480e+002,2.395324e-004
6.209765e+002,4.231036e-004
6.229050e+002,4.444886e-004
6.248335e+002,5.306117e-004
6.267620e+002,5.766600e-004
6.286905e+002,5.900441e-004
6.306190e+002,5.751634e-004
6.325475e+002,6.090784e-004
6.344760e+002,6.739320e-004
6.364045e+002,8.543981e-004
6.383330e+002,8.916128e-004
6.402615e+002,9.104284e-004
6.421899e+002,9.205099e-004
6.441185e+002,9.599086e-004
6.460470e+002,9.928513e-004
6.479755e+002,1.056219e-003
6.499039e+002,9.904066e-004
6.518325e+002,9.755306e-004
6.537610e+002,1.042807e-003
6.556895e+002,1.199629e-003
6.576179e+002,1.283149e-003
6.595464e+002,1.382044e-003
6.614750e+002,1.353948e-003
6.634034e+002,1.358476e-003
6.653319e+002,1.322811e-003
6.672604e+002,1.328323e-003
6.691890e+002,1.421352e-003
6.711174e+002,1.590859e-003
6.730460e+002,1.785598e-003
6.749745e+002,1.985623e-003
6.769030e+002,2.045074e-003
6.788314e+002,2.216848e-003
6.807599e+002,2.398446e-003
6.826885e+002,2.640361e-003
6.846169e+002,2.726483e-003
6.865454e+002,2.885052e-003
6.884739e+002,3.036193e-003
6.904025e+002,3.388301e-003
6.923309e+002,3.675141e-003
6.942594e+002,4.035564e-003
6.961879e+002,4.448013e-003
6.981165e+002,5.036450e-003
7.000449e+002,5.697662e-003
7.019734e+002,6.685252e-003
7.039019e+002,8.000686e-003
7.058304e+002,9.788372e-003
7.077589e+002,1.211679e-002
7.096874e+002,1.580599e-002
7.116159e+002,2.197794e-002
7.135444e+002,3.417533e-002
7.154729e+002,5.605899e-002
7.174014e+002,8.513561e-002
7.193299e+002,9.184867e-002
7.212584e+002,5.991343e-002
7.231869e+002,3.462970e-002
7.251154e+002,2.866594e-002
7.270439e+002,3.642350e-002
7.289724e+002,5.782758e-002
7.309009e+002,6.237771e-002
7.328294e+002,3.490687e-002
7.347579e+002,1.415268e-002
7.366864e+002,7.274214e-003
7.386149e+002,4.820956e-003
7.405434e+002,3.557391e-003
7.424719e+002,2.977863e-003
7.444004e+002,2.536021e-003
7.463289e+002,2.305336e-003
7.482574e+002,2.019298e-003
7.501859e+002,1.877191e-003
7.521144e+002,1.714934e-003
7.540428e+002,1.603956e-003
7.559714e+002,1.431677e-003
7.578999e+002,1.386180e-003
7.598284e+002,1.299827e-003
7.617568e+002,1.260527e-003
7.636854e+002,1.282789e-003
7.656139e+002,1.311383e-003
7.675424e+002,1.256455e-003
7.694709e+002,1.265263e-003
7.713994e+002,1.254614e-003
7.733279e+002,1.196712e-003
7.752563e+002,1.085756e-003
7.771849e+002,1.019972e-003
7.791134e+002,1.058217e-003
7.810419e+002,1.094001e-003
7.829703e+002,1.043416e-003
7.848989e+002,1.091419e-003
7.868274e+002,1.148709e-003
7.887559e+002,1.180326e-003
7.906843e+002,1.191945e-003
7.926129e+002,1.266710e-003
7.945414e+002,1.309193e-003
7.964698e+002,1.346483e-003
7.983983e+002,1.378784e-003
8.003268e+002,1.420136e-003
8.022554e+002,1.452722e-003
8.041838e+002,1.474582e-003
8.061123e+002,1.340688e-003
8.080408e+002,1.302345e-003
8.099694e+002,1.311569e-003
8.118978e+002,1.363150e-003
8.138263e+002,1.386502e-003
8.157548e+002,1.343023e-003
8.176833e+002,1.265117e-003
8.196118e+002,1.252670e-003
8.215403e+002,1.218564e-003
8.234689e+002,1.174998e-003
8.253973e+002,1.202242e-003
8.273258e+002,1.248248e-003
8.292543e+002,1.222705e-003
8.311829e+002,1.221842e-003
8.331113e+002,1.193451e-003
8.350398e+002,1.253183e-003
8.369683e+002,1.286815e-003
8.388969e+002,1.296035e-003
8.408253e+002,1.288397e-003
8.427538e+002,1.256921e-003
8.446823e+002,1.283850e-003
8.466108e+002,1.327685e-003
8.485393e+002,1.345309e-003
8.504678e+002,1.400701e-003
8.523963e+002,1.424761e-003
8.543248e+002,1.422858e-003
8.562533e+002,1.419459e-003
8.581818e+002,1.398300e-003
8.601103e+002,1.402772e-003
8.620388e+002,1.391332e-003
8.639673e+002,1.383536e-003
8.658958e+002,1.433779e-003
8.678243e+002,1.493569e-003
8.697528e+002,1.533379e-003
8.716813e+002,1.546047e-003
8.736098e+002,1.533093e-003
8.755383e+002,1.531263e-003
8.774668e+002,1.567942e-003
8.793953e+002,1.588442e-003
8.813238e+002,1.645193e-003
8.832523e+002,1.785155e-003
8.851808e+002,1.914914e-003
8.871093e+002,1.946147e-003
8.890378e+002,1.952557e-003
8.909663e+002,1.919635e-003
8.928948e+002,1.878083e-003
8.948232e+002,1.984454e-003
8.967518e+002,2.077402e-003
8.986803e+002,2.191555e-003
9.006088e+002,2.426849e-003
9.025372e+002,2.764348e-003
9.044658e+002,3.340689e-003
9.063943e+002,4.168317e-003
9.083228e+002,4.628101e-003
9.102512e+002,4.147919e-003
9.121797e+002,3.318086e-003
9.141083e+002,2.678270e-003
9.160367e+002,2.305157e-003
9.179653e+002,2.154361e-003
9.198937e+002,2.081620e-003
9.218223e+002,2.046751e-003
9.237507e+002,2.001174e-003
9.256793e+002,1.970958e-003
9.276077e+002,1.973998e-003
9.295363e+002,2.028426e-003
9.314647e+002,2.054555e-003
9.333932e+002,2.068276e-003
9.353217e+002,2.127863e-003
9.372502e+002,2.137257e-003
9.391787e+002,2.111545e-003
9.411072e+002,2.151294e-003
9.430358e+002,2.115197e-003
9.449642e+002,2.154486e-003
9.468928e+002,2.253432e-003
9.488212e+002,2.293281e-003
9.507498e+002,2.272213e-003
9.526782e+002,2.280332e-003
9.546068e+002,2.350438e-003
9.565352e+002,2.435610e-003
9.584637e+002,2.472334e-003
9.603922e+002,2.526673e-003
9.623207e+002,2.609763e-003
9.642492e+002,2.709670e-003
9.661777e+002,2.766160e-003
9.681062e+002,2.789870e-003
9.700347e+002,2.765736e-003
9.719632e+002,2.787989e-003
9.738917e+002,2.752734e-003
9.758202e+002,2.670061e-003
9.777487e+002,2.670068e-003
9.796772e+002,2.735380e-003
9.816057e+002,2.776347e-003
9.835342e+002,2.913930e-003
9.854627e+002,3.153421e-003
9.873912e+002,3.401497e-003
9.893197e+002,3.559412e-003
9.912482e+002,3.601160e-003
9.931767e+002,3.517447e-003
9.951052e+002,3.389526e-003
9.970337e+002,3.296684e-003
9.989622e+002,3.259104e-003
1.000891e+003,3.197867e-003
1.002819e+003,3.145952e-003
1.004748e+003,3.171511e-003
1.006676e+003,3.257096e-003
1.008605e+003,3.347954e-003
1.010533e+003,3.419114e-003
1.012462e+003,3.530717e-003
1.014390e+003,3.654318e-003
1.016319e+003,3.728617e-003
1.018247e+003,3.826505e-003
1.020176e+003,3.900871e-003
1.022104e+003,3.883457e-003
1.024033e+003,3.873874e-003
1.025961e+003,3.876867e-003
1.027890e+003,3.884086e-003
1.029818e+003,3.906643e-003
1.031747e+003,3.929021e-003
1.033675e+003,3.969407e-003
1.035604e+003,3.968686e-003
1.037532e+003,4.018303e-003
1.039461e+003,4.077826e-003
1.041389e+003,4.169725e-003
1.043318e+003,4.189089e-003
1.045246e+003,4.231980e-003
1.047175e+003,4.342388e-003
1.049103e+003,4.564710e-003
1.051032e+003,4.702834e-003
1.052960e+003,4.573487e-003
1.054889e+003,4.447117e-003
1.056817e+003,4.462993e-003
1.058746e+003,4.555503e-003
1.060674e+003,4.681665e-003
1.062603e+003,4.738878e-003
1.064531e+003,4.789911e-003
1.066460e+003,4.803518e-003
1.068388e+003,4.837250e-003
1.070317e+003,4.928790e-003
1.072245e+003,5.095685e-003
1.074174e+003,5.253959e-003
1.076102e+003,5.424602e-003
1.078031e+003,5.574258e-003
1.079959e+003,5.740995e-003
1.081888e+003,5.822318e-003
1.083816e+003,5.834617e-003
1.085745e+003,5.793937e-003
1.087673e+003,5.764708e-003
1.089602e+003,5.786648e-003
1.091530e+003,5.863111e-003
1.093459e+003,5.865838e-003
1.095387e+003,5.857440e-003
1.097316e+003,5.864490e-003
1.099244e+003,5.812421e-003
1.101173e+003,5.726714e-003
1.103101e+003,5.724018e-003
1.105030e+003,5.709395e-003
1.106958e+003,5.696647e-003
1.108887e+003,5.651608e-003
1.110815e+003,5.655663e-003
1.112744e+003,5.651727e-003
1.114672e+003,5.672568e-003
1.116601e+003,5.667765e-003
1.118529e+003,5.661637e-003
1.120458e+003,5.596925e-003
1.122386e+003,5.487552e-003
1.124315e+003,5.372524e-003
1.126243e+003,5.360641e-003
1.128172e+003,5.392738e-003
1.130100e+003,5.419694e-003
1.132029e+003,5.438088e-003
1.133957e+003,5.551280e-003
1.135885e+003,5.668178e-003
1.137814e+003,5.797252e-003
1.139743e+003,5.929537e-003
1.141671e+003,6.072164e-003
1.143600e+003,6.225344e-003
1.145528e+003,6.384719e-003
1.147457e+003,6.565465e-003
1.149385e+003,6.826932e-003
1.151314e+003,7.132439e-003
1.153242e+003,7.444341e-003
1.155171e+003,7.680140e-003
1.157099e+003,7.904692e-003
1.159028e+003,8.021431e-003
1.160956e+003,8.055868e-003
1.162885e+003,8.035131e-003
1.164813e+003,7.945729e-003
1.166742e+003,7.744173e-003
1.168670e+003,7.485719e-003
1.170599e+003,7.181594e-003
1.172527e+003,6.987991e-003
1.174456e+003,6.948631e-003
1.176384e+003,6.836517e-003
1.178313e+003,6.445998e-003
1.180241e+003,6.128248e-003
1.182170e+003,5.961463e-003
1.184098e+003,5.902002e-003
1.186027e+003,5.845344e-003
1.187955e+003,5.812487e-003
1.189884e+003,5.783677e-003
1.191812e+003,5.774518e-003
1.193740e+003,5.748097e-003
1.195669e+003,5.763862e-003
1.197598e+003,5.807975e-003
1.199526e+003,5.893655e-003
1.201455e+003,5.981309e-003
1.203383e+003,6.131802e-003
1.205312e+003,6.294945e-003
1.207240e+003,6.469384e-003
1.209168e+003,6.621169e-003
1.211097e+003,6.746344e-003
1.213026e+003,6.835932e-003
1.214954e+003,6.962381e-003
1.216883e+003,7.062489e-003
1.218811e+003,7.200988e-003
1.220740e+003,7.312533e-003
1.222668e+003,7.393019e-003
1.224596e+003,7.486809e-003
1.226525e+003,7.641971e-003
1.228453e+003,7.767603e-003
1.230382e+003,7.869639e-003
1.232311e+003,7.949723e-003
1.234239e+003,8.033512e-003
1.236167e+003,8.050319e-003
1.238096e+003,8.086286e-003
1.240025e+003,8.090885e-003
1.241953e+003,8.056458e-003
1.243882e+003,7.933484e-003
1.245810e+003,7.783299e-003
1.247739e+003,7.550031e-003
1.249667e+003,7.311735e-003
1.251595e+003,7.083965e-003
1.253524e+003,6.922051e-003
1.255453e+003,6.776890e-003
1.257381e+003,6.655494e-003
1.259310e+003,6.485665e-003
1.261238e+003,6.330360e-003
1.263167e+003,6.137792e-003
1.265095e+003,5.980421e-003
1.267023e+003,5.862381e-003
1.268952e+003,5.825251e-003
1.270880e+003,5.747894e-003
1.272809e+003,5.730163e-003
1.274738e+003,5.717199e-003
1.276666e+003,5.719695e-003
1.278594e+003,5.715840e-003
1.280523e+003,5.743658e-003
1.282451e+003,5.759574e-003
1.284380e+003,5.859297e-003
1.286308e+003,5.941555e-003
1.288237e+003,6.069727e-003
1.290166e+003,6.165367e-003
1.292094e+003,6.303435e-003
1.294022e+003,6.456681e-003
1.295951e+003,6.662298e-003
1.297879e+003,6.769206e-003
1.299808e+003,6.873872e-003
1.301736e+003,6.923249e-003
1.303665e+003,6.952412e-003
1.305594e+003,6.912144e-003
1.307522e+003,6.851522e-003
1.309450e+003,6.706929e-003
1.311379e+003,6.580619e-003
1.313307e+003,6.371493e-003
1.315236e+003,6.175160e-003
1.317164e+003,5.944951e-003
1.319093e+003,5.791370e-003
1.321021e+003,5.638754e-003
1.322950e+003,5.495552e-003
1.324878e+003,5.312523e-003
1.326807e+003,5.261131e-003
1.328735e+003,5.216449e-003
1.330664e+003,5.239438e-003
1.332592e+003,5.328115e-003
1.334521e+003,5.524857e-003
1.336449e+003,5.801355e-003
1.338378e+003,6.268630e-003
1.340306e+003,6.595269e-003
1.342235e+003,6.754026e-003
1.344163e+003,6.930837e-003
1.346092e+003,7.259024e-003
1.348021e+003,7.631646e-003
1.349949e+003,8.005358e-003
1.351877e+003,8.174818e-003
1.353806e+003,8.219615e-003
1.355734e+003,8.116813e-003
1.357663e+003,8.111248e-003
1.359591e+003,8.241743e-003
1.361520e+003,8.660994e-003
1.363448e+003,9.182548e-003
1.365377e+003,9.574756e-003
1.367305e+003,9.823360e-003
1.369234e+003,9.757407e-003
1.371162e+003,9.210248e-003
1.373091e+003,8.731328e-003
1.375019e+003,8.359054e-003
1.376948e+003,8.004233e-003
1.378876e+003,7.254973e-003
1.380805e+003,6.393170e-003
1.382733e+003,5.792201e-003
1.384662e+003,5.583251e-003
1.386590e+003,5.486013e-003
1.388519e+003,5.417544e-003
1.390447e+003,5.218720e-003
1.392376e+003,5.237535e-003
1.394304e+003,5.266495e-003
1.396233e+003,5.461093e-003
1.398161e+003,5.471805e-003
1.400090e+003,5.581368e-003
1.402018e+003,5.461432e-003
1.403947e+003,5.608689e-003
1.405875e+003,5.699968e-003
1.407804e+003,5.809311e-003
1.409732e+003,5.898163e-003
1.411661e+003,6.134244e-003
1.413589e+003,6.247599e-003
1.415518e+003,6.542746e-003
1.417446e+003,6.739380e-003
1.419375e+003,7.233974e-003
1.421303e+003,7.367797e-003
1.423232e+003,7.898258e-003
1.425160e+003,8.610692e-003
1.427089e+003,9.521859e-003
1.429017e+003,1.073258e-002
1.430946e+003,1.242113e-002
1.432874e+003,1.371332e-002
1.434803e+003,1.497600e-002
1.436731e+003,1.640647e-002
1.438660e+003,1.754339e-002
1.440588e+003,1.805957e-002
1.442517e+003,1.898191e-002
1.444445e+003,1.965351e-002
1.446374e+003,2.076109e-002
1.448302e+003,2.243363e-002
1.450231e+003,2.495239e-002
1.452159e+003,2.868913e-002
1.454088e+003,3.385961e-002
1.456016e+003,4.018132e-002
1.457945e+003,6.365929e-002
1.459873e+003,1.054599e-001
1.461802e+003,1.335412e-001
1.463730e+003,1.150214e-001
1.465659e+003,7.821467e-002
1.467587e+003,7.550368e-002
1.469516e+003,8.674945e-002
1.471444e+003,1.173438e-001
1.473373e+003,1.124175e-001
1.475301e+003,5.734744e-002
1.477230e+003,2.206323e-002
1.479158e+003,1.239433e-002
1.481087e+003,8.668633e-003
1.483015e+003,7.177489e-003
1.484944e+003,6.043259e-003
1.486872e+003,5.954208e-003
1.488801e+003,5.443949e-003
1.490729e+003,5.475968e-003
1.492658e+003,4.736543e-003
1.494586e+003,4.696226e-003
1.496515e+003,4.319323e-003
1.498443e+003,4.504565e-003
1.500372e+003,4.187180e-003
1.502300e+003,4.149843e-003
1.504229e+003,3.754048e-003
1.506157e+003,4.120296e-003
1.508086e+003,4.227635e-003
1.510014e+003,4.204726e-003
1.511943e+003,3.755733e-003
1.513871e+003,3.828835e-003
1.515800e+003,3.783170e-003
1.517728e+003,4.081054e-003
1.519657e+003,3.853308e-003
1.521585e+003,4.301604e-003
1.523514e+003,4.030138e-003
1.525442e+003,4.150691e-003
1.527371e+003,3.937712e-003
1.529299e+003,3.859082e-003
1.531228e+003,3.702303e-003
1.533156e+003,3.956789e-003
1.535085e+003,3.994947e-003
1.537013e+003,4.058743e-003
1.538942e+003,4.050996e-003
1.540870e+003,4.661523e-003
1.542799e+003,4.365575e-003
1.544727e+003,4.262749e-003
1.546656e+003,3.876807e-003
1.548584e+003,3.878087e-003
1.550513e+003,3.905941e-003
1.552441e+003,3.810393e-003
1.554370e+003,3.679467e-003
1.556298e+003,3.667772e-003
1.558227e+003,3.314225e-003
1.560155e+003,3.923630e-003
1.562084e+003,3.573919e-003
1.564012e+003,3.452687e-003
1.565941e+003,3.341733e-003
1.567869e+003,3.461221e-003
1.569798e+003,3.546827e-003
1.571726e+003,3.445558e-003
1.573655e+003,3.243772e-003
1.575583e+003,3.421118e-003
1.577512e+003,3.500819e-003
1.579440e+003,3.455589e-003
1.581369e+003,3.386285e-003
1.583297e+003,3.406586e-003
1.585226e+003,3.374379e-003
1.587154e+003,3.390389e-003
1.589083e+003,3.313169e-003
1.591011e+003,3.324695e-003
1.592940e+003,3.281474e-003
1.594868e+003,3.363471e-003
1.596797e+003,3.266908e-003
1.598725e+003,3.250884e-003
1.600654e+003,3.226513e-003
1.602582e+003,3.256243e-003
1.604511e+003,3.247414e-003
1.606439e+003,3.312787e-003
1.608368e+003,3.344430e-003
1.610296e+003,3.390433e-003
1.612225e+003,3.358047e-003
1.614153e+003,3.443129e-003
1.616082e+003,3.611865e-003
1.618010e+003,3.825217e-003
1.619939e+003,3.649149e-003
1.621867e+003,3.657717e-003
1.623796e+003,3.795810e-003
1.625724e+003,3.904888e-003
1.627653e+003,3.999058e-003
1.629581e+003,4.147235e-003
1.631510e+003,4.097367e-003
1.633438e+003,4.160464e-003
1.635367e+003,4.418010e-003
1.637295e+003,4.958725e-003
1.639224e+003,4.955776e-003
1.641152e+003,4.942063e-003
1.643081e+003,4.730986e-003
1.645009e+003,4.708014e-003
1.646938e+003,4.943224e-003
1.648866e+003,4.858585e-003
1.650795e+003,4.379032e-003
1.652723e+003,4.470883e-003
1.654652e+003,4.733676e-003
1.656580e+003,4.451256e-003
1.658509e+003,4.199103e-003
1.660437e+003,4.177596e-003
1.662366e+003,4.201898e-003
1.664294e+003,4.134756e-003
1.666223e+003,3.887173e-003
1.668151e+003,3.786361e-003
1.670080e+003,3.654735e-003
1.672008e+003,3.602333e-003
1.673937e+003,3.342746e-003
1.675865e+003,3.413191e-003
1.677794e+003,3.317956e-003
1.679722e+003,3.362719e-003
1.681651e+003,3.213748e-003
1.683579e+003,3.228921e-003
1.685508e+003,3.183244e-003
1.687436e+003,3.006320e-003
1.689365e+003,2.778823e-003
1.691293e+003,2.646908e-003
1.693222e+003,2.421174e-003
1.695150e+003,2.465950e-003
1.697079e+003,2.737107e-003
1.699007e+003,2.697682e-003
1.700936e+003,2.781281e-003
1.702864e+003,2.632095e-003
1.704793e+003,2.532745e-003
1.706721e+003,2.684504e-003
1.708650e+003,2.595106e-003
1.710578e+003,2.631715e-003
1.712507e+003,2.554463e-003
1.714435e+003,2.729204e-003
1.716364e+003,2.949974e-003
1.718292e+003,3.187615e-003
1.720221e+003,2.922408e-003
1.722149e+003,2.863573e-003
1.724078e+003,2.952449e-003
1.726006e+003,3.117051e-003
1.727935e+003,3.262810e-003
1.729863e+003,3.632771e-003
1.731792e+003,3.772069e-003
1.733720e+003,4.269060e-003
1.735649e+003,4.750852e-003
1.737577e+003,4.889283e-003
1.739506e+003,5.486542e-003
1.741434e+003,6.167149e-003
1.743363e+003,6.678265e-003
1.745291e+003,7.049194e-003
1.747220e+003,7.051762e-003
1.749148e+003,6.915191e-003
1.751077e+003,6.105354e-003
1.753005e+003,5.105250e-003
1.754934e+003,4.276054e-003
1.756862e+003,3.603850e-003
1.758791e+003,2.891025e-003
1.760719e+003,2.474971e-003
1.762648e+003,2.033973e-003
1.764576e+003,1.654042e-003
1.766505e+003,1.360534e-003
1.768433e+003,1.345092e-003
1.770362e+003,1.282832e-003
1.772290e+003,1.427853e-003
1.774219e+003,1.196267e-003
1.776147e+003,9.950269e-004
1.778076e+003,8.706041e-004
1.780004e+003,9.471383e-004
1.781933e+003,8.918662e-004
1.783861e+003,8.879602e-004
1.785790e+003,8.617770e-004
1.787718e+003,7.678922e-004
1.789646e+003,6.652027e-004
1.791575e+003,7.681530e-004
1.793504e+003,7.184539e-004
1.795432e+003,7.273629e-004
1.797361e+003,6.252397e-004
1.799289e+003,5.956274e-004
1.801218e+003,6.744880e-004
1.803146e+003,6.623436e-004
1.805074e+003,4.299004e-004
1.807003e+003,4.270524e-004
1.808932e+003,4.074872e-004
1.810860e+003,4.278161e-004
1.812789e+003,3.043246e-004
1.814717e+003,6.848946e-005
1.816646e+003,-1.020804e-004
1.818574e+003,1.031794e-004
1.820502e+003,2.458971e-004
1.822431e+003,3.872421e-004
1.824360e+003,2.028309e-004
1.826288e+003,1.223944e-004
1.828217e+003,1.213141e-005
1.830145e+003,1.728535e-006
1.832073e+003,-2.462044e-004
1.834002e+003,-2.543516e-004
1.835931e+003,-2.627820e-004
1.837859e+003,-3.305227e-004
1.839788e+003,-4.463885e-004
1.841716e+003,-4.125480e-004
1.843645e+003,-6.051958e-004
1.845573e+003,-3.909804e-004
1.847501e+003,-3.530197e-004
1.849430e+003,-2.713148e-004
1.851359e+003,-4.558899e-004
1.853287e+003,-5.234703e-004
1.855216e+003,-5.986970e-004
1.857144e+003,-5.265344e-004
1.859073e+003,-6.944202e-004
1.861001e+003,-6.185360e-004
1.862929e+003,-7.493589e-004
1.864858e+003,-8.299779e-004
1.866787e+003,-9.823721e-004
1.868715e+003,-8.166861e-004
1.870644e+003,-8.170530e-004
1.872572e+003,-7.590633e-004
1.874500e+003,-8.828584e-004
1.876429e+003,-7.807519e-004
1.878357e+003,-8.290000e-004
1.880286e+003,-6.423257e-004
1.882215e+003,-7.394999e-004
1.884143e+003,-7.491689e-004
1.886072e+003,-8.205622e-004
1.888000e+003,-6.418936e-004
1.889928e+003,-6.197318e-004
1.891857e+003,-3.516525e-004
1.893785e+003,-2.495926e-004
1.895714e+003,-7.740036e-005
1.897643e+003,-3.881566e-004
1.899571e+003,-2.770126e-004
1.901500e+003,-2.674256e-004
1.903428e+003,-2.578441e-004
1.905356e+003,-2.482738e-004
1.907285e+003,-2.387147e-004
1.909213e+003,-2.291631e-004
1.911142e+003,-2.196170e-004
1.913071e+003,-2.100840e-004
1.914999e+003,-2.005603e-004
1.916927e+003,-1.910422e-004
1.918856e+003,-1.815315e-004
1.920784e+003,-1.720339e-004
1.922713e+003,-1.625437e-004
1.924641e+003,-1.530647e-004
1.926570e+003,-1.435895e-004
1.928499e+003,-1.341291e-004
1.930427e+003,-1.246743e-004
1.932355e+003,-1.152307e-004
1.934284e+003,-1.057908e-004
1.936212e+003,-9.636208e-005
1.938141e+003,-8.694455e-005
1.940070e+003,-7.753260e-005
1.941998e+003,-6.813183e-005
1.943927e+003,-5.874224e-005
1.945855e+003,-4.935637e-005
1.947783e+003,-3.998168e-005
1.949712e+003,-3.061630e-005
1.951640e+003,-2.125837e-005
1.953569e+003,-1.191162e-005
1.955498e+003,-2.572313e-006
1.957426e+003,6.757677e-006
1.959354e+003,1.607835e-005
1.961283e+003,2.538785e-005
1.963211e+003,3.469363e-005
1.965140e+003,4.399195e-005
1.967068e+003,5.327724e-005
1.968997e+003,6.255321e-005
1.970926e+003,7.182173e-005
1.972854e+003,8.107908e-005
1.974782e+003,9.033084e-005
1.976711e+003,9.957142e-005
1.978639e+003,1.088064e-004
1.980568e+003,1.180284e-004
1.982496e+003,1.272429e-004
1.984425e+003,1.364499e-004
1.986354e+003,1.456458e-004
1.988282e+003,1.548342e-004
1.990210e+003,1.640134e-004
1.992139e+003,1.731850e-004
1.994067e+003,1.823474e-004
1.995996e+003,1.914967e-004
1.997924e+003,2.006404e-004
1.999853e+003,2.097767e-004
2.001781e+003,2.189018e-004
2.003710e+003,2.280194e-004
2.005638e+003,2.371278e-004
2.007567e+003,2.462287e-004
2.009495e+003,2.553184e-004
2.011424e+003,2.643969e-004
2.013352e+003,2.734736e-004
2.015281e+003,2.825353e-004
2.017209e+003,2.915896e-004
2.019138e+003,3.006347e-004
2.021066e+003,3.096741e-004
2.022995e+003,3.187004e-004
2.024923e+003,3.277212e-004
2.026852e+003,3.367290e-004
2.028781e+003,3.457349e-004
2.030709e+003,3.547259e-004
2.032637e+003,3.637075e-004
2.034566e+003,3.726818e-004
2.036494e+003,3.816523e-004
2.038423e+003,3.906079e-004
2.040351e+003,3.995560e-004
2.042280e+003,4.084967e-004
2.044208e+003,4.174262e-004
2.046137e+003,4.263464e-004
2.048065e+003,4.352592e-004
2.049994e+003,4.441608e-004
2.051922e+003,4.530586e-004
2.053851e+003,4.619490e-004
2.055779e+003,4.708245e-004
2.057708e+003,4.796926e-004
2.059636e+003,4.885513e-004
2.061565e+003,4.974008e-004
2.063493e+003,5.062409e-004
2.065422e+003,5.150754e-004
2.067350e+003,5.238988e-004
2.069279e+003,5.327165e-004
2.071207e+003,5.415212e-004
2.073136e+003,5.503204e-004
2.075064e+003,5.591065e-004
2.076993e+003,5.678870e-004
2.078921e+003,5.766563e-004
2.080850e+003,5.854145e-004
2.082778e+003,5.941689e-004
2.084707e+003,6.029196e-004
2.086635e+003,6.116536e-004
2.088564e+003,6.203763e-004
2.090492e+003,6.290954e-004
2.092421e+003,6.378014e-004
2.094349e+003,6.464999e-004
2.096278e+003,6.551929e-004
2.098206e+003,6.638803e-004
2.100135e+003,6.725509e-004
2.102063e+003,6.812122e-004
2.103992e+003,6.898679e-004
2.105920e+003,6.985124e-004
2.107849e+003,7.071514e-004
2.109777e+003,7.157773e-004
2.111706e+003,7.243976e-004
2.113634e+003,7.330123e-004
2.115563e+003,7.416159e-004
2.117491e+003,7.502101e-004
2.119420e+003,7.587895e-004
2.121348e+003,7.673651e-004
2.123277e+003,7.759333e-004
2.125205e+003,7.844903e-004
2.127134e+003,7.930361e-004
2.129062e+003,8.015819e-004
2.130991e+003,8.101091e-004
2.132919e+003,8.186325e-004
2.134848e+003,8.271448e-004
2.136776e+003,8.356422e-004
2.138705e+003,8.441433e-004
2.140633e+003,8.526258e-004
2.142562e+003,8.611083e-004
2.144490e+003,8.695796e-004
2.146419e+003,8.780397e-004
2.148347e+003,8.864850e-004
2.150276e+003,8.949302e-004
2.152204e+003,9.033605e-004
2.154133e+003,9.117872e-004
2.156061e+003,9.202063e-004
2.157990e+003,9.286143e-004
2.159918e+003,9.370074e-004
2.161847e+003,9.453967e-004
2.163775e+003,9.537749e-004
2.165704e+003,9.621456e-004
2.167632e+003,9.705015e-004
2.169561e+003,9.788573e-004
2.171489e+003,9.872019e-004
2.173418e+003,9.955429e-004
2.175346e+003,1.003869e-003
2.177275e+003,1.012184e-003
2.179203e+003,1.020499e-003
2.181132e+003,1.028795e-003
2.183060e+003,1.037084e-003
2.184989e+003,1.045369e-003
2.186917e+003,1.053642e-003
2.188846e+003,1.061909e-003
2.190774e+003,1.070160e-003
2.192703e+003,1.078404e-003
2.194631e+003,1.086645e-003
2.196560e+003,1.094870e-003
2.198488e+003,1.103092e-003
2.200417e+003,1.111306e-003
2.202345e+003,1.119509e-003
2.204274e+003,1.127701e-003
2.206202e+003,1.135886e-003
2.208131e+003,1.144066e-003
2.210059e+003,1.152229e-003
2.211988e+003,1.160383e-003
2.213916e+003,1.168534e-003
2.215845e+003,1.176674e-003
2.217773e+003,1.184806e-003
2.219702e+003,1.192927e-003
2.221630e+003,1.201045e-003
2.223559e+003,1.209147e-003
2.225487e+003,1.217246e-003
2.227416e+003,1.225326e-003
2.229344e+003,1.233406e-003
2.231273e+003,1.241479e-003
2.233201e+003,1.249541e-003
2.235130e+003,1.257591e-003
2.237058e+003,1.265630e-003
2.238987e+003,1.273662e-003
2.240915e+003,1.281686e-003
2.242844e+003,1.289699e-003
2.244772e+003,1.297712e-003
2.246701e+003,1.305711e-003
2.248629e+003,1.313701e-003
2.250558e+003,1.321681e-003
2.252486e+003,1.329653e-003
2.254415e+003,1.337614e-003
2.256343e+003,1.345564e-003
2.258272e+003,1.353510e-003
2.260200e+003,1.361441e-003
2.262129e+003,1.369376e-003
2.264057e+003,1.377296e-003
2.265986e+003,1.385201e-003
2.267914e+003,1.393102e-003
2.269843e+003,1.400989e-003
2.271771e+003,1.408871e-003
2.273700e+003,1.416747e-003
2.275628e+003,1.424614e-003
2.277557e+003,1.432475e-003
2.279485e+003,1.440316e-003
2.281414e+003,1.448154e-003
2.283342e+003,1.455981e-003
2.285271e+003,1.463801e-003
2.287199e+003,1.471616e-003
2.289128e+003,1.479417e-003
2.291056e+003,1.487210e-003
2.292985e+003,1.495000e-003
2.294913e+003,1.502771e-003
2.296842e+003,1.510538e-003
2.298770e+003,1.518298e-003
2.300699e+003,1.526047e-003
2.302627e+003,1.533791e-003
2.304556e+003,1.541521e-003
2.306484e+003,1.549248e-003
2.308413e+003,1.556955e-003
2.310341e+003,1.564663e-003
2.312270e+003,1.572356e-003
2.314198e+003,1.580045e-003
2.316127e+003,1.587719e-003
2.318055e+003,1.595385e-003
2.319984e+003,1.603052e-003
2.321912e+003,1.610707e-003
2.323841e+003,1.618352e-003
2.325769e+003,1.625981e-003
2.327698e+003,1.633607e-003
2.329626e+003,1.641221e-003
2.331555e+003,1.648828e-003
2.333483e+003,1.656428e-003
2.335412e+003,1.664020e-003
2.337340e+003,1.671594e-003
2.339269e+003,1.679171e-003
2.341197e+003,1.686729e-003
2.343126e+003,1.694284e-003
2.345054e+003,1.701828e-003
2.346983e+003,1.709368e-003
2.348911e+003,1.716897e-003
2.350840e+003,1.724411e-003
2.352768e+003,1.731928e-003
2.354697e+003,1.739424e-003
2.356625e+003,1.746908e-003
2.358554e+003,1.754396e-003
2.360482e+003,1.761865e-003
2.362411e+003,1.769330e-003
2.364339e+003,1.776796e-003
2.366268e+003,1.784239e-003
2.368196e+003,1.791682e-003
2.370125e+003,1.799107e-003
2.372053e+003,1.806527e-003
2.373982e+003,1.813937e-003
2.375910e+003,1.821343e-003
2.377839e+003,1.828738e-003
2.379767e+003,1.836125e-003
2.381696e+003,1.843497e-003
2.383624e+003,1.850866e-003
2.385553e+003,1.858220e-003
2.387481e+003,1.865577e-003
2.389410e+003,1.872912e-003
2.391338e+003,1.880247e-003
2.393267e+003,1.887575e-003
2.395195e+003,1.894888e-003
2.397124e+003,1.902193e-003
2.399052e+003,1.909487e-003
2.400981e+003,1.772299e-003
2.402909e+003,1.620799e-003
2.404838e+003,1.628067e-003
2.406766e+003,1.843084e-003
2.408695e+003,2.195988e-003
2.410623e+003,2.284203e-003
2.412552e+003,2.274662e-003
2.414480e+003,2.278116e-003
2.416409e+003,2.285976e-003
2.418337e+003,2.238002e-003
2.420266e+003,2.221461e-003
2.422194e+003,2.069350e-003
2.424123e+003,2.103660e-003
2.426051e+003,2.205346e-003
2.427979e+003,2.282597e-003
2.429908e+003,2.142012e-003
2.431837e+003,2.064269e-003
2.433765e+003,2.037395e-003
2.435694e+003,2.186392e-003
2.437622e+003,2.232645e-003
2.439551e+003,2.227917e-003
2.441479e+003,2.177048e-003
2.443407e+003,2.350450e-003
2.445336e+003,2.579924e-003
2.447265e+003,2.581302e-003
2.449193e+003,2.486061e-003
2.451122e+003,2.591271e-003
2.453050e+003,2.690926e-003
2.454979e+003,2.769038e-003
2.456907e+003,2.707273e-003
2.458836e+003,2.530411e-003
2.460764e+003,2.326153e-003
2.462693e+003,2.376486e-003
2.464621e+003,2.423931e-003
2.466550e+003,2.434757e-003
2.468478e+003,2.607740e-003
2.470406e+003,2.817865e-003
2.472335e+003,2.801623e-003
2.474264e+003,2.873447e-003
2.476192e+003,2.883673e-003
2.478121e+003,2.885893e-003
2.480049e+003,2.820086e-003
2.481978e+003,3.020246e-003
2.483906e+003,3.232103e-003
2.485835e+003,3.137041e-003
2.487763e+003,2.992835e-003
2.489692e+003,2.922252e-003
2.491620e+003,2.962213e-003
2.493549e+003,3.166370e-003
2.495477e+003,3.148306e-003
2.497406e+003,3.173050e-003
2.499334e+003,3.143683e-003
2.501263e+003,3.213163e-003
2.503191e+003,3.296152e-003
2.505120e+003,3.205281e-003
2.507048e+003,3.331136e-003
2.508977e+003,3.402047e-003
2.510905e+003,3.202666e-003
2.512833e+003,3.161084e-003
2.514762e+003,3.377419e-003
2.516691e+003,3.618877e-003
2.518619e+003,3.805470e-003
2.520548e+003,3.982481e-003
2.522476e+003,3.963284e-003
2.524405e+003,3.956724e-003
2.526333e+003,4.084796e-003
2.528261e+003,4.239585e-003
2.530190e+003,4.200272e-003
2.532119e+003,4.191481e-003
2.534047e+003,4.105929e-003
2.535976e+003,4.073635e-003
2.537904e+003,4.117429e-003
2.539833e+003,4.279524e-003
2.541761e+003,4.431039e-003
2.543689e+003,4.518349e-003
2.545618e+003,4.728906e-003
2.547547e+003,4.875775e-003
2.549475e+003,4.906379e-003
2.551404e+003,4.897121e-003
2.553332e+003,5.041704e-003
2.555260e+003,5.135477e-003
2.557189e+003,5.057208e-003
2.559117e+003,5.082808e-003
2.561046e+003,5.263485e-003
2.562975e+003,5.581137e-003
2.564903e+003,5.704626e-003
2.566832e+003,5.744807e-003
2.568760e+003,5.831957e-003
2.570688e+003,5.879540e-003
2.572617e+003,5.859621e-003
2.574546e+003,5.953591e-003
2.576474e+003,6.110195e-003
2.578403e+003,6.387491e-003
2.580331e+003,6.586421e-003
2.582260e+003,6.826106e-003
2.584188e+003,7.013679e-003
2.586116e+003,7.084485e-003
2.588045e+003,7.257003e-003
2.589974e+003,7.585041e-003
2.591902e+003,7.766910e-003
2.593831e+003,7.820744e-003
2.595759e+003,7.946603e-003
2.597688e+003,8.202083e-003
2.599616e+003,8.446395e-003
2.601544e+003,8.725621e-003
2.603473e+003,8.917145e-003
2.605402e+003,9.030554e-003
2.607330e+003,9.244055e-003
2.609259e+003,9.435516e-003
2.611187e+003,9.631079e-003
2.613115e+003,1.005773e-002
2.615044e+003,1.044218e-002
2.616972e+003,1.071790e-002
2.618901e+003,1.095601e-002
2.620830e+003,1.132262e-002
2.622758e+003,1.171647e-002
2.624687e+003,1.203672e-002
2.626615e+003,1.238218e-002
2.628543e+003,1.278098e-002
2.630472e+003,1.321251e-002
2.632400e+003,1.354206e-002
2.634329e+003,1.374137e-002
2.636258e+003,1.382517e-002
2.638186e+003,1.378833e-002
2.640115e+003,1.373411e-002
2.642043e+003,1.370876e-002
2.643971e+003,1.370681e-002
2.645900e+003,1.377077e-002
2.647828e+003,1.392364e-002
2.649757e+003,1.407370e-002
2.651686e+003,1.423814e-002
2.653614e+003,1.435226e-002
2.655542e+003,1.444698e-002
2.657471e+003,1.451590e-002
2.659399e+003,1.452776e-002
2.661328e+003,1.439511e-002
2.663256e+003,1.413907e-002
2.665185e+003,1.390599e-002
2.667114e+003,1.372460e-002
2.669042e+003,1.355990e-002
2.670970e+003,1.334225e-002
2.672899e+003,1.319717e-002
2.674827e+003,1.311215e-002
2.676756e+003,1.299443e-002
2.678685e+003,1.294981e-002
2.680613e+003,1.293353e-002
2.682542e+003,1.295710e-002
2.684470e+003,1.299641e-002
2.686398e+003,1.302039e-002
2.688327e+003,1.301278e-002
2.690255e+003,1.304042e-002
2.692184e+003,1.304016e-002
2.694113e+003,1.306790e-002
2.696041e+003,1.313614e-002
2.697969e+003,1.329117e-002
2.699898e+003,1.353912e-002
2.701826e+003,1.377966e-002
2.703755e+003,1.398044e-002
2.705683e+003,1.414141e-002
2.707612e+003,1.430723e-002
2.709541e+003,1.445570e-002
2.711469e+003,1.461011e-002
2.713397e+003,1.477359e-002
2.715326e+003,1.489310e-002
2.717254e+003,1.504578e-002
2.719183e+003,1.523842e-002
2.721111e+003,1.546586e-002
2.723040e+003,1.572495e-002
2.724969e+003,1.600659e-002
2.726897e+003,1.627740e-002
2.728825e+003,1.649037e-002
2.730754e+003,1.674229e-002
2.732682e+003,1.699204e-002
2.734611e+003,1.719080e-002
2.736539e+003,1.744326e-002
2.738468e+003,1.767112e-002
2.740396e+003,1.786567e-002
2.742325e+003,1.800722e-002
2.744253e+003,1.809537e-002
2.746182e+003,1.813325e-002
2.748110e+003,1.821259e-002
2.750039e+003,1.841045e-002
2.751967e+003,1.863083e-002
2.753896e+003,1.894053e-002
2.755824e+003,1.932534e-002
2.757753e+003,1.972509e-002
2.759681e+003,2.011560e-002
2.761610e+003,2.054575e-002
2.763538e+003,2.095357e-002
2.765467e+003,2.138321e-002
2.767395e+003,2.187685e-002
2.769324e+003,2.241188e-002
2.771252e+003,2.301758e-002
2.773181e+003,2.364028e-002
2.775109e+003,2.435209e-002
2.777038e+003,2.513409e-002
2.778966e+003,2.598948e-002
2.780895e+003,2.698477e-002
2.782823e+003,2.795105e-002
2.784752e+003,2.899468e-002
2.786680e+003,3.018781e-002
2.788609e+003,3.149429e-002
2.790537e+003,3.288846e-002
2.792466e+003,3.428745e-002
2.794394e+003,3.568597e-002
2.796323e+003,3.709912e-002
2.798251e+003,3.852933e-002
2.800180e+003,4.005896e-002
2.802108e+003,4.176629e-002
2.804037e+003,4.358657e-002
2.805965e+003,4.556355e-002
2.807894e+003,4.781242e-002
2.809822e+003,5.034987e-002
2.811751e+003,5.325495e-002
2.813679e+003,5.654030e-002
2.815608e+003,6.032357e-002
2.817536e+003,6.469848e-002
2.819465e+003,6.979518e-002
2.821393e+003,7.575516e-002
2.823322e+003,8.293252e-002
2.825250e+003,9.176563e-002
2.827179e+003,1.026247e-001
2.829107e+003,1.159131e-001
2.831036e+003,1.326075e-001
2.832964e+003,1.541209e-001
2.834893e+003,1.826388e-001
2.836821e+003,2.210640e-001
2.838750e+003,2.741954e-001
2.840678e+003,3.492948e-001
2.842607e+003,4.533846e-001
2.844535e+003,5.809432e-001
2.846464e+003,6.829202e-001
2.848392e+003,6.684160e-001
2.850321e+003,5.366032e-001
2.852249e+003,3.902493e-001
2.854178e+003,2.846456e-001
2.856106e+003,2.146605e-001
2.858035e+003,1.668580e-001
2.859963e+003,1.341409e-001
2.861892e+003,1.125022e-001
2.863820e+003,9.901825e-002
2.865749e+003,9.157888e-002
2.867677e+003,8.882306e-002
2.869606e+003,8.976179e-002
2.871534e+003,9.393506e-002
2.873463e+003,1.014378e-001
2.875391e+003,1.123768e-001
2.877320e+003,1.264314e-001
2.879248e+003,1.428959e-001
2.881177e+003,1.607549e-001
2.883105e+003,1.792428e-001
2.885034e+003,1.980393e-001
2.886962e+003,2.168113e-001
2.888891e+003,2.356110e-001
2.890819e+003,2.543274e-001
2.892748e+003,2.726843e-001
2.894676e+003,2.908244e-001
2.896605e+003,3.091941e-001
2.898533e+003,3.285504e-001
2.900462e+003,3.503281e-001
2.902390e+003,3.770518e-001
2.904319e+003,4.121319e-001
2.906247e+003,4.596599e-001
2.908176e+003,5.235295e-001
2.910104e+003,6.048378e-001
2.912033e+003,6.933454e-001
2.913961e+003,7.544616e-001
2.915890e+003,7.457050e-001
2.917818e+003,6.696209e-001
2.919747e+003,5.689117e-001
2.921675e+003,4.735698e-001
2.923604e+003,3.923301e-001
2.925532e+003,3.261705e-001
2.927461e+003,2.725448e-001
2.929389e+003,2.276843e-001
2.931318e+003,1.892799e-001
2.933246e+003,1.566019e-001
2.935175e+003,1.290831e-001
2.937103e+003,1.060491e-001
2.939032e+003,8.679929e-002
2.940960e+003,7.102014e-002
2.942889e+003,5.844025e-002
2.944817e+003,4.868137e-002
2.946746e+003,4.132495e-002
2.948674e+003,3.596895e-002
2.950603e+003,3.196613e-002
2.952531e+003,2.859551e-002
2.954460e+003,2.565866e-002
2.956388e+003,2.320218e-002
2.958317e+003,2.099498e-002
2.960245e+003,1.882652e-002
2.962174e+003,1.668606e-002
2.964102e+003,1.461731e-002
2.966031e+003,1.269341e-002
2.967959e+003,1.099507e-002
2.969888e+003,9.474844e-003
2.971816e+003,8.237895e-003
2.973745e+003,7.146113e-003
2.975673e+003,6.220531e-003
2.977602e+003,5.415305e-003
2.979530e+003,4.758719e-003
2.981459e+003,4.204590e-003
2.983387e+003,3.698409e-003
2.985316e+003,3.326196e-003
2.987244e+003,2.978142e-003
2.989173e+003,2.628811e-003
2.991101e+003,2.398711e-003
2.993030e+003,2.260063e-003
2.994958e+003,2.116408e-003
2.996887e+003,1.999855e-003
2.998815e+003,2.013430e-003
3.000744e+003,2.016623e-003
3.002672e+003,2.029084e-003
3.004601e+003,1.988929e-003
3.006529e+003,1.903176e-003
3.008458e+003,1.859467e-003
3.010386e+003,1.795437e-003
3.012315e+003,1.708865e-003
3.014243e+003,1.618471e-003
3.016172e+003,1.507029e-003
3.018100e+003,1.420524e-003
3.020029e+003,1.392908e-003
3.021957e+003,1.431953e-003
3.023886e+003,1.421828e-003
3.025814e+003,1.415748e-003
3.027743e+003,1.359440e-003
3.029671e+003,1.401663e-003
3.031600e+003,1.463383e-003
3.033528e+003,1.471136e-003
3.035457e+003,1.271315e-003
3.037385e+003,1.029860e-003
3.039314e+003,9.123720e-004
3.041242e+003,8.466020e-004
3.043171e+003,7.400177e-004
3.045099e+003,6.796941e-004
3.047028e+003,6.085187e-004
3.048956e+003,5.127825e-004
3.050885e+003,3.688857e-004
3.052813e+003,2.919286e-004
3.054742e+003,2.777502e-004
3.056670e+003,2.872460e-004
3.058599e+003,2.949536e-004
3.060527e+003,2.216287e-004
3.062456e+003,1.420192e-004
3.064384e+003,1.345091e-004
3.066313e+003,8.133799e-005
3.068241e+003,1.010261e-004
3.070170e+003,1.339950e-004
3.072098e+003,2.338178e-004
3.074027e+003,2.463497e-004
3.075955e+003,1.691021e-004
3.077884e+003,1.660809e-004
3.079812e+003,1.956858e-004
3.081741e+003,1.130700e-004
3.083669e+003,-1.945719e-005
3.085598e+003,-5.702302e-005
3.087526e+003,-7.356703e-005
3.089455e+003,-2.372973e-004
3.091383e+003,-3.417470e-004
3.093312e+003,-3.323108e-004
3.095240e+003,-5.119853e-004
3.097169e+003,-7.983446e-004
3.099097e+003,-9.439513e-004
3.101026e+003,-1.087613e-003
3.102954e+003,-1.259409e-003
3.104883e+003,-1.350120e-003
3.106811e+003,-1.410279e-003
3.108740e+003,-1.442835e-003
3.110668e+003,-1.432814e-003
3.112597e+003,-1.445584e-003
3.114525e+003,-1.468208e-003
3.116454e+003,-1.546379e-003
3.118382e+003,-1.517385e-003
3.120311e+003,-1.527280e-003
3.122239e+003,-1.508825e-003
3.124168e+003,-1.476981e-003
3.126096e+003,-1.496509e-003
3.128025e+003,-1.494423e-003
3.129953e+003,-1.455117e-003
3.131882e+003,-1.454398e-003
3.133810e+003,-1.434147e-003
3.135739e+003,-1.417842e-003
3.137667e+003,-1.329817e-003
3.139596e+003,-1.209401e-003
3.141524e+003,-1.347199e-003
3.143453e+003,-1.461145e-003
3.145381e+003,-1.488045e-003
3.147310e+003,-1.484033e-003
3.149238e+003,-1.428436e-003
3.151167e+003,-1.363821e-003
3.153095e+003,-1.291662e-003
3.155024e+003,-1.271319e-003
3.156952e+003,-1.233093e-003
3.158881e+003,-1.175128e-003
3.160809e+003,-1.165945e-003
3.162738e+003,-1.104843e-003
3.164666e+003,-1.091927e-003
3.166594e+003,-1.147475e-003
3.168523e+003,-1.157273e-003
3.170452e+003,-1.110367e-003
3.172380e+003,-1.007296e-003
3.174309e+003,-9.178147e-004
3.176237e+003,-8.706823e-004
3.178166e+003,-7.324107e-004
3.180094e+003,-6.285198e-004
3.182022e+003,-7.251278e-004
3.183951e+003,-7.813647e-004
3.185880e+003,-7.357672e-004
3.187808e+003,-7.593893e-004
3.189737e+003,-6.998479e-004
3.191665e+003,-6.667078e-004
3.193594e+003,-6.834678e-004
3.195522e+003,-6.840304e-004
3.197450e+003,-6.514788e-004
3.199379e+003,-6.080531e-004
3.201308e+003,-5.839951e-004
3.203236e+003,-5.730987e-004
3.205165e+003,-6.381162e-004
3.207093e+003,-6.464906e-004
3.209021e+003,-4.994050e-004
3.210950e+003,-4.179701e-004
3.212878e+003,-4.005730e-004
3.214807e+003,-2.693646e-004
3.216736e+003,-2.445728e-004
3.218664e+003,-2.997890e-004
3.220593e+003,-2.777576e-004
3.222521e+003,-2.266355e-004
3.224449e+003,-2.244450e-004
3.226378e+003,-2.604313e-004
3.228307e+003,-3.098622e-004
3.230235e+003,-2.081431e-004
3.232164e+003,-2.213642e-004
3.234092e+003,-2.806373e-004
3.236021e+003,-2.247877e-004
3.237949e+003,-1.374371e-004
3.239877e+003,-1.474470e-005
3.241806e+003,1.401193e-004
3.243735e+003,1.315922e-004
3.245663e+003,1.283959e-004
3.247592e+003,1.669712e-004
3.249520e+003,2.601109e-004
3.251448e+003,3.221184e-004
3.253377e+003,4.105493e-004
3.255305e+003,4.587546e-004
3.257234e+003,3.771372e-004
3.259163e+003,2.983361e-004
3.261091e+003,4.469194e-004
3.263020e+003,5.501099e-004
3.264948e+003,5.050860e-004
3.266876e+003,5.404912e-004
3.268805e+003,5.695336e-004
3.270733e+003,5.977191e-004
3.272662e+003,7.290468e-004
3.274591e+003,9.008795e-004
3.276519e+003,9.125434e-004
3.278448e+003,7.737577e-004
3.280376e+003,6.429181e-004
3.282304e+003,6.282926e-004
3.284233e+003,7.638037e-004
3.286161e+003,9.386130e-004
3.288090e+003,9.038001e-004
3.290019e+003,9.790696e-004
3.291947e+003,1.095325e-003
3.293875e+003,1.053069e-003
3.295804e+003,1.070049e-003
3.297732e+003,1.060769e-003
3.299661e+003,9.674281e-004
3.301589e+003,9.799413e-004
3.303518e+003,1.046125e-003
3.305447e+003,1.077414e-003
3.307375e+003,1.152691e-003
3.309303e+003,1.198508e-003
3.311232e+003,1.198106e-003
3.313160e+003,1.224544e-003
3.315089e+003,1.183048e-003
3.317018e+003,1.133990e-003
3.318946e+003,1.053989e-003
3.320875e+003,1.046512e-003
3.322803e+003,1.086712e-003
3.324731e+003,1.149442e-003
3.326660e+003,1.236573e-003
3.328588e+003,1.257975e-003
3.330517e+003,1.245089e-003
3.332446e+003,1.313534e-003
3.334374e+003,1.309585e-003
3.336302e+003,1.306418e-003
3.338231e+003,1.278609e-003
3.340159e+003,1.204539e-003
3.342088e+003,1.235373e-003
3.344016e+003,1.246277e-003
3.345945e+003,1.230866e-003
3.347874e+003,1.190942e-003
3.349802e+003,1.203775e-003
3.351730e+003,1.197278e-003
3.353659e+003,1.230143e-003
3.355587e+003,1.362145e-003
3.357516e+003,1.386151e-003
3.359444e+003,1.381684e-003
3.361373e+003,1.452938e-003
3.363302e+003,1.394201e-003
3.365230e+003,1.397800e-003
3.367158e+003,1.462225e-003
3.369087e+003,1.345199e-003
3.371015e+003,1.232885e-003
3.372944e+003,1.297422e-003
3.374872e+003,1.386028e-003
3.376801e+003,1.298573e-003
3.378729e+003,1.213461e-003
3.380658e+003,1.194533e-003
3.382586e+003,1.099039e-003
3.384515e+003,1.126491e-003
3.386443e+003,1.165260e-003
3.388372e+003,1.155902e-003
3.390300e+003,1.080401e-003
3.392229e+003,1.084246e-003
3.394157e+003,1.109537e-003
3.396086e+003,1.127269e-003
3.398014e+003,1.049463e-003
3.399943e+003,1.060177e-003
3.401871e+003,1.087133e-003
3.403800e+003,8.891374e-004
3.405728e+003,7.760562e-004
3.407657e+003,7.813498e-004
3.409585e+003,8.161329e-004
3.411514e+003,8.021221e-004
3.413442e+003,8.362494e-004
3.415371e+003,8.240975e-004
3.417299e+003,7.448271e-004
3.419228e+003,8.524507e-004
3.421156e+003,8.779690e-004
3.423085e+003,8.038692e-004
3.425013e+003,7.929318e-004
3.426942e+003,8.168072e-004
3.428870e+003,8.663759e-004
3.430799e+003,9.493195e-004
3.432727e+003,1.051459e-003
3.434656e+003,1.017734e-003
3.436584e+003,8.316450e-004
3.438513e+003,7.692985e-004
3.440441e+003,8.017160e-004
3.442370e+003,1.004733e-003
3.444298e+003,1.040988e-003
3.446227e+003,1.119535e-003
3.448155e+003,1.084376e-003
3.450084e+003,7.449761e-004
3.452012e+003,7.171519e-004
3.453941e+003,7.281825e-004
3.455869e+003,7.101521e-004
3.457798e+003,7.587038e-004
3.459726e+003,7.254630e-004
3.461655e+003,6.403625e-004
3.463583e+003,6.700307e-004
3.465512e+003,7.068664e-004
3.467440e+003,5.506687e-004
3.469369e+003,3.938191e-004
3.471297e+003,3.866889e-004
3.473226e+003,4.224777e-004
3.475154e+003,4.927665e-004
3.477083e+003,5.334131e-004
3.479011e+003,5.694441e-004
3.480940e+003,5.707406e-004
3.482868e+003,5.312562e-004
3.484797e+003,2.999939e-004
3.486725e+003,2.132952e-004
3.488654e+003,4.263185e-004
3.490582e+003,4.689805e-004
3.492511e+003,3.437176e-004
3.494439e+003,4.503056e-004
3.496368e+003,5.021542e-004
3.498296e+003,3.279373e-004
3.500225e+003,2.432875e-004
3.502153e+003,3.770739e-004
3.504082e+003,4.596449e-004
3.506010e+003,2.711751e-004
3.507939e+003,2.628639e-004
3.509867e+003,4.891083e-004
3.511796e+003,3.674701e-004
3.513724e+003,1.516230e-004
3.515653e+003,8.952618e-005
3.517581e+003,6.586686e-005
3.519510e+003,4.627928e-005
3.521438e+003,1.538545e-006
3.523367e+003,1.768060e-004
3.525295e+003,2.467856e-004
3.527224e+003,3.389828e-004
3.529152e+003,3.400669e-004
3.531081e+003,1.788549e-004
3.533009e+003,1.126677e-004
3.534938e+003,5.222484e-005
3.536866e+003,1.462437e-004
3.538795e+003,-1.067519e-004
3.540723e+003,-2.920702e-004
3.542652e+003,-2.313033e-004
3.544580e+003,2.069920e-004
3.546509e+003,3.418885e-004
3.548437e+003,2.037734e-006
3.550366e+003,-2.944954e-004
3.552294e+003,-7.840991e-005
3.554223e+003,-6.893650e-005
3.556151e+003,-2.944954e-004
3.558080e+003,-3.254302e-004
3.560008e+003,-1.255199e-004
3.561937e+003,-2.238788e-004
3.563865e+003,-4.233420e-004
3.565794e+003,3.330410e-006
3.567722e+003,6.564371e-004
3.569651e+003,1.009107e-004
3.571579e+003,-3.950931e-004
3.573508e+003,-5.656444e-004
3.575436e+003,-4.374310e-004
3.577365e+003,-2.361536e-004
3.579293e+003,-8.427352e-005
3.581222e+003,-1.710132e-004
3.583150e+003,-4.505068e-004
3.585079e+003,-7.418245e-004
3.587007e+003,-8.910894e-005
3.588936e+003,4.438236e-004
3.590864e+003,3.241375e-005
3.592793e+003,-1.922250e-006
3.594721e+003,4.296303e-004
3.596650e+003,7.431991e-004
3.598578e+003,9.367876e-004
3.600507e+003,1.233123e-003
3.602435e+003,1.318585e-003
3.604364e+003,9.041019e-004
3.606292e+003,7.534064e-004
3.608221e+003,1.042176e-003
3.610149e+003,8.433945e-004
3.612078e+003,5.651638e-004
3.614006e+003,6.654859e-004
3.615935e+003,2.740510e-004
3.617863e+003,2.732053e-004
3.619792e+003,9.762198e-004
3.621720e+003,6.679147e-004
3.623649e+003,4.040077e-005
3.625577e+003,-3.116056e-004
3.627506e+003,-2.090894e-004
3.629434e+003,1.298539e-003
3.631363e+003,5.101524e-004
3.633291e+003,1.197346e-004
3.635220e+003,-2.411008e-005
3.637148e+003,-2.976507e-005
3.639077e+003,4.725046e-004
3.641005e+003,5.230978e-004
3.642934e+003,2.381727e-004
3.644862e+003,-4.040152e-004
3.646791e+003,-2.841428e-004
3.648719e+003,7.330105e-004
3.650648e+003,1.392026e-003
3.652576e+003,8.249767e-004
3.654505e+003,2.478808e-004
3.656433e+003,5.611628e-004
3.658362e+003,3.111772e-004
3.660290e+003,1.533143e-004
3.662219e+003,-1.180880e-004
3.664147e+003,-4.695877e-004
3.666076e+003,-6.325766e-004
3.668004e+003,-6.108433e-004
3.669933e+003,4.010014e-004
3.671861e+003,3.977008e-004
3.673790e+003,-3.508925e-004
3.675718e+003,8.665919e-004
3.677647e+003,4.818738e-004
3.679575e+003,3.750101e-004
3.681504e+003,2.711825e-004
3.683432e+003,-5.628914e-005
3.685361e+003,-2.081096e-004
3.687289e+003,-1.925193e-004
3.689218e+003,7.427745e-004
3.691146e+003,8.519180e-004
3.693075e+003,4.384071e-004
3.695003e+003,6.034970e-006
3.696932e+003,-1.496747e-004
3.698860e+003,-2.170578e-004
3.700789e+003,4.474446e-005
3.702717e+003,4.414916e-004
3.704646e+003,2.085455e-004
3.706574e+003,-2.168566e-004
3.708503e+003,-4.811101e-004
3.710431e+003,6.813556e-005
3.712360e+003,1.078065e-003
3.714288e+003,8.554384e-004
3.716217e+003,4.006103e-004
3.718145e+003,3.080778e-004
3.720074e+003,8.696690e-005
3.722002e+003,1.263097e-004
3.723931e+003,2.478957e-004
3.725859e+003,4.341006e-004
3.727788e+003,6.826110e-004
3.729716e+003,3.187694e-004
3.731645e+003,4.928671e-004
3.733573e+003,7.106327e-004
3.735502e+003,1.571104e-003
3.737430e+003,1.536001e-003
3.739359e+003,6.850213e-004
3.741287e+003,2.238043e-004
3.743216e+003,1.936033e-005
3.745144e+003,1.559794e-003
3.747073e+003,1.157645e-003
3.749001e+003,8.726232e-004
3.750930e+003,1.703933e-003
3.752858e+003,1.973253e-003
3.754787e+003,1.187712e-003
3.756715e+003,9.391345e-004
3.758644e+003,1.116909e-003
3.760572e+003,1.377955e-003
3.762501e+003,1.001462e-003
3.764429e+003,9.325370e-004
3.766358e+003,1.143269e-003
3.768286e+003,1.016721e-003
3.770215e+003,1.687232e-003
3.772143e+003,1.514759e-003
3.774072e+003,1.095124e-003
3.776000e+003,9.368807e-004
3.777929e+003,1.067370e-003
3.779857e+003,1.745097e-003
3.781786e+003,1.590252e-003
3.783714e+003,1.418494e-003
3.785643e+003,1.682095e-003
3.787571e+003,1.552109e-003
3.789500e+003,1.156360e-003
3.791428e+003,9.796135e-004
3.793357e+003,1.051083e-003
3.795285e+003,1.107249e-003
3.797214e+003,1.540143e-003
3.799142e+003,1.167245e-003
3.801071e+003,1.832385e-003
3.802999e+003,2.337385e-003
3.804927e+003,1.344934e-003
3.806856e+003,1.930099e-003
3.808785e+003,1.998562e-003
3.810713e+003,1.505844e-003
3.812642e+003,1.336075e-003
3.814570e+003,1.040455e-003
3.816499e+003,2.018292e-003
3.818427e+003,1.839396e-003
3.820355e+003,1.897484e-003
3.822284e+003,2.623767e-003
3.824213e+003,1.961783e-003
3.826141e+003,1.752369e-003
3.828070e+003,1.502775e-003
3.829998e+003,1.389701e-003
3.831927e+003,1.984932e-003
3.833855e+003,2.161775e-003
3.835783e+003,2.317175e-003
3.837712e+003,2.398837e-003
3.839641e+003,2.493665e-003
3.841569e+003,2.146598e-003
3.843498e+003,2.134204e-003
3.845426e+003,2.199527e-003
3.847354e+003,1.989521e-003
3.849283e+003,1.836222e-003
3.851211e+003,1.719713e-003
3.853140e+003,2.894521e-003
3.855069e+003,3.035188e-003
3.856997e+003,2.313606e-003
3.858926e+003,1.692820e-003
3.860854e+003,1.670547e-003
3.862782e+003,2.283402e-003
3.864711e+003,2.940953e-003
3.866640e+003,2.517756e-003
3.868568e+003,2.092645e-003
3.870497e+003,2.992779e-003
3.872425e+003,2.616882e-003
3.874354e+003,2.984464e-003
3.876282e+003,2.591670e-003
3.878210e+003,2.105873e-003
3.880139e+003,2.700083e-003
3.882068e+003,2.853446e-003
3.883996e+003,2.477169e-003
3.885925e+003,2.837569e-003
3.887853e+003,2.139382e-003
3.889781e+003,1.768209e-003
3.891710e+003,2.357334e-003
3.893638e+003,2.543740e-003
3.895567e+003,2.382815e-003
3.897496e+003,2.255380e-003
3.899424e+003,2.293810e-003
3.901353e+003,2.448328e-003
3.903281e+003,2.805196e-003
3.905209e+003,3.100157e-003
3.907138e+003,2.761275e-003
3.909066e+003,2.632245e-003
3.910995e+003,2.533764e-003
3.912924e+003,2.445549e-003
3.914852e+003,2.386868e-003
3.916781e+003,2.577312e-003
3.918709e+003,2.515659e-003
3.920637e+003,2.505854e-003
3.922566e+003,2.538659e-003
3.924494e+003,2.939343e-003
3.926423e+003,2.810858e-003
3.928352e+003,2.499312e-003
3.930280e+003,2.552986e-003
3.932208e+003,2.771571e-003
3.934137e+003,2.672918e-003
3.936065e+003,2.252683e-003
3.937994e+003,2.153568e-003
3.939922e+003,2.220444e-003
3.941851e+003,2.397195e-003
3.943780e+003,2.509683e-003
3.945708e+003,2.258636e-003
3.947636e+003,2.316713e-003
3.949565e+003,2.374999e-003
3.951493e+003,2.309807e-003
3.953422e+003,2.247393e-003
3.955351e+003,2.229817e-003
3.957279e+003,2.306662e-003
3.959208e+003,2.371721e-003
3.961136e+003,2.366692e-003
3.963064e+003,2.373107e-003
3.964993e+003,2.259262e-003
3.966921e+003,2.245702e-003
3.968850e+003,2.191447e-003
3.970779e+003,2.261125e-003
3.972707e+003,2.410941e-003
3.974635e+003,2.453186e-003
3.976564e+003,2.444446e-003
3.978492e+003,2.458557e-003
3.980421e+003,2.564669e-003
3.982349e+003,2.382152e-003
3.984278e+003,2.248526e-003
3.986207e+003,2.139315e-003
3.988135e+003,2.198532e-003
3.990063e+003,2.430439e-003
3.991992e+003,2.370283e-003
3.993920e+003,2.352230e-003
3.995849e+003,2.393119e-003
3.997777e+003,2.297096e-003
3.999706e+003,2.282955e-003
4.001635e+003,0.000000e+000
