3.991992e+002,0.000000e+000
4.011277e+002,0.000000e+000
4.030562e+002,0.000000e+000
4.049846e+002,0.000000e+000
4.069131e+002,0.000000e+000
4.088416e+002,0.000000e+000
4.107701e+002,0.000000e+000
4.126986e+002,0.000000e+000
4.146271e+002,0.000000e+000
4.165556e+002,0.000000e+000
4.184841e+002,0.000000e+000
4.204126e+002,0.000000e+000
4.223411e+002,0.000000e+000
4.242697e+002,0.000000e+000
4.261982e+002,0.000000e+000
4.281266e+002,0.000000e+000
4.300551e+002,0.000000e+000
4.319836e+002,0.000000e+000
4.339121e+002,0.000000e+000
4.358406e+002,0.000000e+000
4.377691e+002,0.000000e+000
4.396976e+002,0.000000e+000
4.416261e+002,0.000000e+000
4.435546e+002,0.000000e+000
4.454831e+002,0.000000e+000
4.474116e+002,0.000000e+000
4.493401e+002,0.000000e+000
4.512686e+002,0.000000e+000
4.531971e+002,0.000000e+000
4.551256e+002,0.000000e+000
4.570541e+002,0.000000e+000
4.589826e+002,0.000000e+000
4.609111e+002,0.000000e+000
4.628396e+002,0.000000e+000
4.647681e+002,0.000000e+000
4.666966e+002,0.000000e+000
4.686251e+002,0.000000e+000
4.705536e+002,0.000000e+000
4.724821e+002,0.000000e+000
4.744106e+002,0.000000e+000
4.763391e+002,0.000000e+000
4.782676e+002,0.000000e+000
4.801961e+002,0.000000e+000
4.821246e+002,0.000000e+000
4.840531e+002,0.000000e+000
4.859816e+002,0.000000e+000
4.879101e+002,0.000000e+000
4.898386e+002,0.000000e+000
4.917671e+002,0.000000e+000
4.936956e+002,0.000000e+000
4.956241e+002,0.000000e+000
4.975526e+002,0.000000e+000
4.994811e+002,0.000000e+000
5.014096e+002,0.000000e+000
5.033381e+002,0.000000e+000
5.052666e+002,0.000000e+000
5.071951e+002,0.000000e+000
5.091236e+002,0.000000e+000
5.110521e+002,0.000000e+000
5.129806e+002,0.000000e+000
5.149091e+002,0.000000e+000
5.168376e+002,0.000000e+000
5.187661e+002,0.000000e+000
5.206946e+002,0.000000e+000
5.226230e+002,0.000000e+000
5.245516e+002,-1.269390e-003
5.264800e+002,-1.237039e-003
5.284086e+002,-1.233090e-003
5.303370e+002,-1.326974e-003
5.322656e+002,-1.357839e-003
5.341940e+002,-1.430985e-003
5.361226e+002,-1.324296e-003
5.380510e+002,-1.279753e-003
5.399796e+002,-1.350180e-003
5.419081e+002,-1.373137e-003
5.438365e+002,-1.283012e-003
5.457650e+002,-1.264259e-003
5.476935e+002,-1.257413e-003
5.496221e+002,-1.152558e-003
5.515505e+002,-1.093683e-003
5.534790e+002,-1.106742e-003
5.554075e+002,-1.090334e-003
5.573361e+002,-1.151509e-003
5.592645e+002,-1.260904e-003
5.611931e+002,-1.279739e-003
5.631215e+002,-1.241252e-003
5.650500e+002,-1.243181e-003
5.669785e+002,-1.240512e-003
5.689070e+002,-1.133711e-003
5.708355e+002,-1.092488e-003
5.727640e+002,-1.136805e-003
5.746925e+002,-1.211008e-003
5.766210e+002,-1.309467e-003
5.785495e+002,-1.200983e-003
5.804780e+002,-1.190797e-003
5.824065e+002,-1.218125e-003
5.843350e+002,-1.149369e-003
5.862635e+002,-1.071041e-003
5.881920e+002,-1.139694e-003
5.901205e+002,-1.133149e-003
5.920490e+002,-1.100589e-003
5.939775e+002,-1.048503e-003
5.959060e+002,-1.034177e-003
5.978345e+002,-9.944532e-004
5.997630e+002,-9.687357e-004
6.016915e+002,-8.682460e-004
6.036200e+002,-7.717572e-004
6.055485e+002,-7.063327e-004
6.074770e+002,-7.310426e-004
6.094055e+002,-7.495405e-004
6.113340e+002,-7.595886e-004
6.132625e+002,-7.814737e-004
6.151910e+002,-8.533066e-004
6.171195e+002,-8.024164e-004
6.190480e+002,-6.951354e-004
6.209765e+002,-5.308827e-004
6.229050e+002,-5.123587e-004
6.248335e+002,-4.503066e-004
6.267620e+002,-4.298482e-004
6.286905e+002,-4.475610e-004
6.306190e+002,-4.447093e-004
6.325475e+002,-2.958030e-004
6.344760e+002,-1.909928e-004
6.364045e+002,-2.107192e-004
6.383330e+002,-2.467893e-004
6.402615e+002,-1.814049e-004
6.421899e+002,-1.867125e-004
6.441185e+002,-1.635998e-004
6.460470e+002,-1.960602e-004
6.479755e+002,-1.221569e-004
6.499039e+002,-5.984679e-005
6.518325e+002,-8.763000e-005
6.537610e+002,-6.017461e-005
6.556895e+002,1.410786e-004
6.576179e+002,1.714258e-004
6.595464e+002,1.644902e-004
6.614750e+002,1.354646e-004
6.634034e+002,1.583882e-004
6.653319e+002,2.265396e-004
6.672604e+002,4.484849e-004
6.691890e+002,4.576799e-004
6.711174e+002,4.962375e-004
6.730460e+002,5.608667e-004
6.749745e+002,6.932868e-004
6.769030e+002,8.242829e-004
6.788314e+002,9.729723e-004
6.807599e+002,1.102074e-003
6.826885e+002,1.321909e-003
6.846169e+002,1.481180e-003
6.865454e+002,1.674309e-003
6.884739e+002,1.817378e-003
6.904025e+002,2.062483e-003
6.923309e+002,2.279418e-003
6.942594e+002,2.650844e-003
6.961879e+002,3.064543e-003
6.981165e+002,3.617581e-003
7.000449e+002,4.308159e-003
7.019734e+002,5.358264e-003
7.039019e+002,6.555760e-003
7.058304e+002,8.327454e-003
7.077589e+002,1.073412e-002
7.096874e+002,1.443733e-002
7.116159e+002,2.062161e-002
7.135444e+002,3.290702e-002
7.154729e+002,5.431797e-002
7.174014e+002,8.127153e-002
7.193299e+002,8.689710e-002
7.212584e+002,5.692241e-002
7.231869e+002,3.290284e-002
7.251154e+002,2.715543e-002
7.270439e+002,3.461424e-002
7.289724e+002,5.478274e-002
7.309009e+002,5.831357e-002
7.328294e+002,3.177745e-002
7.347579e+002,1.197616e-002
7.366864e+002,5.571807e-003
7.386149e+002,3.422346e-003
7.405434e+002,2.267158e-003
7.424719e+002,1.682498e-003
7.444004e+002,1.188453e-003
7.463289e+002,8.742400e-004
7.482574e+002,6.382875e-004
7.501859e+002,5.254578e-004
7.521144e+002,3.616847e-004
7.540428e+002,2.881233e-004
7.559714e+002,1.677163e-004
7.578999e+002,1.212070e-004
7.598284e+002,9.931996e-005
7.617568e+002,1.091175e-004
7.636854e+002,5.827099e-005
7.656139e+002,5.046930e-005
7.675424e+002,2.175104e-005
7.694709e+002,2.169237e-005
7.713994e+002,-1.167413e-005
7.733279e+002,-4.517660e-005
7.752563e+002,-1.115715e-004
7.771849e+002,-1.954557e-004
7.791134e+002,-2.219426e-004
7.810419e+002,-1.909630e-004
7.829703e+002,-2.358900e-004
7.848989e+002,-2.028998e-004
7.868274e+002,-1.874026e-004
7.887559e+002,-1.543937e-004
7.906843e+002,-8.779112e-005
7.926129e+002,-5.025789e-005
7.945414e+002,-3.876816e-005
7.964698e+002,8.177012e-006
7.983983e+002,4.800688e-005
8.003268e+002,5.460065e-005
8.022554e+002,3.984291e-005
8.041838e+002,5.284976e-005
8.061123e+002,-8.935109e-006
8.080408e+002,-5.131774e-005
8.099694e+002,-2.012402e-005
8.118978e+002,8.793548e-006
8.138263e+002,2.155732e-005
8.157548e+002,3.909506e-005
8.176833e+002,2.609286e-005
8.196118e+002,3.449153e-005
8.215403e+002,-7.455237e-006
8.234689e+002,-4.390348e-005
8.253973e+002,2.699625e-005
8.273258e+002,8.599367e-005
8.292543e+002,4.464947e-005
8.311829e+002,-3.063120e-006
8.331113e+002,2.179947e-005
8.350398e+002,9.432156e-005
8.369683e+002,1.249304e-004
8.388969e+002,7.809699e-005
8.408253e+002,3.816932e-005
8.427538e+002,8.156057e-005
8.446823e+002,9.586476e-005
8.466108e+002,4.883856e-005
8.485393e+002,4.203152e-005
8.504678e+002,9.187870e-005
8.523963e+002,1.181494e-004
8.543248e+002,1.486791e-004
8.562533e+002,2.012756e-004
8.581818e+002,1.901193e-004
8.601103e+002,1.231609e-004
8.620388e+002,1.490945e-004
8.639673e+002,1.839595e-004
8.658958e+002,2.288390e-004
8.678243e+002,2.729474e-004
8.697528e+002,2.440680e-004
8.716813e+002,2.020635e-004
8.736098e+002,2.326034e-004
8.755383e+002,2.901945e-004
8.774668e+002,3.223866e-004
8.793953e+002,3.138036e-004
8.813238e+002,3.498541e-004
8.832523e+002,4.021274e-004
8.851808e+002,4.253210e-004
8.871093e+002,4.730867e-004
8.890378e+002,5.294224e-004
8.909663e+002,5.491870e-004
8.928948e+002,5.654236e-004
8.948232e+002,6.396510e-004
8.967518e+002,7.446809e-004
8.986803e+002,8.866759e-004
9.006088e+002,1.101905e-003
9.025372e+002,1.445451e-003
9.044658e+002,2.005231e-003
9.063943e+002,2.813829e-003
9.083228e+002,3.253996e-003
9.102512e+002,2.828473e-003
9.121797e+002,1.958014e-003
9.141083e+002,1.282214e-003
9.160367e+002,1.010128e-003
9.179653e+002,9.176694e-004
9.198937e+002,8.175066e-004
9.218223e+002,6.842483e-004
9.237507e+002,6.016735e-004
9.256793e+002,6.072074e-004
9.276077e+002,6.595291e-004
9.295363e+002,6.764904e-004
9.314647e+002,6.461274e-004
9.333932e+002,6.055944e-004
9.353217e+002,5.825218e-004
9.372502e+002,6.036106e-004
9.391787e+002,6.654579e-004
9.411072e+002,7.045791e-004
9.430358e+002,7.061176e-004
9.449642e+002,7.228032e-004
9.468928e+002,7.439982e-004
9.488212e+002,7.994920e-004
9.507498e+002,7.853135e-004
9.526782e+002,7.404182e-004
9.546068e+002,7.624049e-004
9.565352e+002,8.074753e-004
9.584637e+002,8.710325e-004
9.603922e+002,9.868555e-004
9.623207e+002,1.000937e-003
9.642492e+002,1.009289e-003
9.661777e+002,1.085505e-003
9.681062e+002,1.110606e-003
9.700347e+002,1.125099e-003
9.719632e+002,1.107424e-003
9.738917e+002,1.041511e-003
9.758202e+002,1.002068e-003
9.777487e+002,9.750240e-004
9.796772e+002,9.521823e-004
9.816057e+002,9.975601e-004
9.835342e+002,1.115594e-003
9.854627e+002,1.306681e-003
9.873912e+002,1.544293e-003
9.893197e+002,1.692744e-003
9.912482e+002,1.743471e-003
9.931767e+002,1.673158e-003
9.951052e+002,1.566097e-003
9.970337e+002,1.449810e-003
9.989622e+002,1.351578e-003
1.000891e+003,1.247255e-003
1.002819e+003,1.253108e-003
1.004748e+003,1.314253e-003
1.006676e+003,1.335485e-003
1.008605e+003,1.340901e-003
1.010533e+003,1.425665e-003
1.012462e+003,1.561943e-003
1.014390e+003,1.680644e-003
1.016319e+003,1.762901e-003
1.018247e+003,1.899233e-003
1.020176e+003,1.988828e-003
1.022104e+003,1.976909e-003
1.024033e+003,1.932159e-003
1.025961e+003,1.930602e-003
1.027890e+003,1.878349e-003
1.029818e+003,1.868574e-003
1.031747e+003,1.876114e-003
1.033675e+003,1.885988e-003
1.035604e+003,1.879638e-003
1.037532e+003,1.914660e-003
1.039461e+003,1.930339e-003
1.041389e+003,1.930831e-003
1.043318e+003,1.985967e-003
1.045246e+003,2.087150e-003
1.047175e+003,2.179796e-003
1.049103e+003,2.350666e-003
1.051032e+003,2.455719e-003
1.052960e+003,2.354577e-003
1.054889e+003,2.280440e-003
1.056817e+003,2.319962e-003
1.058746e+003,2.374351e-003
1.060674e+003,2.440292e-003
1.062603e+003,2.455242e-003
1.064531e+003,2.456689e-003
1.066460e+003,2.469355e-003
1.068388e+003,2.514808e-003
1.070317e+003,2.562469e-003
1.072245e+003,2.667852e-003
1.074174e+003,2.799541e-003
1.076102e+003,2.987277e-003
1.078031e+003,3.102137e-003
1.079959e+003,3.175758e-003
1.081888e+003,3.181700e-003
1.083816e+003,3.170501e-003
1.085745e+003,3.122874e-003
1.087673e+003,3.051620e-003
1.089602e+003,3.002873e-003
1.091530e+003,3.002979e-003
1.093459e+003,2.910977e-003
1.095387e+003,2.870955e-003
1.097316e+003,2.861131e-003
1.099244e+003,2.844635e-003
1.101173e+003,2.801949e-003
1.103101e+003,2.796240e-003
1.105030e+003,2.770061e-003
1.106958e+003,2.740670e-003
1.108887e+003,2.694234e-003
1.110815e+003,2.652882e-003
1.112744e+003,2.594722e-003
1.114672e+003,2.605049e-003
1.116601e+003,2.603594e-003
1.118529e+003,2.574805e-003
1.120458e+003,2.548337e-003
1.122386e+003,2.532968e-003
1.124315e+003,2.510352e-003
1.126243e+003,2.462720e-003
1.128172e+003,2.428893e-003
1.130100e+003,2.472628e-003
1.132029e+003,2.488002e-003
1.133957e+003,2.487911e-003
1.135885e+003,2.486520e-003
1.137814e+003,2.482668e-003
1.139743e+003,2.485361e-003
1.141671e+003,2.545403e-003
1.143600e+003,2.615381e-003
1.145528e+003,2.699925e-003
1.147457e+003,2.800671e-003
1.149385e+003,2.994129e-003
1.151314e+003,3.203442e-003
1.153242e+003,3.387682e-003
1.155171e+003,3.487643e-003
1.157099e+003,3.588932e-003
1.159028e+003,3.620593e-003
1.160956e+003,3.638167e-003
1.162885e+003,3.640983e-003
1.164813e+003,3.603861e-003
1.166742e+003,3.465680e-003
1.168670e+003,3.359497e-003
1.170599e+003,3.246428e-003
1.172527e+003,3.142001e-003
1.174456e+003,3.117375e-003
1.176384e+003,3.111754e-003
1.178313e+003,2.917923e-003
1.180241e+003,2.769411e-003
1.182170e+003,2.695195e-003
1.184098e+003,2.718905e-003
1.186027e+003,2.709849e-003
1.187955e+003,2.698956e-003
1.189884e+003,2.703335e-003
1.191812e+003,2.776861e-003
1.193740e+003,2.821336e-003
1.195669e+003,2.872335e-003
1.197598e+003,2.951201e-003
1.199526e+003,3.103258e-003
1.201455e+003,3.236532e-003
1.203383e+003,3.392918e-003
1.205312e+003,3.550328e-003
1.207240e+003,3.732314e-003
1.209168e+003,3.903624e-003
1.211097e+003,4.063880e-003
1.213026e+003,4.118631e-003
1.214954e+003,4.187154e-003
1.216883e+003,4.301362e-003
1.218811e+003,4.428804e-003
1.220740e+003,4.509969e-003
1.222668e+003,4.627572e-003
1.224596e+003,4.735298e-003
1.226525e+003,4.873179e-003
1.228453e+003,4.991719e-003
1.230382e+003,5.125640e-003
1.232311e+003,5.217336e-003
1.234239e+003,5.319063e-003
1.236167e+003,5.416475e-003
1.238096e+003,5.513977e-003
1.240025e+003,5.558722e-003
1.241953e+003,5.623147e-003
1.243882e+003,5.619178e-003
1.245810e+003,5.557649e-003
1.247739e+003,5.425483e-003
1.249667e+003,5.322680e-003
1.251595e+003,5.220966e-003
1.253524e+003,5.119853e-003
1.255453e+003,4.972283e-003
1.257381e+003,4.823249e-003
1.259310e+003,4.632274e-003
1.261238e+003,4.496928e-003
1.263167e+003,4.349584e-003
1.265095e+003,4.233880e-003
1.267023e+003,4.122188e-003
1.268952e+003,4.066885e-003
1.270880e+003,3.992703e-003
1.272809e+003,3.962236e-003
1.274738e+003,3.944406e-003
1.276666e+003,3.936747e-003
1.278594e+003,3.857384e-003
1.280523e+003,3.906805e-003
1.282451e+003,3.954694e-003
1.284380e+003,4.019756e-003
1.286308e+003,4.033603e-003
1.288237e+003,4.113713e-003
1.290166e+003,4.221180e-003
1.292094e+003,4.398292e-003
1.294022e+003,4.576199e-003
1.295951e+003,4.759073e-003
1.297879e+003,4.855603e-003
1.299808e+003,4.956933e-003
1.301736e+003,4.984288e-003
1.303665e+003,5.015416e-003
1.305594e+003,5.015327e-003
1.307522e+003,4.965879e-003
1.309450e+003,4.801709e-003
1.311379e+003,4.657229e-003
1.313307e+003,4.440021e-003
1.315236e+003,4.237531e-003
1.317164e+003,4.025698e-003
1.319093e+003,3.860515e-003
1.321021e+003,3.657887e-003
1.322950e+003,3.526129e-003
1.324878e+003,3.430080e-003
1.326807e+003,3.421096e-003
1.328735e+003,3.368909e-003
1.330664e+003,3.386896e-003
1.332592e+003,3.504720e-003
1.334521e+003,3.681157e-003
1.336449e+003,3.846388e-003
1.338378e+003,4.199304e-003
1.340306e+003,4.497353e-003
1.342235e+003,4.730510e-003
1.344163e+003,4.983665e-003
1.346092e+003,5.352205e-003
1.348021e+003,5.687382e-003
1.349949e+003,6.039917e-003
1.351877e+003,6.218489e-003
1.353806e+003,6.240131e-003
1.355734e+003,6.095711e-003
1.357663e+003,6.067062e-003
1.359591e+003,6.205263e-003
1.361520e+003,6.600142e-003
1.363448e+003,7.088367e-003
1.365377e+003,7.554023e-003
1.367305e+003,7.858356e-003
1.369234e+003,7.786851e-003
1.371162e+003,7.191367e-003
1.373091e+003,6.599395e-003
1.375019e+003,6.114652e-003
1.376948e+003,5.738407e-003
1.378876e+003,5.037904e-003
1.380805e+003,4.305083e-003
1.382733e+003,3.741315e-003
1.384662e+003,3.523052e-003
1.386590e+003,3.387563e-003
1.388519e+003,3.351042e-003
1.390447e+003,3.219653e-003
1.392376e+003,3.265627e-003
1.394304e+003,3.288103e-003
1.396233e+003,3.406590e-003
1.398161e+003,3.384389e-003
1.400090e+003,3.551049e-003
1.402018e+003,3.496723e-003
1.403947e+003,3.637517e-003
1.405875e+003,3.718147e-003
1.407804e+003,3.865417e-003
1.409732e+003,3.943801e-003
1.411661e+003,4.175222e-003
1.413589e+003,4.265022e-003
1.415518e+003,4.520757e-003
1.417446e+003,4.681159e-003
1.419375e+003,5.241228e-003
1.421303e+003,5.417965e-003
1.423232e+003,5.994836e-003
1.425160e+003,6.790189e-003
1.427089e+003,7.732829e-003
1.429017e+003,8.871837e-003
1.430946e+003,1.051248e-002
1.432874e+003,1.173951e-002
1.434803e+003,1.294256e-002
1.436731e+003,1.425647e-002
1.438660e+003,1.539606e-002
1.440588e+003,1.597255e-002
1.442517e+003,1.694152e-002
1.444445e+003,1.760541e-002
1.446374e+003,1.868998e-002
1.448302e+003,2.019947e-002
1.450231e+003,2.257455e-002
1.452159e+003,2.625680e-002
1.454088e+003,3.139124e-002
1.456016e+003,3.755504e-002
1.457945e+003,5.956572e-002
1.459873e+003,9.835671e-002
1.461802e+003,1.255934e-001
1.463730e+003,1.104207e-001
1.465659e+003,7.692711e-002
1.467587e+003,7.484989e-002
1.469516e+003,8.596392e-002
1.471444e+003,1.148439e-001
1.473373e+003,1.076099e-001
1.475301e+003,5.399786e-002
1.477230e+003,1.976738e-002
1.479158e+003,1.042866e-002
1.481087e+003,6.736925e-003
1.483015e+003,5.243409e-003
1.484944e+003,4.114697e-003
1.486872e+003,3.978578e-003
1.488801e+003,3.349047e-003
1.490729e+003,3.387552e-003
1.492658e+003,2.742723e-003
1.494586e+003,2.802450e-003
1.496515e+003,2.431838e-003
1.498443e+003,2.505969e-003
1.500372e+003,2.092026e-003
1.502300e+003,2.076160e-003
1.504229e+003,1.825038e-003
1.506157e+003,2.543496e-003
1.508086e+003,2.132077e-003
1.510014e+003,1.996398e-003
1.511943e+003,1.656922e-003
1.513871e+003,1.744274e-003
1.515800e+003,1.659516e-003
1.517728e+003,1.909124e-003
1.519657e+003,1.720555e-003
1.521585e+003,2.143677e-003
1.523514e+003,1.723221e-003
1.525442e+003,1.761829e-003
1.527371e+003,1.578880e-003
1.529299e+003,1.597866e-003
1.531228e+003,1.419246e-003
1.533156e+003,1.657756e-003
1.535085e+003,1.536058e-003
1.537013e+003,1.549503e-003
1.538942e+003,1.662195e-003
1.540870e+003,2.283378e-003
1.542799e+003,1.718597e-003
1.544727e+003,1.661820e-003
1.546656e+003,1.399331e-003
1.548584e+003,1.417913e-003
1.550513e+003,1.414550e-003
1.552441e+003,1.481403e-003
1.554370e+003,1.433255e-003
1.556298e+003,1.550769e-003
1.558227e+003,1.728889e-003
1.560155e+003,1.710175e-003
1.562084e+003,1.242606e-003
1.564012e+003,1.253199e-003
1.565941e+003,1.181090e-003
1.567869e+003,1.297947e-003
1.569798e+003,1.345458e-003
1.571726e+003,1.227941e-003
1.573655e+003,1.069998e-003
1.575583e+003,1.408022e-003
1.577512e+003,1.409162e-003
1.579440e+003,1.251729e-003
1.581369e+003,1.195805e-003
1.583297e+003,1.270030e-003
1.585226e+003,1.235522e-003
1.587154e+003,1.258876e-003
1.589083e+003,1.209574e-003
1.591011e+003,1.271037e-003
1.592940e+003,1.229336e-003
1.594868e+003,1.223775e-003
1.596797e+003,1.140429e-003
1.598725e+003,1.188967e-003
1.600654e+003,1.130804e-003
1.602582e+003,1.188900e-003
1.604511e+003,1.142655e-003
1.606439e+003,1.144961e-003
1.608368e+003,1.099177e-003
1.610296e+003,1.155378e-003
1.612225e+003,1.099940e-003
1.614153e+003,1.132384e-003
1.616082e+003,1.236631e-003
1.618010e+003,1.431502e-003
1.619939e+003,1.268875e-003
1.621867e+003,1.272505e-003
1.623796e+003,1.324842e-003
1.625724e+003,1.354760e-003
1.627653e+003,1.382440e-003
1.629581e+003,1.442183e-003
1.631510e+003,1.405535e-003
1.633438e+003,1.510998e-003
1.635367e+003,1.686478e-003
1.637295e+003,1.971383e-003
1.639224e+003,1.949020e-003
1.641152e+003,1.985537e-003
1.643081e+003,1.823273e-003
1.645009e+003,1.774630e-003
1.646938e+003,1.747550e-003
1.648866e+003,1.615139e-003
1.650795e+003,1.429494e-003
1.652723e+003,1.951199e-003
1.654652e+003,1.639452e-003
1.656580e+003,1.343284e-003
1.658509e+003,1.195557e-003
1.660437e+003,1.158347e-003
1.662366e+003,1.153104e-003
1.664294e+003,1.183132e-003
1.666223e+003,1.047054e-003
1.668151e+003,1.160733e-003
1.670080e+003,1.181312e-003
1.672008e+003,1.006143e-003
1.673937e+003,7.913765e-004
1.675865e+003,8.960366e-004
1.677794e+003,7.685013e-004
1.679722e+003,7.607937e-004
1.681651e+003,7.339250e-004
1.683579e+003,1.063846e-003
1.685508e+003,8.517485e-004
1.687436e+003,6.304327e-004
1.689365e+003,4.963316e-004
1.691293e+003,4.366804e-004
1.693222e+003,2.992153e-004
1.695150e+003,4.327931e-004
1.697079e+003,4.627425e-004
1.699007e+003,5.203076e-004
1.700936e+003,7.071625e-004
1.702864e+003,5.452987e-004
1.704793e+003,4.752316e-004
1.706721e+003,5.808547e-004
1.708650e+003,4.355907e-004
1.710578e+003,4.700944e-004
1.712507e+003,4.833303e-004
1.714435e+003,6.369054e-004
1.716364e+003,7.862486e-004
1.718292e+003,9.760763e-004
1.720221e+003,7.027965e-004
1.722149e+003,6.629713e-004
1.724078e+003,7.329509e-004
1.726006e+003,8.195639e-004
1.727935e+003,8.641705e-004
1.729863e+003,1.040921e-003
1.731792e+003,1.110401e-003
1.733720e+003,1.469277e-003
1.735649e+003,1.344943e-003
1.737577e+003,1.249984e-003
1.739506e+003,1.295689e-003
1.741434e+003,1.254011e-003
1.743363e+003,1.086989e-003
1.745291e+003,9.449031e-004
1.747220e+003,7.435866e-004
1.749148e+003,6.258059e-004
1.751077e+003,4.379526e-004
1.753005e+003,2.011396e-004
1.754934e+003,-3.157370e-005
1.756862e+003,-3.236346e-005
1.758791e+003,-2.088565e-004
1.760719e+003,-2.384745e-004
1.762648e+003,-3.292691e-004
1.764576e+003,-4.105568e-004
1.766505e+003,-4.321337e-004
1.768433e+003,-3.225356e-004
1.770362e+003,-3.580172e-004
1.772290e+003,-2.814382e-004
1.774219e+003,-5.728304e-004
1.776147e+003,-6.664470e-004
1.778076e+003,-6.710868e-004
1.780004e+003,-5.510580e-004
1.781933e+003,-6.303228e-004
1.783861e+003,-7.037930e-004
1.785790e+003,-7.236172e-004
1.787718e+003,-6.815623e-004
1.789646e+003,-7.246081e-004
1.791575e+003,-4.837103e-004
1.793504e+003,-5.392376e-004
1.795432e+003,-5.852077e-004
1.797361e+003,-6.780103e-004
1.799289e+003,-6.008018e-004
1.801218e+003,-5.938988e-004
1.803146e+003,-6.545242e-004
1.805074e+003,-8.096974e-004
1.807003e+003,-8.822344e-004
1.808932e+003,-9.334944e-004
1.810860e+003,-9.409599e-004
1.812789e+003,-1.180774e-003
1.814717e+003,-1.353767e-003
1.816646e+003,-1.484567e-003
1.818574e+003,-1.243027e-003
1.820502e+003,-1.103556e-003
1.822431e+003,-9.716172e-004
1.824360e+003,-9.293687e-004
1.826288e+003,-9.061247e-004
1.828217e+003,-1.106972e-003
1.830145e+003,-1.170184e-003
1.832073e+003,-1.348553e-003
1.834002e+003,-1.315070e-003
1.835931e+003,-1.358677e-003
1.837859e+003,-1.301508e-003
1.839788e+003,-1.411203e-003
1.841716e+003,-1.292082e-003
1.843645e+003,-1.181321e-003
1.845573e+003,-1.136303e-003
1.847501e+003,-1.285959e-003
1.849430e+003,-1.297994e-003
1.851359e+003,-1.509534e-003
1.853287e+003,-1.425082e-003
1.855216e+003,-1.363184e-003
1.857144e+003,-1.444353e-003
1.859073e+003,-1.559878e-003
1.861001e+003,-1.339003e-003
1.862929e+003,-1.626140e-003
1.864858e+003,-1.651306e-003
1.866787e+003,-1.520555e-003
1.868715e+003,-1.241613e-003
1.870644e+003,-1.320906e-003
1.872572e+003,-1.193544e-003
1.874500e+003,-1.260310e-003
1.876429e+003,-1.303969e-003
1.878357e+003,-1.481188e-003
1.880286e+003,-1.523504e-003
1.882215e+003,-1.597835e-003
1.884143e+003,-1.314998e-003
1.886072e+003,-1.267264e-003
1.888000e+003,-1.126768e-003
1.889928e+003,-1.027461e-003
1.891857e+003,-8.724649e-004
1.893785e+003,-8.376855e-004
1.895714e+003,-6.106254e-004
1.897643e+003,-6.156452e-004
1.899571e+003,-4.256330e-004
1.901500e+003,-4.213508e-004
1.903428e+003,-4.170705e-004
1.905356e+003,-4.127920e-004
1.907285e+003,-4.085191e-004
1.909213e+003,-4.042480e-004
1.911142e+003,-3.999751e-004
1.913071e+003,-3.957078e-004
1.914999e+003,-3.914405e-004
1.916927e+003,-3.871769e-004
1.918856e+003,-3.829133e-004
1.920784e+003,-3.786534e-004
1.922713e+003,-3.743973e-004
1.924641e+003,-3.701430e-004
1.926570e+003,-3.658868e-004
1.928499e+003,-3.616381e-004
1.930427e+003,-3.573857e-004
1.932355e+003,-3.531408e-004
1.934284e+003,-3.488958e-004
1.936212e+003,-3.446545e-004
1.938141e+003,-3.404133e-004
1.940070e+003,-3.361739e-004
1.941998e+003,-3.319383e-004
1.943927e+003,-3.277045e-004
1.945855e+003,-3.234725e-004
1.947783e+003,-3.192425e-004
1.949712e+003,-3.150161e-004
1.951640e+003,-3.107898e-004
1.953569e+003,-3.065690e-004
1.955498e+003,-3.023446e-004
1.957426e+003,-2.981257e-004
1.959354e+003,-2.939105e-004
1.961283e+003,-2.896953e-004
1.963211e+003,-2.854820e-004
1.965140e+003,-2.812743e-004
1.967068e+003,-2.770666e-004
1.968997e+003,-2.728608e-004
1.970926e+003,-2.686568e-004
1.972854e+003,-2.644546e-004
1.974782e+003,-2.602544e-004
1.976711e+003,-2.560616e-004
1.978639e+003,-2.518632e-004
1.980568e+003,-2.476722e-004
1.982496e+003,-2.434812e-004
1.984425e+003,-2.392922e-004
1.986354e+003,-2.351049e-004
1.988282e+003,-2.309214e-004
1.990210e+003,-2.267417e-004
1.992139e+003,-2.225600e-004
1.994067e+003,-2.183821e-004
1.995996e+003,-2.142079e-004
1.997924e+003,-2.100337e-004
1.999853e+003,-2.058614e-004
2.001781e+003,-2.016928e-004
2.003710e+003,-1.975279e-004
2.005638e+003,-1.933649e-004
2.007567e+003,-1.891982e-004
2.009495e+003,-1.850408e-004
2.011424e+003,-1.808815e-004
2.013352e+003,-1.767240e-004
2.015281e+003,-1.725703e-004
2.017209e+003,-1.684222e-004
2.019138e+003,-1.642704e-004
2.021066e+003,-1.601242e-004
2.022995e+003,-1.559779e-004
2.024923e+003,-1.518317e-004
2.026852e+003,-1.476929e-004
2.028781e+003,-1.435522e-004
2.030709e+003,-1.394153e-004
2.032637e+003,-1.352821e-004
2.034566e+003,-1.311526e-004
2.036494e+003,-1.270194e-004
2.038423e+003,-1.228917e-004
2.040351e+003,-1.187660e-004
2.042280e+003,-1.146439e-004
2.044208e+003,-1.105200e-004
2.046137e+003,-1.064036e-004
2.048065e+003,-1.022834e-004
2.049994e+003,-9.817071e-005
2.051922e+003,-9.405985e-005
2.053851e+003,-8.994341e-005
2.055779e+003,-8.583628e-005
2.057708e+003,-8.172914e-005
2.059636e+003,-7.762946e-005
2.061565e+003,-7.352419e-005
2.063493e+003,-6.942824e-005
2.065422e+003,-6.533042e-005
2.067350e+003,-6.123632e-005
2.069279e+003,-5.713850e-005
2.071207e+003,-5.304627e-005
2.073136e+003,-4.895963e-005
2.075064e+003,-4.487112e-005
2.076993e+003,-4.079007e-005
2.078921e+003,-3.670529e-005
2.080850e+003,-3.262796e-005
2.082778e+003,-2.855062e-005
2.084707e+003,-2.446957e-005
2.086635e+003,-2.039783e-005
2.088564e+003,-1.632422e-005
2.090492e+003,-1.225621e-005
2.092421e+003,-8.186325e-006
2.094349e+003,-4.123896e-006
2.096278e+003,-5.960464e-008
2.098206e+003,4.002824e-006
2.100135e+003,8.061528e-006
2.102063e+003,1.211651e-005
2.103992e+003,1.617149e-005
2.105920e+003,2.022274e-005
2.107849e+003,2.427213e-005
2.109777e+003,2.831966e-005
2.111706e+003,3.236532e-005
2.113634e+003,3.641099e-005
2.115563e+003,4.045293e-005
2.117491e+003,4.449300e-005
2.119420e+003,4.852749e-005
2.121348e+003,5.256198e-005
2.123277e+003,5.659461e-005
2.125205e+003,6.062537e-005
2.127134e+003,6.465428e-005
2.129062e+003,6.868318e-005
2.130991e+003,7.270649e-005
2.132919e+003,7.672794e-005
2.134848e+003,8.074567e-005
2.136776e+003,8.476526e-005
2.138705e+003,8.877739e-005
2.140633e+003,9.279326e-005
2.142562e+003,9.680726e-005
2.144490e+003,1.008138e-004
2.146419e+003,1.048222e-004
2.148347e+003,1.088250e-004
2.150276e+003,1.128279e-004
2.152204e+003,1.168288e-004
2.154133e+003,1.208261e-004
2.156061e+003,1.248270e-004
2.157990e+003,1.288187e-004
2.159918e+003,1.328066e-004
2.161847e+003,1.367982e-004
2.163775e+003,1.407843e-004
2.165704e+003,1.447666e-004
2.167632e+003,1.487527e-004
2.169561e+003,1.527313e-004
2.171489e+003,1.567118e-004
2.173418e+003,1.606885e-004
2.175346e+003,1.646634e-004
2.177275e+003,1.686346e-004
2.179203e+003,1.726076e-004
2.181132e+003,1.765750e-004
2.183060e+003,1.805406e-004
2.184989e+003,1.845025e-004
2.186917e+003,1.884643e-004
2.188846e+003,1.924261e-004
2.190774e+003,1.963805e-004
2.192703e+003,2.003368e-004
2.194631e+003,2.042875e-004
2.196560e+003,2.082400e-004
2.198488e+003,2.121851e-004
2.200417e+003,2.161339e-004
2.202345e+003,2.200790e-004
2.204274e+003,2.240222e-004
2.206202e+003,2.279598e-004
2.208131e+003,2.318993e-004
2.210059e+003,2.358351e-004
2.211988e+003,2.397653e-004
2.213916e+003,2.436955e-004
2.215845e+003,2.476238e-004
2.217773e+003,2.515540e-004
2.219702e+003,2.554785e-004
2.221630e+003,2.594013e-004
2.223559e+003,2.633203e-004
2.225487e+003,2.672374e-004
2.227416e+003,2.711546e-004
2.229344e+003,2.750680e-004
2.231273e+003,2.789833e-004
2.233201e+003,2.828911e-004
2.235130e+003,2.867989e-004
2.237058e+003,2.907030e-004
2.238987e+003,2.946071e-004
2.240915e+003,2.985019e-004
2.242844e+003,3.024042e-004
2.244772e+003,3.063008e-004
2.246701e+003,3.101975e-004
2.248629e+003,3.140885e-004
2.250558e+003,3.179796e-004
2.252486e+003,3.218688e-004
2.254415e+003,3.257524e-004
2.256343e+003,3.296342e-004
2.258272e+003,3.335159e-004
2.260200e+003,3.373940e-004
2.262129e+003,3.412738e-004
2.264057e+003,3.451500e-004
2.265986e+003,3.490206e-004
2.267914e+003,3.528912e-004
2.269843e+003,3.567580e-004
2.271771e+003,3.606267e-004
2.273700e+003,3.644899e-004
2.275628e+003,3.683530e-004
2.277557e+003,3.722142e-004
2.279485e+003,3.760718e-004
2.281414e+003,3.799275e-004
2.283342e+003,3.837775e-004
2.285271e+003,3.876295e-004
2.287199e+003,3.914777e-004
2.289128e+003,3.953297e-004
2.291056e+003,3.991723e-004
2.292985e+003,4.030131e-004
2.294913e+003,4.068520e-004
2.296842e+003,4.106890e-004
2.298770e+003,4.145261e-004
2.300699e+003,4.183613e-004
2.302627e+003,4.221965e-004
2.304556e+003,4.260242e-004
2.306484e+003,4.298519e-004
2.308413e+003,4.336741e-004
2.310341e+003,4.374981e-004
2.312270e+003,4.413184e-004
2.314198e+003,4.451368e-004
2.316127e+003,4.489534e-004
2.318055e+003,4.527681e-004
2.319984e+003,4.565828e-004
2.321912e+003,4.603937e-004
2.323841e+003,4.641972e-004
2.325769e+003,4.680045e-004
2.327698e+003,4.718099e-004
2.329626e+003,4.756097e-004
2.331555e+003,4.794076e-004
2.333483e+003,4.832074e-004
2.335412e+003,4.870035e-004
2.337340e+003,4.907921e-004
2.339269e+003,4.945844e-004
2.341197e+003,4.983731e-004
2.343126e+003,5.021580e-004
2.345054e+003,5.059410e-004
2.346983e+003,5.097277e-004
2.348911e+003,5.135052e-004
2.350840e+003,5.172845e-004
2.352768e+003,5.210601e-004
2.354697e+003,5.248319e-004
2.356625e+003,5.286019e-004
2.358554e+003,5.323701e-004
2.360482e+003,5.361382e-004
2.362411e+003,5.399026e-004
2.364339e+003,5.436689e-004
2.366268e+003,5.474258e-004
2.368196e+003,5.511846e-004
2.370125e+003,5.549379e-004
2.372053e+003,5.586930e-004
2.373982e+003,5.624425e-004
2.375910e+003,5.661938e-004
2.377839e+003,5.699433e-004
2.379767e+003,5.736891e-004
2.381696e+003,5.774312e-004
2.383624e+003,5.811695e-004
2.385553e+003,5.849097e-004
2.387481e+003,5.886480e-004
2.389410e+003,5.923808e-004
2.391338e+003,5.961135e-004
2.393267e+003,5.998462e-004
2.395195e+003,6.035734e-004
2.397124e+003,6.072950e-004
2.399052e+003,6.110203e-004
2.400981e+003,6.047711e-004
2.402909e+003,5.246438e-004
2.404838e+003,6.268844e-004
2.406766e+003,8.615758e-004
2.408695e+003,1.054553e-003
2.410623e+003,9.942241e-004
2.412552e+003,1.049025e-003
2.414480e+003,1.045169e-003
2.416409e+003,1.020655e-003
2.418337e+003,1.038481e-003
2.420266e+003,1.111660e-003
2.422194e+003,1.037866e-003
2.424123e+003,1.063675e-003
2.426051e+003,1.088597e-003
2.427979e+003,1.116212e-003
2.429908e+003,1.077019e-003
2.431837e+003,1.010664e-003
2.433765e+003,9.496920e-004
2.435694e+003,1.144189e-003
2.437622e+003,1.206640e-003
2.439551e+003,1.215499e-003
2.441479e+003,1.124233e-003
2.443407e+003,1.170848e-003
2.445336e+003,1.247685e-003
2.447265e+003,1.388788e-003
2.449193e+003,1.431089e-003
2.451122e+003,1.464821e-003
2.453050e+003,1.604926e-003
2.454979e+003,1.660477e-003
2.456907e+003,1.588788e-003
2.458836e+003,1.575641e-003
2.460764e+003,1.614954e-003
2.462693e+003,1.618370e-003
2.464621e+003,1.605526e-003
2.466550e+003,1.703445e-003
2.468478e+003,1.835860e-003
2.470406e+003,1.904380e-003
2.472335e+003,1.844414e-003
2.474264e+003,1.780629e-003
2.476192e+003,1.780231e-003
2.478121e+003,1.890142e-003
2.480049e+003,2.049904e-003
2.481978e+003,2.038650e-003
2.483906e+003,1.905918e-003
2.485835e+003,1.916613e-003
2.487763e+003,1.925692e-003
2.489692e+003,2.042986e-003
2.491620e+003,2.179973e-003
2.493549e+003,2.330478e-003
2.495477e+003,2.328008e-003
2.497406e+003,2.358239e-003
2.499334e+003,2.481610e-003
2.501263e+003,2.568550e-003
2.503191e+003,2.434164e-003
2.505120e+003,2.405230e-003
2.507048e+003,2.375044e-003
2.508977e+003,2.446745e-003
2.510905e+003,2.541929e-003
2.512833e+003,2.685826e-003
2.514762e+003,2.679966e-003
2.516691e+003,2.691824e-003
2.518619e+003,2.862602e-003
2.520548e+003,3.145892e-003
2.522476e+003,3.264043e-003
2.524405e+003,3.427841e-003
2.526333e+003,3.479715e-003
2.528261e+003,3.429864e-003
2.530190e+003,3.399320e-003
2.532119e+003,3.380254e-003
2.534047e+003,3.291409e-003
2.535976e+003,3.346343e-003
2.537904e+003,3.428459e-003
2.539833e+003,3.597829e-003
2.541761e+003,3.668852e-003
2.543689e+003,3.826912e-003
2.545618e+003,3.942937e-003
2.547547e+003,3.991153e-003
2.549475e+003,4.015692e-003
2.551404e+003,4.136380e-003
2.553332e+003,4.114680e-003
2.555260e+003,4.200600e-003
2.557189e+003,4.285589e-003
2.559117e+003,4.325110e-003
2.561046e+003,4.383892e-003
2.562975e+003,4.504755e-003
2.564903e+003,4.657961e-003
2.566832e+003,4.770063e-003
2.568760e+003,4.827831e-003
2.570688e+003,4.993528e-003
2.572617e+003,5.144134e-003
2.574546e+003,5.256318e-003
2.576474e+003,5.444463e-003
2.578403e+003,5.700026e-003
2.580331e+003,5.763490e-003
2.582260e+003,5.954158e-003
2.584188e+003,6.116573e-003
2.586116e+003,6.197691e-003
2.588045e+003,6.347302e-003
2.589974e+003,6.639112e-003
2.591902e+003,6.829165e-003
2.593831e+003,6.956186e-003
2.595759e+003,7.101316e-003
2.597688e+003,7.319018e-003
2.599616e+003,7.471789e-003
2.601544e+003,7.523615e-003
2.603473e+003,7.653590e-003
2.605402e+003,7.837649e-003
2.607330e+003,8.069754e-003
2.609259e+003,8.394428e-003
2.611187e+003,8.746237e-003
2.613115e+003,9.059016e-003
2.615044e+003,9.304024e-003
2.616972e+003,9.548984e-003
2.618901e+003,9.727906e-003
2.620830e+003,1.001265e-002
2.622758e+003,1.034798e-002
2.624687e+003,1.070802e-002
2.626615e+003,1.109021e-002
2.628543e+003,1.146682e-002
2.630472e+003,1.179420e-002
2.632400e+003,1.207475e-002
2.634329e+003,1.218947e-002
2.636258e+003,1.224361e-002
2.638186e+003,1.228926e-002
2.640115e+003,1.229835e-002
2.642043e+003,1.225569e-002
2.643971e+003,1.218530e-002
2.645900e+003,1.224985e-002
2.647828e+003,1.235647e-002
2.649757e+003,1.244680e-002
2.651686e+003,1.254245e-002
2.653614e+003,1.269645e-002
2.655542e+003,1.283043e-002
2.657471e+003,1.283804e-002
2.659399e+003,1.284336e-002
2.661328e+003,1.275675e-002
2.663256e+003,1.248967e-002
2.665185e+003,1.220792e-002
2.667114e+003,1.200021e-002
2.669042e+003,1.183452e-002
2.670970e+003,1.167073e-002
2.672899e+003,1.150247e-002
2.674827e+003,1.140172e-002
2.676756e+003,1.135798e-002
2.678685e+003,1.130551e-002
2.680613e+003,1.126375e-002
2.682542e+003,1.123992e-002
2.684470e+003,1.117156e-002
2.686398e+003,1.113799e-002
2.688327e+003,1.119463e-002
2.690255e+003,1.122947e-002
2.692184e+003,1.125776e-002
2.694113e+003,1.137443e-002
2.696041e+003,1.145679e-002
2.697969e+003,1.160294e-002
2.699898e+003,1.176306e-002
2.701826e+003,1.190432e-002
2.703755e+003,1.209388e-002
2.705683e+003,1.231701e-002
2.707612e+003,1.246018e-002
2.709541e+003,1.260917e-002
2.711469e+003,1.277912e-002
2.713397e+003,1.294351e-002
2.715326e+003,1.306663e-002
2.717254e+003,1.325892e-002
2.719183e+003,1.350292e-002
2.721111e+003,1.375612e-002
2.723040e+003,1.396017e-002
2.724969e+003,1.418643e-002
2.726897e+003,1.439665e-002
2.728825e+003,1.462282e-002
2.730754e+003,1.491046e-002
2.732682e+003,1.519468e-002
2.734611e+003,1.545968e-002
2.736539e+003,1.569453e-002
2.738468e+003,1.588105e-002
2.740396e+003,1.603478e-002
2.742325e+003,1.615789e-002
2.744253e+003,1.624367e-002
2.746182e+003,1.635377e-002
2.748110e+003,1.646212e-002
2.750039e+003,1.663472e-002
2.751967e+003,1.684755e-002
2.753896e+003,1.710787e-002
2.755824e+003,1.744585e-002
2.757753e+003,1.778312e-002
2.759681e+003,1.822971e-002
2.761610e+003,1.867208e-002
2.763538e+003,1.904632e-002
2.765467e+003,1.945175e-002
2.767395e+003,1.995288e-002
2.769324e+003,2.048812e-002
2.771252e+003,2.104298e-002
2.773181e+003,2.164322e-002
2.775109e+003,2.236375e-002
2.777038e+003,2.312430e-002
2.778966e+003,2.399648e-002
2.780895e+003,2.489215e-002
2.782823e+003,2.587781e-002
2.784752e+003,2.696234e-002
2.786680e+003,2.812681e-002
2.788609e+003,2.943462e-002
2.790537e+003,3.082396e-002
2.792466e+003,3.216224e-002
2.794394e+003,3.353620e-002
2.796323e+003,3.493630e-002
2.798251e+003,3.637978e-002
2.800180e+003,3.797597e-002
2.802108e+003,3.966344e-002
2.804037e+003,4.143652e-002
2.805965e+003,4.344917e-002
2.807894e+003,4.573166e-002
2.809822e+003,4.821305e-002
2.811751e+003,5.105142e-002
2.813679e+003,5.430854e-002
2.815608e+003,5.800381e-002
2.817536e+003,6.224053e-002
2.819465e+003,6.714213e-002
2.821393e+003,7.294819e-002
2.823322e+003,7.989512e-002
2.825250e+003,8.839373e-002
2.827179e+003,9.886188e-002
2.829107e+003,1.118185e-001
2.831036e+003,1.281890e-001
2.832964e+003,1.492188e-001
2.834893e+003,1.770534e-001
2.836821e+003,2.145859e-001
2.838750e+003,2.663803e-001
2.840678e+003,3.392863e-001
2.842607e+003,4.395278e-001
2.844535e+003,5.606358e-001
2.846464e+003,6.563579e-001
2.848392e+003,6.437414e-001
2.850321e+003,5.213641e-001
2.852249e+003,3.827025e-001
2.854178e+003,2.801673e-001
2.856106e+003,2.108254e-001
2.858035e+003,1.631085e-001
2.859963e+003,1.304599e-001
2.861892e+003,1.089828e-001
2.863820e+003,9.566907e-002
2.865749e+003,8.830978e-002
2.867677e+003,8.555010e-002
2.869606e+003,8.636981e-002
2.871534e+003,9.037353e-002
2.873463e+003,9.772944e-002
2.875391e+003,1.085408e-001
2.877320e+003,1.224727e-001
2.879248e+003,1.386479e-001
2.881177e+003,1.560690e-001
2.883105e+003,1.742043e-001
2.885034e+003,1.926901e-001
2.886962e+003,2.112022e-001
2.888891e+003,2.296291e-001
2.890819e+003,2.480196e-001
2.892748e+003,2.661669e-001
2.894676e+003,2.839734e-001
2.896605e+003,3.019338e-001
2.898533e+003,3.209509e-001
2.900462e+003,3.423744e-001
2.902390e+003,3.686501e-001
2.904319e+003,4.029833e-001
2.906247e+003,4.493773e-001
2.908176e+003,5.114846e-001
2.910104e+003,5.897083e-001
2.912033e+003,6.735774e-001
2.913961e+003,7.292935e-001
2.915890e+003,7.180522e-001
2.917818e+003,6.445479e-001
2.919747e+003,5.490272e-001
2.921675e+003,4.584142e-001
2.923604e+003,3.807075e-001
2.925532e+003,3.170143e-001
2.927461e+003,2.650459e-001
2.929389e+003,2.214299e-001
2.931318e+003,1.841365e-001
2.933246e+003,1.523283e-001
2.935175e+003,1.254203e-001
2.937103e+003,1.027343e-001
2.939032e+003,8.375865e-002
2.940960e+003,6.814285e-002
2.942889e+003,5.556739e-002
2.944817e+003,4.575109e-002
2.946746e+003,3.838666e-002
2.948674e+003,3.290376e-002
2.950603e+003,2.876359e-002
2.952531e+003,2.535657e-002
2.954460e+003,2.232072e-002
2.956388e+003,1.972715e-002
2.958317e+003,1.751093e-002
2.960245e+003,1.549042e-002
2.962174e+003,1.347599e-002
2.964102e+003,1.154504e-002
2.966031e+003,9.759534e-003
2.967959e+003,8.257691e-003
2.969888e+003,6.917670e-003
2.971816e+003,5.817164e-003
2.973745e+003,4.922431e-003
2.975673e+003,4.129268e-003
2.977602e+003,3.386892e-003
2.979530e+003,2.824731e-003
2.981459e+003,2.334308e-003
2.983387e+003,1.892962e-003
2.985316e+003,1.512039e-003
2.987244e+003,1.211394e-003
2.989173e+003,9.844042e-004
2.991101e+003,8.162521e-004
2.993030e+003,6.042868e-004
2.994958e+003,4.216135e-004
2.996887e+003,3.703982e-004
2.998815e+003,2.996810e-004
3.000744e+003,1.588576e-004
3.002672e+003,1.036972e-004
3.004601e+003,8.288771e-005
3.006529e+003,3.220141e-005
3.008458e+003,-6.553903e-005
3.010386e+003,-1.325123e-004
3.012315e+003,-1.336187e-004
3.014243e+003,-1.105741e-004
3.016172e+003,-1.215488e-004
3.018100e+003,-9.693205e-005
3.020029e+003,-1.202784e-004
3.021957e+003,-1.590252e-004
3.023886e+003,-1.283213e-004
3.025814e+003,-3.493577e-005
3.027743e+003,-9.922683e-005
3.029671e+003,-1.200959e-004
3.031600e+003,-1.033656e-004
3.033528e+003,-1.555160e-004
3.035457e+003,-2.237819e-004
3.037385e+003,-3.370829e-004
3.039314e+003,-4.308373e-004
3.041242e+003,-5.121566e-004
3.043171e+003,-6.695241e-004
3.045099e+003,-7.957257e-004
3.047028e+003,-9.286255e-004
3.048956e+003,-9.508096e-004
3.050885e+003,-1.009528e-003
3.052813e+003,-1.104213e-003
3.054742e+003,-1.161646e-003
3.056670e+003,-1.214989e-003
3.058599e+003,-1.294661e-003
3.060527e+003,-1.225639e-003
3.062456e+003,-1.197416e-003
3.064384e+003,-1.188081e-003
3.066313e+003,-1.213100e-003
3.068241e+003,-1.233354e-003
3.070170e+003,-1.214091e-003
3.072098e+003,-1.159951e-003
3.074027e+003,-1.204625e-003
3.075955e+003,-1.271151e-003
3.077884e+003,-1.289114e-003
3.079812e+003,-1.201116e-003
3.081741e+003,-1.223050e-003
3.083669e+003,-1.338419e-003
3.085598e+003,-1.439422e-003
3.087526e+003,-1.443043e-003
3.089455e+003,-1.466881e-003
3.091383e+003,-1.518033e-003
3.093312e+003,-1.633938e-003
3.095240e+003,-1.840960e-003
3.097169e+003,-2.074368e-003
3.099097e+003,-2.263602e-003
3.101026e+003,-2.398580e-003
3.102954e+003,-2.456833e-003
3.104883e+003,-2.454482e-003
3.106811e+003,-2.520762e-003
3.108740e+003,-2.658870e-003
3.110668e+003,-2.645750e-003
3.112597e+003,-2.588857e-003
3.114525e+003,-2.645437e-003
3.116454e+003,-2.699964e-003
3.118382e+003,-2.673790e-003
3.120311e+003,-2.702598e-003
3.122239e+003,-2.733462e-003
3.124168e+003,-2.575416e-003
3.126096e+003,-2.482392e-003
3.128025e+003,-2.621368e-003
3.129953e+003,-2.656963e-003
3.131882e+003,-2.651352e-003
3.133810e+003,-2.626110e-003
3.135739e+003,-2.521854e-003
3.137667e+003,-2.465315e-003
3.139596e+003,-2.490364e-003
3.141524e+003,-2.500687e-003
3.143453e+003,-2.443291e-003
3.145381e+003,-2.363771e-003
3.147310e+003,-2.364725e-003
3.149238e+003,-2.372440e-003
3.151167e+003,-2.325986e-003
3.153095e+003,-2.240624e-003
3.155024e+003,-2.145376e-003
3.156952e+003,-2.057858e-003
3.158881e+003,-2.043050e-003
3.160809e+003,-2.090115e-003
3.162738e+003,-2.193019e-003
3.164666e+003,-2.204891e-003
3.166594e+003,-2.157912e-003
3.168523e+003,-2.052840e-003
3.170452e+003,-1.916114e-003
3.172380e+003,-1.819074e-003
3.174309e+003,-1.822237e-003
3.176237e+003,-1.861859e-003
3.178166e+003,-1.877941e-003
3.180094e+003,-1.833502e-003
3.182022e+003,-1.766693e-003
3.183951e+003,-1.746971e-003
3.185880e+003,-1.666572e-003
3.187808e+003,-1.589872e-003
3.189737e+003,-1.621082e-003
3.191665e+003,-1.611128e-003
3.193594e+003,-1.552764e-003
3.195522e+003,-1.482461e-003
3.197450e+003,-1.452699e-003
3.199379e+003,-1.440238e-003
3.201308e+003,-1.518711e-003
3.203236e+003,-1.505524e-003
3.205165e+003,-1.314230e-003
3.207093e+003,-1.190227e-003
3.209021e+003,-1.172990e-003
3.210950e+003,-1.181342e-003
3.212878e+003,-1.084507e-003
3.214807e+003,-1.011431e-003
3.216736e+003,-1.104221e-003
3.218664e+003,-1.023620e-003
3.220593e+003,-9.914376e-004
3.222521e+003,-1.020484e-003
3.224449e+003,-1.030780e-003
3.226378e+003,-9.147786e-004
3.228307e+003,-7.929057e-004
3.230235e+003,-7.079877e-004
3.232164e+003,-6.852113e-004
3.234092e+003,-7.635914e-004
3.236021e+003,-7.484369e-004
3.237949e+003,-6.447621e-004
3.239877e+003,-5.971678e-004
3.241806e+003,-6.201304e-004
3.243735e+003,-5.623065e-004
3.245663e+003,-5.362704e-004
3.247592e+003,-5.013496e-004
3.249520e+003,-4.009344e-004
3.251448e+003,-3.203489e-004
3.253377e+003,-2.594069e-004
3.255305e+003,-2.330244e-004
3.257234e+003,-2.088360e-004
3.259163e+003,-1.746193e-004
3.261091e+003,-1.186877e-004
3.263020e+003,-4.934147e-005
3.264948e+003,-2.288073e-005
3.266876e+003,3.545359e-005
3.268805e+003,1.215115e-004
3.270733e+003,1.301467e-004
3.272662e+003,1.335442e-004
3.274591e+003,1.387186e-004
3.276519e+003,1.246855e-004
3.278448e+003,2.364069e-004
3.280376e+003,3.450140e-004
3.282304e+003,3.551282e-004
3.284233e+003,3.907941e-004
3.286161e+003,4.279464e-004
3.288090e+003,4.215091e-004
3.290019e+003,4.368350e-004
3.291947e+003,5.481765e-004
3.293875e+003,4.974082e-004
3.295804e+003,4.943535e-004
3.297732e+003,5.520321e-004
3.299661e+003,6.210320e-004
3.301589e+003,6.023757e-004
3.303518e+003,5.519129e-004
3.305447e+003,6.699525e-004
3.307375e+003,7.322840e-004
3.309303e+003,6.671175e-004
3.311232e+003,6.947219e-004
3.313160e+003,7.941239e-004
3.315089e+003,8.450113e-004
3.317018e+003,7.642247e-004
3.318946e+003,7.298812e-004
3.320875e+003,8.087829e-004
3.322803e+003,8.746274e-004
3.324731e+003,8.825772e-004
3.326660e+003,8.859932e-004
3.328588e+003,9.341538e-004
3.330517e+003,9.762272e-004
3.332446e+003,1.002546e-003
3.334374e+003,9.997636e-004
3.336302e+003,1.027476e-003
3.338231e+003,9.733252e-004
3.340159e+003,8.892529e-004
3.342088e+003,8.952655e-004
3.344016e+003,9.182952e-004
3.345945e+003,9.426996e-004
3.347874e+003,1.025852e-003
3.349802e+003,1.046911e-003
3.351730e+003,9.479225e-004
3.353659e+003,1.023531e-003
3.355587e+003,1.168843e-003
3.357516e+003,1.204804e-003
3.359444e+003,1.169831e-003
3.361373e+003,1.227956e-003
3.363302e+003,1.259401e-003
3.365230e+003,1.269292e-003
3.367158e+003,1.300897e-003
3.369087e+003,1.317486e-003
3.371015e+003,1.338564e-003
3.372944e+003,1.301307e-003
3.374872e+003,1.302470e-003
3.376801e+003,1.224574e-003
3.378729e+003,1.209088e-003
3.380658e+003,1.217909e-003
3.382586e+003,1.152288e-003
3.384515e+003,1.145601e-003
3.386443e+003,1.091648e-003
3.388372e+003,1.122024e-003
3.390300e+003,1.098987e-003
3.392229e+003,1.059711e-003
3.394157e+003,1.107015e-003
3.396086e+003,1.113113e-003
3.398014e+003,1.093123e-003
3.399943e+003,1.110241e-003
3.401871e+003,1.116451e-003
3.403800e+003,1.056705e-003
3.405728e+003,1.021165e-003
3.407657e+003,1.001045e-003
3.409585e+003,9.499602e-004
3.411514e+003,9.258166e-004
3.413442e+003,9.206161e-004
3.415371e+003,9.940602e-004
3.417299e+003,1.029462e-003
3.419228e+003,1.048569e-003
3.421156e+003,1.043875e-003
3.423085e+003,9.953752e-004
3.425013e+003,9.260215e-004
3.426942e+003,9.508170e-004
3.428870e+003,9.688549e-004
3.430799e+003,9.383298e-004
3.432727e+003,1.002509e-003
3.434656e+003,9.861365e-004
3.436584e+003,9.765476e-004
3.438513e+003,1.008466e-003
3.440441e+003,9.735078e-004
3.442370e+003,8.813143e-004
3.444298e+003,7.762201e-004
3.446227e+003,7.804520e-004
3.448155e+003,8.329079e-004
3.450084e+003,7.135905e-004
3.452012e+003,6.030872e-004
3.453941e+003,5.734041e-004
3.455869e+003,6.175786e-004
3.457798e+003,6.622784e-004
3.459726e+003,6.769262e-004
3.461655e+003,6.594807e-004
3.463583e+003,6.546453e-004
3.465512e+003,6.684773e-004
3.467440e+003,5.289242e-004
3.469369e+003,4.156157e-004
3.471297e+003,3.237277e-004
3.473226e+003,3.204495e-004
3.475154e+003,3.376640e-004
3.477083e+003,2.710633e-004
3.479011e+003,2.786517e-004
3.480940e+003,3.752634e-004
3.482868e+003,3.454983e-004
3.484797e+003,1.960322e-004
3.486725e+003,1.737364e-004
3.488654e+003,2.690554e-004
3.490582e+003,2.201088e-004
3.492511e+003,2.108701e-004
3.494439e+003,3.272220e-004
3.496368e+003,1.920089e-004
3.498296e+003,5.963817e-005
3.500225e+003,1.311898e-004
3.502153e+003,2.077185e-004
3.504082e+003,2.094135e-004
3.506010e+003,7.340312e-005
3.507939e+003,1.509860e-005
3.509867e+003,1.332350e-004
3.511796e+003,5.740672e-005
3.513724e+003,-8.055568e-005
3.515653e+003,-1.531020e-004
3.517581e+003,-1.143366e-004
3.519510e+003,-1.124814e-004
3.521438e+003,-8.193031e-005
3.523367e+003,-5.856529e-005
3.525295e+003,-2.780482e-004
3.527224e+003,-2.640299e-004
3.529152e+003,-1.436584e-004
3.531081e+003,-3.148019e-004
3.533009e+003,-3.697947e-004
3.534938e+003,-3.181025e-004
3.536866e+003,-3.292821e-004
3.538795e+003,-4.626624e-004
3.540723e+003,-5.410351e-004
3.542652e+003,-5.185641e-004
3.544580e+003,-4.680455e-004
3.546509e+003,-4.856363e-004
3.548437e+003,-5.106404e-004
3.550366e+003,-5.610697e-004
3.552294e+003,-5.206503e-004
3.554223e+003,-5.369931e-004
3.556151e+003,-6.288663e-004
3.558080e+003,-7.095486e-004
3.560008e+003,-6.761774e-004
3.561937e+003,-6.761514e-004
3.563865e+003,-6.750263e-004
3.565794e+003,-4.286803e-004
3.567722e+003,-2.387054e-004
3.569651e+003,-4.939549e-004
3.571579e+003,-7.036813e-004
3.573508e+003,-7.959902e-004
3.575436e+003,-8.104220e-004
3.577365e+003,-8.226857e-004
3.579293e+003,-7.664189e-004
3.581222e+003,-6.812923e-004
3.583150e+003,-6.828904e-004
3.585079e+003,-6.686188e-004
3.587007e+003,-2.791435e-004
3.588936e+003,-8.675829e-005
3.590864e+003,-3.868304e-004
3.592793e+003,-5.087815e-004
3.594721e+003,-1.121089e-004
3.596650e+003,1.825616e-004
3.598578e+003,4.131682e-004
3.600507e+003,7.434115e-004
3.602435e+003,7.949881e-004
3.604364e+003,6.682500e-004
3.606292e+003,4.684478e-004
3.608221e+003,5.235113e-004
3.610149e+003,4.823618e-004
3.612078e+003,3.789626e-004
3.614006e+003,4.217327e-004
3.615935e+003,1.367033e-004
3.617863e+003,2.038479e-005
3.619792e+003,1.328550e-004
3.621720e+003,-1.366846e-004
3.623649e+003,-3.831349e-004
3.625577e+003,-6.361082e-004
3.627506e+003,-4.278757e-004
3.629434e+003,3.961921e-004
3.631363e+003,9.641796e-005
3.633291e+003,-4.806742e-005
3.635220e+003,-2.342463e-005
3.637148e+003,-1.097247e-004
3.639077e+003,-1.907758e-004
3.641005e+003,-7.782131e-005
3.642934e+003,6.743148e-005
3.644862e+003,3.167242e-005
3.646791e+003,1.678169e-004
3.648719e+003,6.432831e-004
3.650648e+003,9.421855e-004
3.652576e+003,3.266707e-004
3.654505e+003,-4.310161e-005
3.656433e+003,2.315864e-004
3.658362e+003,6.429479e-005
3.660290e+003,-2.150834e-004
3.662219e+003,-4.012212e-004
3.664147e+003,-4.430674e-004
3.666076e+003,-6.066486e-004
3.668004e+003,-5.145073e-004
3.669933e+003,4.518442e-004
3.671861e+003,3.286898e-004
3.673790e+003,1.601987e-004
3.675718e+003,8.000843e-004
3.677647e+003,1.654848e-004
3.679575e+003,-5.464256e-005
3.681504e+003,-1.170859e-005
3.683432e+003,1.132488e-006
3.685361e+003,-1.278445e-004
3.687289e+003,1.605973e-004
3.689218e+003,6.929636e-004
3.691146e+003,5.460680e-004
3.693075e+003,2.469271e-004
3.695003e+003,8.834526e-005
3.696932e+003,3.018230e-005
3.698860e+003,-1.708940e-004
3.700789e+003,1.036637e-004
3.702717e+003,5.008914e-004
3.704646e+003,2.308339e-004
3.706574e+003,7.034466e-005
3.708503e+003,2.320781e-004
3.710431e+003,7.031076e-004
3.712360e+003,1.010511e-003
3.714288e+003,4.613735e-004
3.716217e+003,-4.937872e-005
3.718145e+003,4.981458e-005
3.720074e+003,3.610514e-004
3.722002e+003,6.767288e-004
3.723931e+003,5.927160e-004
3.725859e+003,6.089956e-004
3.727788e+003,4.726127e-004
3.729716e+003,2.684556e-004
3.731645e+003,5.258173e-004
3.733573e+003,1.001239e-003
3.735502e+003,1.408979e-003
3.737430e+003,9.844415e-004
3.739359e+003,6.513856e-004
3.741287e+003,6.104410e-004
3.743216e+003,7.807240e-004
3.745144e+003,1.705557e-003
3.747073e+003,1.338784e-003
3.749001e+003,1.527548e-003
3.750930e+003,2.125140e-003
3.752858e+003,1.839489e-003
3.754787e+003,1.272526e-003
3.756715e+003,1.276545e-003
3.758644e+003,1.441751e-003
3.760572e+003,1.310233e-003
3.762501e+003,8.852072e-004
3.764429e+003,1.010228e-003
3.766358e+003,1.298297e-003
3.768286e+003,1.206156e-003
3.770215e+003,1.304530e-003
3.772143e+003,1.168545e-003
3.774072e+003,1.040149e-003
3.776000e+003,1.062695e-003
3.777929e+003,1.260672e-003
3.779857e+003,1.453187e-003
3.781786e+003,1.269415e-003
3.783714e+003,1.334712e-003
3.785643e+003,1.417775e-003
3.787571e+003,1.415242e-003
3.789500e+003,1.389824e-003
3.791428e+003,1.319997e-003
3.793357e+003,1.220476e-003
3.795285e+003,1.137551e-003
3.797214e+003,1.236144e-003
3.799142e+003,1.070324e-003
3.801071e+003,1.694448e-003
3.802999e+003,1.940418e-003
3.804927e+003,1.447838e-003
3.806856e+003,1.687381e-003
3.808785e+003,1.744319e-003
3.810713e+003,1.696240e-003
3.812642e+003,1.614682e-003
3.814570e+003,1.695737e-003
3.816499e+003,2.108872e-003
3.818427e+003,1.842059e-003
3.820355e+003,2.208631e-003
3.822284e+003,2.508067e-003
3.824213e+003,2.044272e-003
3.826141e+003,2.019349e-003
3.828070e+003,1.931172e-003
3.829998e+003,1.831792e-003
3.831927e+003,2.142169e-003
3.833855e+003,2.228849e-003
3.835783e+003,2.327401e-003
3.837712e+003,2.687961e-003
3.839641e+003,2.762739e-003
3.841569e+003,2.417888e-003
3.843498e+003,2.235305e-003
3.845426e+003,2.156232e-003
3.847354e+003,2.108861e-003
3.849283e+003,2.218965e-003
3.851211e+003,2.478391e-003
3.853140e+003,3.678754e-003
3.855069e+003,3.220487e-003
3.856997e+003,2.573714e-003
3.858926e+003,2.261989e-003
3.860854e+003,2.218954e-003
3.862782e+003,2.417818e-003
3.864711e+003,2.836592e-003
3.866640e+003,2.504118e-003
3.868568e+003,2.342235e-003
3.870497e+003,2.966415e-003
3.872425e+003,2.742931e-003
3.874354e+003,2.836186e-003
3.876282e+003,2.642076e-003
3.878210e+003,2.486974e-003
3.880139e+003,2.838273e-003
3.882068e+003,2.695683e-003
3.883996e+003,2.553351e-003
3.885925e+003,2.939969e-003
3.887853e+003,2.632596e-003
3.889781e+003,2.590936e-003
3.891710e+003,2.850182e-003
3.893638e+003,2.712991e-003
3.895567e+003,2.545349e-003
3.897496e+003,2.584439e-003
3.899424e+003,3.023528e-003
3.901353e+003,3.261946e-003
3.903281e+003,3.198534e-003
3.905209e+003,2.951443e-003
3.907138e+003,2.661716e-003
3.909066e+003,2.667725e-003
3.910995e+003,2.808865e-003
3.912924e+003,2.762042e-003
3.914852e+003,2.740432e-003
3.916781e+003,2.949744e-003
3.918709e+003,3.012095e-003
3.920637e+003,2.873961e-003
3.922566e+003,2.697922e-003
3.924494e+003,2.872907e-003
3.926423e+003,2.888389e-003
3.928352e+003,2.708472e-003
3.930280e+003,2.753131e-003
3.932208e+003,2.894633e-003
3.934137e+003,2.725717e-003
3.936065e+003,2.561625e-003
3.937994e+003,2.577242e-003
3.939922e+003,2.463218e-003
3.941851e+003,2.588328e-003
3.943780e+003,2.790175e-003
3.945708e+003,2.678078e-003
3.947636e+003,2.660748e-003
3.949565e+003,2.838254e-003
3.951493e+003,2.726130e-003
3.953422e+003,2.651967e-003
3.955351e+003,2.615940e-003
3.957279e+003,2.628654e-003
3.959208e+003,2.636496e-003
3.961136e+003,2.649490e-003
3.963064e+003,2.721872e-003
3.964993e+003,2.745062e-003
3.966921e+003,2.804980e-003
3.968850e+003,2.758302e-003
3.970779e+003,2.749257e-003
3.972707e+003,2.830401e-003
3.974635e+003,2.833456e-003
3.976564e+003,2.795376e-003
3.978492e+003,2.796240e-003
3.980421e+003,2.790160e-003
3.982349e+003,2.839413e-003
3.984278e+003,2.833340e-003
3.986207e+003,2.738535e-003
3.988135e+003,2.694827e-003
3.990063e+003,2.737153e-003
3.991992e+003,2.634522e-003
3.993920e+003,2.541065e-003
3.995849e+003,2.620064e-003
3.997777e+003,2.738580e-003
3.999706e+003,2.682973e-003
4.001635e+003,0.000000e+000
