3.991992e+002,0.000000e+000
4.011277e+002,0.000000e+000
4.030562e+002,0.000000e+000
4.049846e+002,0.000000e+000
4.069131e+002,0.000000e+000
4.088416e+002,0.000000e+000
4.107701e+002,0.000000e+000
4.126986e+002,0.000000e+000
4.146271e+002,0.000000e+000
4.165556e+002,0.000000e+000
4.184841e+002,0.000000e+000
4.204126e+002,0.000000e+000
4.223411e+002,0.000000e+000
4.242697e+002,0.000000e+000
4.261982e+002,0.000000e+000
4.281266e+002,0.000000e+000
4.300551e+002,0.000000e+000
4.319836e+002,0.000000e+000
4.339121e+002,0.000000e+000
4.358406e+002,0.000000e+000
4.377691e+002,0.000000e+000
4.396976e+002,0.000000e+000
4.416261e+002,0.000000e+000
4.435546e+002,0.000000e+000
4.454831e+002,0.000000e+000
4.474116e+002,0.000000e+000
4.493401e+002,0.000000e+000
4.512686e+002,0.000000e+000
4.531971e+002,0.000000e+000
4.551256e+002,0.000000e+000
4.570541e+002,0.000000e+000
4.589826e+002,0.000000e+000
4.609111e+002,0.000000e+000
4.628396e+002,0.000000e+000
4.647681e+002,0.000000e+000
4.666966e+002,0.000000e+000
4.686251e+002,0.000000e+000
4.705536e+002,0.000000e+000
4.724821e+002,0.000000e+000
4.744106e+002,0.000000e+000
4.763391e+002,0.000000e+000
4.782676e+002,0.000000e+000
4.801961e+002,0.000000e+000
4.821246e+002,0.000000e+000
4.840531e+002,0.000000e+000
4.859816e+002,0.000000e+000
4.879101e+002,0.000000e+000
4.898386e+002,0.000000e+000
4.917671e+002,0.000000e+000
4.936956e+002,0.000000e+000
4.956241e+002,0.000000e+000
4.975526e+002,0.000000e+000
4.994811e+002,0.000000e+000
5.014096e+002,0.000000e+000
5.033381e+002,0.000000e+000
5.052666e+002,0.000000e+000
5.071951e+002,0.000000e+000
5.091236e+002,0.000000e+000
5.110521e+002,0.000000e+000
5.129806e+002,0.000000e+000
5.149091e+002,0.000000e+000
5.168376e+002,0.000000e+000
5.187661e+002,0.000000e+000
5.206946e+002,0.000000e+000
5.226230e+002,0.000000e+000
5.245516e+002,-1.077100e-003
5.264800e+002,-1.073056e-003
5.284086e+002,-9.962642e-004
5.303370e+002,-9.843740e-004
5.322656e+002,-8.985321e-004
5.341940e+002,-8.640653e-004
5.361226e+002,-8.626762e-004
5.380510e+002,-9.797635e-004
5.399796e+002,-8.649183e-004
5.419081e+002,-6.688177e-004
5.438365e+002,-5.841167e-004
5.457650e+002,-5.552806e-004
5.476935e+002,-5.991752e-004
5.496221e+002,-6.032432e-004
5.515505e+002,-4.827413e-004
5.534790e+002,-4.321164e-004
5.554075e+002,-3.017513e-004
5.573361e+002,-3.526607e-004
5.592645e+002,-4.280992e-004
5.611931e+002,-4.339833e-004
5.631215e+002,-3.803484e-004
5.650500e+002,-2.832804e-004
5.669785e+002,-9.305542e-005
5.689070e+002,2.209842e-005
5.708355e+002,-2.577296e-005
5.727640e+002,-3.869459e-005
5.746925e+002,1.554764e-004
5.766210e+002,2.422202e-004
5.785495e+002,3.055115e-004
5.804780e+002,3.674217e-004
5.824065e+002,4.382958e-004
5.843350e+002,5.005435e-004
5.862635e+002,6.577806e-004
5.881920e+002,8.704569e-004
5.901205e+002,8.811783e-004
5.920490e+002,7.427814e-004
5.939775e+002,7.438031e-004
5.959060e+002,8.374490e-004
5.978345e+002,9.282287e-004
5.997630e+002,9.959321e-004
6.016915e+002,1.092191e-003
6.036200e+002,1.158806e-003
6.055485e+002,1.149169e-003
6.074770e+002,1.086686e-003
6.094055e+002,1.105904e-003
6.113340e+002,1.084032e-003
6.132625e+002,9.937319e-004
6.151910e+002,8.742320e-004
6.171195e+002,7.785298e-004
6.190480e+002,7.846951e-004
6.209765e+002,9.595328e-004
6.229050e+002,9.567831e-004
6.248335e+002,1.023931e-003
6.267620e+002,1.071086e-003
6.286905e+002,1.099630e-003
6.306190e+002,1.139508e-003
6.325475e+002,1.266049e-003
6.344760e+002,1.299419e-003
6.364045e+002,1.421276e-003
6.383330e+002,1.560675e-003
6.402615e+002,1.666875e-003
6.421899e+002,1.671662e-003
6.441185e+002,1.853909e-003
6.460470e+002,1.924156e-003
6.479755e+002,1.964013e-003
6.499039e+002,2.025255e-003
6.518325e+002,2.155334e-003
6.537610e+002,2.180286e-003
6.556895e+002,2.340500e-003
6.576179e+002,2.509479e-003
6.595464e+002,2.658177e-003
6.614750e+002,2.722689e-003
6.634034e+002,2.917894e-003
6.653319e+002,3.044537e-003
6.672604e+002,3.205665e-003
6.691890e+002,3.546316e-003
6.711174e+002,3.917337e-003
6.730460e+002,4.174081e-003
6.749745e+002,4.502600e-003
6.769030e+002,4.777089e-003
6.788314e+002,5.181872e-003
6.807599e+002,5.580574e-003
6.826885e+002,5.987583e-003
6.846169e+002,6.302989e-003
6.865454e+002,6.769774e-003
6.884739e+002,7.174342e-003
6.904025e+002,7.632591e-003
6.923309e+002,8.145479e-003
6.942594e+002,8.828603e-003
6.961879e+002,9.444574e-003
6.981165e+002,1.031616e-002
7.000449e+002,1.120548e-002
7.019734e+002,1.241860e-002
7.039019e+002,1.392488e-002
7.058304e+002,1.614120e-002
7.077589e+002,1.904045e-002
7.096874e+002,2.336242e-002
7.116159e+002,3.015377e-002
7.135444e+002,4.335810e-002
7.154729e+002,6.794693e-002
7.174014e+002,1.034458e-001
7.193299e+002,1.149337e-001
7.212584e+002,8.018488e-002
7.231869e+002,5.155326e-002
7.251154e+002,4.417486e-002
7.270439e+002,5.220671e-002
7.289724e+002,7.593226e-002
7.309009e+002,8.050762e-002
7.328294e+002,4.832323e-002
7.347579e+002,2.391601e-002
7.366864e+002,1.527613e-002
7.386149e+002,1.184974e-002
7.405434e+002,9.817939e-003
7.424719e+002,8.545978e-003
7.444004e+002,7.516713e-003
7.463289e+002,6.814385e-003
7.482574e+002,6.131902e-003
7.501859e+002,5.610664e-003
7.521144e+002,5.170746e-003
7.540428e+002,4.839089e-003
7.559714e+002,4.541188e-003
7.578999e+002,4.467443e-003
7.598284e+002,4.333876e-003
7.617568e+002,4.166943e-003
7.636854e+002,4.053596e-003
7.656139e+002,3.955802e-003
7.675424e+002,3.762372e-003
7.694709e+002,3.622717e-003
7.713994e+002,3.388812e-003
7.733279e+002,3.196894e-003
7.752563e+002,3.058627e-003
7.771849e+002,2.996321e-003
7.791134e+002,2.925660e-003
7.810419e+002,2.808987e-003
7.829703e+002,2.671226e-003
7.848989e+002,2.614843e-003
7.868274e+002,2.679740e-003
7.887559e+002,2.790462e-003
7.906843e+002,2.761669e-003
7.926129e+002,2.773685e-003
7.945414e+002,2.868465e-003
7.964698e+002,2.983758e-003
7.983983e+002,3.028332e-003
8.003268e+002,3.081103e-003
8.022554e+002,3.121704e-003
8.041838e+002,3.157088e-003
8.061123e+002,3.182302e-003
8.080408e+002,3.147226e-003
8.099694e+002,3.101282e-003
8.118978e+002,3.180275e-003
8.138263e+002,3.286114e-003
8.157548e+002,3.335293e-003
8.176833e+002,3.276264e-003
8.196118e+002,3.299153e-003
8.215403e+002,3.356888e-003
8.234689e+002,3.348133e-003
8.253973e+002,3.316270e-003
8.273258e+002,3.339460e-003
8.292543e+002,3.361802e-003
8.311829e+002,3.429769e-003
8.331113e+002,3.466716e-003
8.350398e+002,3.542657e-003
8.369683e+002,3.704078e-003
8.388969e+002,3.811315e-003
8.408253e+002,3.881736e-003
8.427538e+002,3.987783e-003
8.446823e+002,4.065881e-003
8.466108e+002,4.135721e-003
8.485393e+002,4.202735e-003
8.504678e+002,4.307784e-003
8.523963e+002,4.379003e-003
8.543248e+002,4.347849e-003
8.562533e+002,4.371353e-003
8.581818e+002,4.409688e-003
8.601103e+002,4.388873e-003
8.620388e+002,4.330847e-003
8.639673e+002,4.449865e-003
8.658958e+002,4.547254e-003
8.678243e+002,4.608192e-003
8.697528e+002,4.668855e-003
8.716813e+002,4.666045e-003
8.736098e+002,4.680520e-003
8.755383e+002,4.653340e-003
8.774668e+002,4.630965e-003
8.793953e+002,4.731470e-003
8.813238e+002,4.806175e-003
8.832523e+002,4.900578e-003
8.851808e+002,5.025678e-003
8.871093e+002,5.239644e-003
8.890378e+002,5.334195e-003
8.909663e+002,5.344092e-003
8.928948e+002,5.385286e-003
8.948232e+002,5.470966e-003
8.967518e+002,5.529164e-003
8.986803e+002,5.569910e-003
9.006088e+002,5.771178e-003
9.025372e+002,6.176074e-003
9.044658e+002,6.819136e-003
9.063943e+002,7.771384e-003
9.083228e+002,8.304625e-003
9.102512e+002,7.848858e-003
9.121797e+002,6.900643e-003
9.141083e+002,6.156913e-003
9.160367e+002,5.775485e-003
9.179653e+002,5.538838e-003
9.198937e+002,5.409706e-003
9.218223e+002,5.338916e-003
9.237507e+002,5.342535e-003
9.256793e+002,5.386431e-003
9.276077e+002,5.442729e-003
9.295363e+002,5.537375e-003
9.314647e+002,5.657007e-003
9.333932e+002,5.817966e-003
9.353217e+002,6.043319e-003
9.372502e+002,6.248659e-003
9.391787e+002,6.451203e-003
9.411072e+002,6.591057e-003
9.430358e+002,6.728604e-003
9.449642e+002,6.934684e-003
9.468928e+002,7.164714e-003
9.488212e+002,7.403727e-003
9.507498e+002,7.671409e-003
9.526782e+002,7.951560e-003
9.546068e+002,8.242558e-003
9.565352e+002,8.675209e-003
9.584637e+002,9.107893e-003
9.603922e+002,9.554064e-003
9.623207e+002,9.887092e-003
9.642492e+002,1.014780e-002
9.661777e+002,1.034085e-002
9.681062e+002,1.038214e-002
9.700347e+002,1.033562e-002
9.719632e+002,1.027939e-002
9.738917e+002,1.016131e-002
9.758202e+002,1.009516e-002
9.777487e+002,1.004680e-002
9.796772e+002,1.009623e-002
9.816057e+002,1.027125e-002
9.835342e+002,1.050463e-002
9.854627e+002,1.077320e-002
9.873912e+002,1.109196e-002
9.893197e+002,1.138431e-002
9.912482e+002,1.156076e-002
9.931767e+002,1.155091e-002
9.951052e+002,1.145208e-002
9.970337e+002,1.136139e-002
9.989622e+002,1.135342e-002
1.000891e+003,1.142441e-002
1.002819e+003,1.163039e-002
1.004748e+003,1.184143e-002
1.006676e+003,1.204956e-002
1.008605e+003,1.232883e-002
1.010533e+003,1.263077e-002
1.012462e+003,1.291713e-002
1.014390e+003,1.332243e-002
1.016319e+003,1.372799e-002
1.018247e+003,1.401351e-002
1.020176e+003,1.426101e-002
1.022104e+003,1.454221e-002
1.024033e+003,1.482932e-002
1.025961e+003,1.510615e-002
1.027890e+003,1.535696e-002
1.029818e+003,1.557284e-002
1.031747e+003,1.566800e-002
1.033675e+003,1.573679e-002
1.035604e+003,1.576627e-002
1.037532e+003,1.579674e-002
1.039461e+003,1.582332e-002
1.041389e+003,1.591030e-002
1.043318e+003,1.603764e-002
1.045246e+003,1.627633e-002
1.047175e+003,1.663961e-002
1.049103e+003,1.711854e-002
1.051032e+003,1.752351e-002
1.052960e+003,1.774461e-002
1.054889e+003,1.792084e-002
1.056817e+003,1.819748e-002
1.058746e+003,1.851429e-002
1.060674e+003,1.880483e-002
1.062603e+003,1.895226e-002
1.064531e+003,1.897251e-002
1.066460e+003,1.890292e-002
1.068388e+003,1.893167e-002
1.070317e+003,1.919498e-002
1.072245e+003,1.972922e-002
1.074174e+003,2.056425e-002
1.076102e+003,2.175580e-002
1.078031e+003,2.318544e-002
1.079959e+003,2.464730e-002
1.081888e+003,2.586292e-002
1.083816e+003,2.673753e-002
1.085745e+003,2.735946e-002
1.087673e+003,2.808878e-002
1.089602e+003,2.896276e-002
1.091530e+003,2.982793e-002
1.093459e+003,3.050708e-002
1.095387e+003,3.086340e-002
1.097316e+003,3.072318e-002
1.099244e+003,3.024516e-002
1.101173e+003,2.953825e-002
1.103101e+003,2.874784e-002
1.105030e+003,2.805478e-002
1.106958e+003,2.775272e-002
1.108887e+003,2.795788e-002
1.110815e+003,2.865529e-002
1.112744e+003,2.964848e-002
1.114672e+003,3.074139e-002
1.116601e+003,3.157629e-002
1.118529e+003,3.187530e-002
1.120458e+003,3.143871e-002
1.122386e+003,3.033740e-002
1.124315e+003,2.887289e-002
1.126243e+003,2.766384e-002
1.128172e+003,2.713141e-002
1.130100e+003,2.762137e-002
1.132029e+003,2.909717e-002
1.133957e+003,3.134748e-002
1.135885e+003,3.408978e-002
1.137814e+003,3.700752e-002
1.139743e+003,3.959312e-002
1.141671e+003,4.164975e-002
1.143600e+003,4.319757e-002
1.145528e+003,4.441823e-002
1.147457e+003,4.564667e-002
1.149385e+003,4.710433e-002
1.151314e+003,4.874932e-002
1.153242e+003,5.055328e-002
1.155171e+003,5.230953e-002
1.157099e+003,5.383834e-002
1.159028e+003,5.508234e-002
1.160956e+003,5.589848e-002
1.162885e+003,5.611356e-002
1.164813e+003,5.574192e-002
1.166742e+003,5.489573e-002
1.168670e+003,5.366727e-002
1.170599e+003,5.218342e-002
1.172527e+003,5.054343e-002
1.174456e+003,4.891926e-002
1.176384e+003,4.723342e-002
1.178313e+003,4.534505e-002
1.180241e+003,4.359226e-002
1.182170e+003,4.207667e-002
1.184098e+003,4.072647e-002
1.186027e+003,3.944446e-002
1.187955e+003,3.821736e-002
1.189884e+003,3.699037e-002
1.191812e+003,3.573729e-002
1.193740e+003,3.446333e-002
1.195669e+003,3.327192e-002
1.197598e+003,3.220569e-002
1.199526e+003,3.129659e-002
1.201455e+003,3.057902e-002
1.203383e+003,3.005549e-002
1.205312e+003,2.972660e-002
1.207240e+003,2.957695e-002
1.209168e+003,2.945749e-002
1.211097e+003,2.931153e-002
1.213026e+003,2.910955e-002
1.214954e+003,2.901172e-002
1.216883e+003,2.904868e-002
1.218811e+003,2.925789e-002
1.220740e+003,2.961228e-002
1.222668e+003,3.008737e-002
1.224596e+003,3.061094e-002
1.226525e+003,3.118357e-002
1.228453e+003,3.176633e-002
1.230382e+003,3.236208e-002
1.232311e+003,3.290281e-002
1.234239e+003,3.338778e-002
1.236167e+003,3.375838e-002
1.238096e+003,3.394985e-002
1.240025e+003,3.393786e-002
1.241953e+003,3.367903e-002
1.243882e+003,3.312260e-002
1.245810e+003,3.227590e-002
1.247739e+003,3.115865e-002
1.249667e+003,2.996663e-002
1.251595e+003,2.887955e-002
1.253524e+003,2.816507e-002
1.255453e+003,2.776857e-002
1.257381e+003,2.750411e-002
1.259310e+003,2.712753e-002
1.261238e+003,2.663347e-002
1.263167e+003,2.613915e-002
1.265095e+003,2.563200e-002
1.267023e+003,2.508562e-002
1.268952e+003,2.468065e-002
1.270880e+003,2.435591e-002
1.272809e+003,2.420866e-002
1.274738e+003,2.427452e-002
1.276666e+003,2.438984e-002
1.278594e+003,2.430472e-002
1.280523e+003,2.402341e-002
1.282451e+003,2.350722e-002
1.284380e+003,2.282457e-002
1.286308e+003,2.211913e-002
1.288237e+003,2.164976e-002
1.290166e+003,2.146171e-002
1.292094e+003,2.156993e-002
1.294022e+003,2.171255e-002
1.295951e+003,2.185945e-002
1.297879e+003,2.194745e-002
1.299808e+003,2.205157e-002
1.301736e+003,2.204636e-002
1.303665e+003,2.194808e-002
1.305594e+003,2.174168e-002
1.307522e+003,2.157003e-002
1.309450e+003,2.137861e-002
1.311379e+003,2.117395e-002
1.313307e+003,2.090347e-002
1.315236e+003,2.063334e-002
1.317164e+003,2.027647e-002
1.319093e+003,1.988515e-002
1.321021e+003,1.937019e-002
1.322950e+003,1.885816e-002
1.324878e+003,1.829118e-002
1.326807e+003,1.779746e-002
1.328735e+003,1.738345e-002
1.330664e+003,1.722187e-002
1.332592e+003,1.729628e-002
1.334521e+003,1.760415e-002
1.336449e+003,1.807640e-002
1.338378e+003,1.883730e-002
1.340306e+003,1.975032e-002
1.342235e+003,2.044073e-002
1.344163e+003,2.099157e-002
1.346092e+003,2.168861e-002
1.348021e+003,2.239605e-002
1.349949e+003,2.304612e-002
1.351877e+003,2.335713e-002
1.353806e+003,2.345215e-002
1.355734e+003,2.342726e-002
1.357663e+003,2.353061e-002
1.359591e+003,2.385072e-002
1.361520e+003,2.454107e-002
1.363448e+003,2.538974e-002
1.365377e+003,2.602565e-002
1.367305e+003,2.641867e-002
1.369234e+003,2.640968e-002
1.371162e+003,2.591825e-002
1.373091e+003,2.574897e-002
1.375019e+003,2.665115e-002
1.376948e+003,2.733791e-002
1.378876e+003,2.610932e-002
1.380805e+003,2.328811e-002
1.382733e+003,2.051070e-002
1.384662e+003,1.863851e-002
1.386590e+003,1.723785e-002
1.388519e+003,1.620691e-002
1.390447e+003,1.543564e-002
1.392376e+003,1.502067e-002
1.394304e+003,1.477541e-002
1.396233e+003,1.493661e-002
1.398161e+003,1.515569e-002
1.400090e+003,1.573268e-002
1.402018e+003,1.585396e-002
1.403947e+003,1.580765e-002
1.405875e+003,1.533513e-002
1.407804e+003,1.523434e-002
1.409732e+003,1.552406e-002
1.411661e+003,1.656973e-002
1.413589e+003,1.775277e-002
1.415518e+003,1.889127e-002
1.417446e+003,1.942297e-002
1.419375e+003,1.955502e-002
1.421303e+003,1.904398e-002
1.423232e+003,1.905821e-002
1.425160e+003,1.971154e-002
1.427089e+003,2.113280e-002
1.429017e+003,2.331124e-002
1.430946e+003,2.663026e-002
1.432874e+003,2.930462e-002
1.434803e+003,3.165761e-002
1.436731e+003,3.454062e-002
1.438660e+003,3.703096e-002
1.440588e+003,3.840847e-002
1.442517e+003,4.020790e-002
1.444445e+003,4.167386e-002
1.446374e+003,4.359366e-002
1.448302e+003,4.657598e-002
1.450231e+003,5.090356e-002
1.452159e+003,5.747943e-002
1.454088e+003,6.593264e-002
1.456016e+003,7.544559e-002
1.457945e+003,1.031280e-001
1.459873e+003,1.505826e-001
1.461802e+003,1.826638e-001
1.463730e+003,1.629761e-001
1.465659e+003,1.207306e-001
1.467587e+003,1.131395e-001
1.469516e+003,1.171691e-001
1.471444e+003,1.426342e-001
1.473373e+003,1.342710e-001
1.475301e+003,7.356875e-002
1.477230e+003,3.305813e-002
1.479158e+003,2.129865e-002
1.481087e+003,1.607520e-002
1.483015e+003,1.356090e-002
1.484944e+003,1.165058e-002
1.486872e+003,1.099247e-002
1.488801e+003,9.905190e-003
1.490729e+003,1.004864e-002
1.492658e+003,9.324523e-003
1.494586e+003,9.243130e-003
1.496515e+003,8.535407e-003
1.498443e+003,8.311538e-003
1.500372e+003,7.560232e-003
1.502300e+003,7.289927e-003
1.504229e+003,6.511800e-003
1.506157e+003,6.458196e-003
1.508086e+003,6.437832e-003
1.510014e+003,6.843362e-003
1.511943e+003,6.546617e-003
1.513871e+003,6.582659e-003
1.515800e+003,6.177377e-003
1.517728e+003,6.335032e-003
1.519657e+003,5.999518e-003
1.521585e+003,6.353305e-003
1.523514e+003,6.253816e-003
1.525442e+003,6.397021e-003
1.527371e+003,6.387890e-003
1.529299e+003,6.589306e-003
1.531228e+003,6.316322e-003
1.533156e+003,6.516781e-003
1.535085e+003,6.463954e-003
1.537013e+003,6.276558e-003
1.538942e+003,5.731817e-003
1.540870e+003,6.575799e-003
1.542799e+003,6.665713e-003
1.544727e+003,6.906079e-003
1.546656e+003,6.640509e-003
1.548584e+003,6.583499e-003
1.550513e+003,6.375961e-003
1.552441e+003,6.272253e-003
1.554370e+003,5.936067e-003
1.556298e+003,5.718231e-003
1.558227e+003,5.139096e-003
1.560155e+003,6.056463e-003
1.562084e+003,5.641415e-003
1.564012e+003,5.467571e-003
1.565941e+003,5.178885e-003
1.567869e+003,5.082632e-003
1.569798e+003,5.043795e-003
1.571726e+003,5.117422e-003
1.573655e+003,4.788799e-003
1.575583e+003,4.901467e-003
1.577512e+003,5.148192e-003
1.579440e+003,5.136669e-003
1.581369e+003,4.955093e-003
1.583297e+003,5.010456e-003
1.585226e+003,4.985444e-003
1.587154e+003,5.040716e-003
1.589083e+003,5.033209e-003
1.591011e+003,5.120358e-003
1.592940e+003,4.993713e-003
1.594868e+003,5.029133e-003
1.596797e+003,5.077441e-003
1.598725e+003,5.194414e-003
1.600654e+003,5.143820e-003
1.602582e+003,5.185811e-003
1.604511e+003,5.222430e-003
1.606439e+003,5.453499e-003
1.608368e+003,5.554510e-003
1.610296e+003,5.686042e-003
1.612225e+003,5.716029e-003
1.614153e+003,5.738969e-003
1.616082e+003,5.864843e-003
1.618010e+003,6.440575e-003
1.619939e+003,6.429098e-003
1.621867e+003,6.519156e-003
1.623796e+003,6.876096e-003
1.625724e+003,7.171733e-003
1.627653e+003,7.343360e-003
1.629581e+003,7.654610e-003
1.631510e+003,7.641024e-003
1.633438e+003,7.631423e-003
1.635367e+003,8.079611e-003
1.637295e+003,9.262075e-003
1.639224e+003,9.481937e-003
1.641152e+003,9.767836e-003
1.643081e+003,9.816501e-003
1.645009e+003,9.766857e-003
1.646938e+003,1.009128e-002
1.648866e+003,1.057551e-002
1.650795e+003,1.032303e-002
1.652723e+003,1.023074e-002
1.654652e+003,1.125161e-002
1.656580e+003,1.117225e-002
1.658509e+003,1.071152e-002
1.660437e+003,1.025168e-002
1.662366e+003,9.744735e-003
1.664294e+003,9.553736e-003
1.666223e+003,9.154707e-003
1.668151e+003,8.909300e-003
1.670080e+003,8.922686e-003
1.672008e+003,8.877628e-003
1.673937e+003,8.631775e-003
1.675865e+003,8.663225e-003
1.677794e+003,8.487782e-003
1.679722e+003,8.324439e-003
1.681651e+003,7.972879e-003
1.683579e+003,7.918449e-003
1.685508e+003,8.683691e-003
1.687436e+003,8.900477e-003
1.689365e+003,9.103531e-003
1.691293e+003,9.400381e-003
1.693222e+003,9.412467e-003
1.695150e+003,9.766225e-003
1.697079e+003,1.077669e-002
1.699007e+003,1.127842e-002
1.700936e+003,1.316147e-002
1.702864e+003,1.436761e-002
1.704793e+003,1.558151e-002
1.706721e+003,1.753704e-002
1.708650e+003,1.885891e-002
1.710578e+003,1.990026e-002
1.712507e+003,2.068906e-002
1.714435e+003,2.133352e-002
1.716364e+003,2.246475e-002
1.718292e+003,2.500009e-002
1.720221e+003,2.711833e-002
1.722149e+003,2.906406e-002
1.724078e+003,3.225332e-002
1.726006e+003,3.579355e-002
1.727935e+003,4.002691e-002
1.729863e+003,4.629072e-002
1.731792e+003,5.292239e-002
1.733720e+003,6.460199e-002
1.735649e+003,8.132639e-002
1.737577e+003,9.030733e-002
1.739506e+003,1.046949e-001
1.741434e+003,1.170039e-001
1.743363e+003,1.243988e-001
1.745291e+003,1.266137e-001
1.747220e+003,1.230716e-001
1.749148e+003,1.123529e-001
1.751077e+003,9.620869e-002
1.753005e+003,7.886636e-002
1.754934e+003,6.569207e-002
1.756862e+003,4.983490e-002
1.758791e+003,3.759423e-002
1.760719e+003,2.924827e-002
1.762648e+003,2.133991e-002
1.764576e+003,1.674304e-002
1.766505e+003,1.362731e-002
1.768433e+003,1.089674e-002
1.770362e+003,9.183063e-003
1.772290e+003,7.743967e-003
1.774219e+003,6.923677e-003
1.776147e+003,6.195507e-003
1.778076e+003,5.463131e-003
1.780004e+003,4.994151e-003
1.781933e+003,4.629633e-003
1.783861e+003,4.282616e-003
1.785790e+003,3.898190e-003
1.787718e+003,3.563414e-003
1.789646e+003,3.121845e-003
1.791575e+003,2.777405e-003
1.793504e+003,2.711144e-003
1.795432e+003,2.642878e-003
1.797361e+003,2.376042e-003
1.799289e+003,2.238721e-003
1.801218e+003,2.036557e-003
1.803146e+003,1.926596e-003
1.805074e+003,1.670632e-003
1.807003e+003,1.489394e-003
1.808932e+003,1.309926e-003
1.810860e+003,1.221695e-003
1.812789e+003,1.070117e-003
1.814717e+003,8.455459e-004
1.816646e+003,5.891873e-004
1.818574e+003,8.501317e-004
1.820502e+003,9.660241e-004
1.822431e+003,8.015330e-004
1.824360e+003,3.739293e-004
1.826288e+003,2.415325e-004
1.828217e+003,-6.010756e-005
1.830145e+003,-4.058611e-005
1.832073e+003,-8.097012e-005
1.834002e+003,-2.131122e-004
1.835931e+003,-5.034730e-004
1.837859e+003,-5.222722e-004
1.839788e+003,-5.843039e-004
1.841716e+003,-7.124720e-004
1.843645e+003,-9.806659e-004
1.845573e+003,-6.733323e-004
1.847501e+003,-6.626528e-004
1.849430e+003,-6.556166e-004
1.851359e+003,-8.065710e-004
1.853287e+003,-6.686384e-004
1.855216e+003,-6.887522e-004
1.857144e+003,-7.799072e-004
1.859073e+003,-1.054971e-003
1.861001e+003,-1.037837e-003
1.862929e+003,-1.216408e-003
1.864858e+003,-1.259312e-003
1.866787e+003,-1.549217e-003
1.868715e+003,-1.579538e-003
1.870644e+003,-1.486606e-003
1.872572e+003,-1.288406e-003
1.874500e+003,-1.383582e-003
1.876429e+003,-1.329330e-003
1.878357e+003,-1.434327e-003
1.880286e+003,-1.275043e-003
1.882215e+003,-1.412272e-003
1.884143e+003,-1.352736e-003
1.886072e+003,-1.547902e-003
1.888000e+003,-1.711154e-003
1.889928e+003,-1.575293e-003
1.891857e+003,-9.452850e-004
1.893785e+003,-9.162361e-004
1.895714e+003,-5.340138e-004
1.897643e+003,-6.852504e-004
1.899571e+003,-8.451976e-004
1.901500e+003,-8.369312e-004
1.903428e+003,-8.286769e-004
1.905356e+003,-8.204337e-004
1.907285e+003,-8.122073e-004
1.909213e+003,-8.039894e-004
1.911142e+003,-7.957853e-004
1.913071e+003,-7.875953e-004
1.914999e+003,-7.794155e-004
1.916927e+003,-7.712487e-004
1.918856e+003,-7.630941e-004
1.920784e+003,-7.549534e-004
1.922713e+003,-7.468238e-004
1.924641e+003,-7.387083e-004
1.926570e+003,-7.306030e-004
1.928499e+003,-7.225135e-004
1.930427e+003,-7.144343e-004
1.932355e+003,-7.063644e-004
1.934284e+003,-6.983122e-004
1.936212e+003,-6.902702e-004
1.938141e+003,-6.822413e-004
1.940070e+003,-6.742245e-004
1.941998e+003,-6.662179e-004
1.943927e+003,-6.582281e-004
1.945855e+003,-6.502485e-004
1.947783e+003,-6.422820e-004
1.949712e+003,-6.343275e-004
1.951640e+003,-6.263843e-004
1.953569e+003,-6.184559e-004
1.955498e+003,-6.105378e-004
1.957426e+003,-6.026318e-004
1.959354e+003,-5.947417e-004
1.961283e+003,-5.868617e-004
1.963211e+003,-5.789949e-004
1.965140e+003,-5.711401e-004
1.967068e+003,-5.632974e-004
1.968997e+003,-5.554659e-004
1.970926e+003,-5.476503e-004
1.972854e+003,-5.398449e-004
1.974782e+003,-5.320525e-004
1.976711e+003,-5.242722e-004
1.978639e+003,-5.165068e-004
1.980568e+003,-5.087508e-004
1.982496e+003,-5.010078e-004
1.984425e+003,-4.932778e-004
1.986354e+003,-4.855599e-004
1.988282e+003,-4.778551e-004
1.990210e+003,-4.701614e-004
1.992139e+003,-4.624818e-004
1.994067e+003,-4.548160e-004
1.995996e+003,-4.471587e-004
1.997924e+003,-4.395153e-004
1.999853e+003,-4.318850e-004
2.001781e+003,-4.242687e-004
2.003710e+003,-4.166625e-004
2.005638e+003,-4.090676e-004
2.007567e+003,-4.014885e-004
2.009495e+003,-3.939215e-004
2.011424e+003,-3.863657e-004
2.013352e+003,-3.788238e-004
2.015281e+003,-3.712932e-004
2.017209e+003,-3.637737e-004
2.019138e+003,-3.562672e-004
2.021066e+003,-3.487756e-004
2.022995e+003,-3.412943e-004
2.024923e+003,-3.338261e-004
2.026852e+003,-3.263718e-004
2.028781e+003,-3.189258e-004
2.030709e+003,-3.114985e-004
2.032637e+003,-3.040778e-004
2.034566e+003,-2.966728e-004
2.036494e+003,-2.892790e-004
2.038423e+003,-2.818992e-004
2.040351e+003,-2.745297e-004
2.042280e+003,-2.671741e-004
2.044208e+003,-2.598306e-004
2.046137e+003,-2.524983e-004
2.048065e+003,-2.451809e-004
2.049994e+003,-2.378756e-004
2.051922e+003,-2.305806e-004
2.053851e+003,-2.233014e-004
2.055779e+003,-2.160305e-004
2.057708e+003,-2.087755e-004
2.059636e+003,-2.015308e-004
2.061565e+003,-1.943009e-004
2.063493e+003,-1.870831e-004
2.065422e+003,-1.798738e-004
2.067350e+003,-1.726812e-004
2.069279e+003,-1.654988e-004
2.071207e+003,-1.583314e-004
2.073136e+003,-1.511732e-004
2.075064e+003,-1.440318e-004
2.076993e+003,-1.368988e-004
2.078921e+003,-1.297789e-004
2.080850e+003,-1.226729e-004
2.082778e+003,-1.155790e-004
2.084707e+003,-1.084972e-004
2.086635e+003,-1.014294e-004
2.088564e+003,-9.437371e-005
2.090492e+003,-8.732826e-005
2.092421e+003,-8.029398e-005
2.094349e+003,-7.327739e-005
2.096278e+003,-6.626826e-005
2.098206e+003,-5.927589e-005
2.100135e+003,-5.229469e-005
2.102063e+003,-4.532654e-005
2.103992e+003,-3.836770e-005
2.105920e+003,-3.142189e-005
2.107849e+003,-2.449006e-005
2.109777e+003,-1.757126e-005
2.111706e+003,-1.066457e-005
2.113634e+003,-3.770925e-006
2.115563e+003,3.112480e-006
2.117491e+003,9.980984e-006
2.119420e+003,1.683924e-005
2.121348e+003,2.368446e-005
2.123277e+003,3.051665e-005
2.125205e+003,3.733672e-005
2.127134e+003,4.414376e-005
2.129062e+003,5.093869e-005
2.130991e+003,5.772058e-005
2.132919e+003,6.449036e-005
2.134848e+003,7.124897e-005
2.136776e+003,7.799175e-005
2.138705e+003,8.472428e-005
2.140633e+003,9.144377e-005
2.142562e+003,9.815302e-005
2.144490e+003,1.048474e-004
2.146419e+003,1.115305e-004
2.148347e+003,1.182007e-004
2.150276e+003,1.248578e-004
2.152204e+003,1.315046e-004
2.154133e+003,1.381347e-004
2.156061e+003,1.447564e-004
2.157990e+003,1.513632e-004
2.159918e+003,1.579588e-004
2.161847e+003,1.645414e-004
2.163775e+003,1.711119e-004
2.165704e+003,1.776712e-004
2.167632e+003,1.842175e-004
2.169561e+003,1.907507e-004
2.171489e+003,1.972700e-004
2.173418e+003,2.037762e-004
2.175346e+003,2.102721e-004
2.177275e+003,2.167551e-004
2.179203e+003,2.232278e-004
2.181132e+003,2.296846e-004
2.183060e+003,2.361303e-004
2.184989e+003,2.425648e-004
2.186917e+003,2.489826e-004
2.188846e+003,2.553929e-004
2.190774e+003,2.617883e-004
2.192703e+003,2.681725e-004
2.194631e+003,2.745437e-004
2.196560e+003,2.809009e-004
2.198488e+003,2.872478e-004
2.200417e+003,2.935790e-004
2.202345e+003,2.999017e-004
2.204274e+003,3.062105e-004
2.206202e+003,3.125044e-004
2.208131e+003,3.187880e-004
2.210059e+003,3.250604e-004
2.211988e+003,3.313180e-004
2.213916e+003,3.375644e-004
2.215845e+003,3.437996e-004
2.217773e+003,3.500208e-004
2.219702e+003,3.562290e-004
2.221630e+003,3.624251e-004
2.223559e+003,3.686082e-004
2.225487e+003,3.747800e-004
2.227416e+003,3.809379e-004
2.229344e+003,3.870875e-004
2.231273e+003,3.932184e-004
2.233201e+003,3.993399e-004
2.235130e+003,4.054485e-004
2.237058e+003,4.115459e-004
2.238987e+003,4.176321e-004
2.240915e+003,4.237015e-004
2.242844e+003,4.297616e-004
2.244772e+003,4.358077e-004
2.246701e+003,4.418408e-004
2.248629e+003,4.478637e-004
2.250558e+003,4.538717e-004
2.252486e+003,4.598694e-004
2.254415e+003,4.658541e-004
2.256343e+003,4.718248e-004
2.258272e+003,4.777843e-004
2.260200e+003,4.837327e-004
2.262129e+003,4.896652e-004
2.264057e+003,4.955875e-004
2.265986e+003,5.014986e-004
2.267914e+003,5.073957e-004
2.269843e+003,5.132789e-004
2.271771e+003,5.191509e-004
2.273700e+003,5.250117e-004
2.275628e+003,5.308576e-004
2.277557e+003,5.366905e-004
2.279485e+003,5.425150e-004
2.281414e+003,5.483236e-004
2.283342e+003,5.541211e-004
2.285271e+003,5.599055e-004
2.287199e+003,5.656788e-004
2.289128e+003,5.714400e-004
2.291056e+003,5.771844e-004
2.292985e+003,5.829204e-004
2.294913e+003,5.886443e-004
2.296842e+003,5.943533e-004
2.298770e+003,6.000511e-004
2.300699e+003,6.057350e-004
2.302627e+003,6.114086e-004
2.304556e+003,6.170673e-004
2.306484e+003,6.227158e-004
2.308413e+003,6.283512e-004
2.310341e+003,6.339736e-004
2.312270e+003,6.395848e-004
2.314198e+003,6.451802e-004
2.316127e+003,6.507672e-004
2.318055e+003,6.563403e-004
2.319984e+003,6.618993e-004
2.321912e+003,6.674463e-004
2.323841e+003,6.729821e-004
2.325769e+003,6.785067e-004
2.327698e+003,6.840155e-004
2.329626e+003,6.895140e-004
2.331555e+003,6.950004e-004
2.333483e+003,7.004710e-004
2.335412e+003,7.059351e-004
2.337340e+003,7.113805e-004
2.339269e+003,7.168185e-004
2.341197e+003,7.222388e-004
2.343126e+003,7.276507e-004
2.345054e+003,7.330487e-004
2.346983e+003,7.384345e-004
2.348911e+003,7.438082e-004
2.350840e+003,7.491680e-004
2.352768e+003,7.545184e-004
2.354697e+003,7.598531e-004
2.356625e+003,7.651756e-004
2.358554e+003,7.704869e-004
2.360482e+003,7.757852e-004
2.362411e+003,7.810742e-004
2.364339e+003,7.863427e-004
2.366268e+003,7.916056e-004
2.368196e+003,7.968554e-004
2.370125e+003,8.020904e-004
2.372053e+003,8.073151e-004
2.373982e+003,8.125240e-004
2.375910e+003,8.177254e-004
2.377839e+003,8.229082e-004
2.379767e+003,8.280836e-004
2.381696e+003,8.332450e-004
2.383624e+003,8.383933e-004
2.385553e+003,8.435315e-004
2.387481e+003,8.486537e-004
2.389410e+003,8.537658e-004
2.391338e+003,8.588638e-004
2.393267e+003,8.639507e-004
2.395195e+003,8.690245e-004
2.397124e+003,8.740863e-004
2.399052e+003,8.791359e-004
2.400981e+003,9.302134e-004
2.402909e+003,8.056760e-004
2.404838e+003,8.322755e-004
2.406766e+003,1.140011e-003
2.408695e+003,1.432814e-003
2.410623e+003,1.448701e-003
2.412552e+003,1.457788e-003
2.414480e+003,1.371424e-003
2.416409e+003,1.415251e-003
2.418337e+003,1.495655e-003
2.420266e+003,1.470244e-003
2.422194e+003,1.411456e-003
2.424123e+003,1.433256e-003
2.426051e+003,1.319837e-003
2.427979e+003,1.127653e-003
2.429908e+003,1.178493e-003
2.431837e+003,1.519119e-003
2.433765e+003,1.529895e-003
2.435694e+003,1.428640e-003
2.437622e+003,1.331772e-003
2.439551e+003,1.328999e-003
2.441479e+003,1.347763e-003
2.443407e+003,1.423893e-003
2.445336e+003,1.505993e-003
2.447265e+003,1.555827e-003
2.449193e+003,1.692904e-003
2.451122e+003,1.829628e-003
2.453050e+003,1.731965e-003
2.454979e+003,1.754500e-003
2.456907e+003,1.863875e-003
2.458836e+003,1.734139e-003
2.460764e+003,1.543600e-003
2.462693e+003,1.570676e-003
2.464621e+003,1.632166e-003
2.466550e+003,1.735208e-003
2.468478e+003,1.828838e-003
2.470406e+003,1.927148e-003
2.472335e+003,2.043389e-003
2.474264e+003,2.165248e-003
2.476192e+003,2.103122e-003
2.478121e+003,2.092169e-003
2.480049e+003,2.097961e-003
2.481978e+003,2.241540e-003
2.483906e+003,2.389422e-003
2.485835e+003,2.472759e-003
2.487763e+003,2.382662e-003
2.489692e+003,2.316141e-003
2.491620e+003,2.389319e-003
2.493549e+003,2.541178e-003
2.495477e+003,2.379198e-003
2.497406e+003,2.512777e-003
2.499334e+003,2.670056e-003
2.501263e+003,2.728182e-003
2.503191e+003,2.860686e-003
2.505120e+003,2.832809e-003
2.507048e+003,2.816737e-003
2.508977e+003,3.010192e-003
2.510905e+003,3.033728e-003
2.512833e+003,3.119660e-003
2.514762e+003,3.314117e-003
2.516691e+003,3.400958e-003
2.518619e+003,3.341231e-003
2.520548e+003,3.392380e-003
2.522476e+003,3.505562e-003
2.524405e+003,3.749608e-003
2.526333e+003,3.741808e-003
2.528261e+003,3.731401e-003
2.530190e+003,3.829494e-003
2.532119e+003,4.067609e-003
2.534047e+003,4.241984e-003
2.535976e+003,4.043163e-003
2.537904e+003,3.675997e-003
2.539833e+003,3.763794e-003
2.541761e+003,3.915598e-003
2.543689e+003,4.093074e-003
2.545618e+003,4.321015e-003
2.547547e+003,4.614315e-003
2.549475e+003,4.750722e-003
2.551404e+003,4.924130e-003
2.553332e+003,4.938378e-003
2.555260e+003,4.874042e-003
2.557189e+003,4.911810e-003
2.559117e+003,4.949366e-003
2.561046e+003,4.874543e-003
2.562975e+003,4.940357e-003
2.564903e+003,5.103053e-003
2.566832e+003,5.444229e-003
2.568760e+003,5.624926e-003
2.570688e+003,5.880791e-003
2.572617e+003,5.931963e-003
2.574546e+003,5.929813e-003
2.576474e+003,5.962972e-003
2.578403e+003,6.239649e-003
2.580331e+003,6.469141e-003
2.582260e+003,6.666131e-003
2.584188e+003,6.804440e-003
2.586116e+003,6.933826e-003
2.588045e+003,7.185319e-003
2.589974e+003,7.459867e-003
2.591902e+003,7.705010e-003
2.593831e+003,7.869709e-003
2.595759e+003,7.973038e-003
2.597688e+003,8.140657e-003
2.599616e+003,8.339263e-003
2.601544e+003,8.564898e-003
2.603473e+003,8.818927e-003
2.605402e+003,9.147495e-003
2.607330e+003,9.255989e-003
2.609259e+003,9.470372e-003
2.611187e+003,9.811394e-003
2.613115e+003,1.013139e-002
2.615044e+003,1.052356e-002
2.616972e+003,1.097895e-002
2.618901e+003,1.125021e-002
2.620830e+003,1.159185e-002
2.622758e+003,1.199419e-002
2.624687e+003,1.238731e-002
2.626615e+003,1.274507e-002
2.628543e+003,1.317465e-002
2.630472e+003,1.356799e-002
2.632400e+003,1.395623e-002
2.634329e+003,1.421450e-002
2.636258e+003,1.431111e-002
2.638186e+003,1.427936e-002
2.640115e+003,1.423054e-002
2.642043e+003,1.420029e-002
2.643971e+003,1.413743e-002
2.645900e+003,1.414092e-002
2.647828e+003,1.427655e-002
2.649757e+003,1.441790e-002
2.651686e+003,1.455637e-002
2.653614e+003,1.470146e-002
2.655542e+003,1.486403e-002
2.657471e+003,1.490953e-002
2.659399e+003,1.492514e-002
2.661328e+003,1.494630e-002
2.663256e+003,1.482447e-002
2.665185e+003,1.455531e-002
2.667114e+003,1.434944e-002
2.669042e+003,1.419174e-002
2.670970e+003,1.404647e-002
2.672899e+003,1.394675e-002
2.674827e+003,1.381882e-002
2.676756e+003,1.367232e-002
2.678685e+003,1.357988e-002
2.680613e+003,1.353539e-002
2.682542e+003,1.348814e-002
2.684470e+003,1.339184e-002
2.686398e+003,1.328344e-002
2.688327e+003,1.319556e-002
2.690255e+003,1.309611e-002
2.692184e+003,1.298865e-002
2.694113e+003,1.289531e-002
2.696041e+003,1.292361e-002
2.697969e+003,1.304904e-002
2.699898e+003,1.320713e-002
2.701826e+003,1.333202e-002
2.703755e+003,1.342355e-002
2.705683e+003,1.358768e-002
2.707612e+003,1.376838e-002
2.709541e+003,1.388993e-002
2.711469e+003,1.396604e-002
2.713397e+003,1.411550e-002
2.715326e+003,1.429174e-002
2.717254e+003,1.442378e-002
2.719183e+003,1.459001e-002
2.721111e+003,1.486856e-002
2.723040e+003,1.511572e-002
2.724969e+003,1.536523e-002
2.726897e+003,1.564129e-002
2.728825e+003,1.588932e-002
2.730754e+003,1.607664e-002
2.732682e+003,1.629655e-002
2.734611e+003,1.653469e-002
2.736539e+003,1.676154e-002
2.738468e+003,1.684548e-002
2.740396e+003,1.692259e-002
2.742325e+003,1.702906e-002
2.744253e+003,1.711192e-002
2.746182e+003,1.714639e-002
2.748110e+003,1.716442e-002
2.750039e+003,1.722077e-002
2.751967e+003,1.736833e-002
2.753896e+003,1.757994e-002
2.755824e+003,1.784851e-002
2.757753e+003,1.819761e-002
2.759681e+003,1.857455e-002
2.761610e+003,1.893536e-002
2.763538e+003,1.934213e-002
2.765467e+003,1.975123e-002
2.767395e+003,2.018295e-002
2.769324e+003,2.066803e-002
2.771252e+003,2.127283e-002
2.773181e+003,2.191744e-002
2.775109e+003,2.258965e-002
2.777038e+003,2.338740e-002
2.778966e+003,2.438546e-002
2.780895e+003,2.549468e-002
2.782823e+003,2.656201e-002
2.784752e+003,2.767802e-002
2.786680e+003,2.912691e-002
2.788609e+003,3.066721e-002
2.790537e+003,3.211090e-002
2.792466e+003,3.368217e-002
2.794394e+003,3.537289e-002
2.796323e+003,3.699430e-002
2.798251e+003,3.874044e-002
2.800180e+003,4.059323e-002
2.802108e+003,4.255580e-002
2.804037e+003,4.469192e-002
2.805965e+003,4.712864e-002
2.807894e+003,4.989748e-002
2.809822e+003,5.299470e-002
2.811751e+003,5.641770e-002
2.813679e+003,6.031176e-002
2.815608e+003,6.484671e-002
2.817536e+003,7.018881e-002
2.819465e+003,7.655708e-002
2.821393e+003,8.418074e-002
2.823322e+003,9.348368e-002
2.825250e+003,1.049348e-001
2.827179e+003,1.191234e-001
2.829107e+003,1.368786e-001
2.831036e+003,1.590182e-001
2.832964e+003,1.871585e-001
2.834893e+003,2.242834e-001
2.836821e+003,2.742383e-001
2.838750e+003,3.431007e-001
2.840678e+003,4.407998e-001
2.842607e+003,5.774577e-001
2.844535e+003,7.480896e-001
2.846464e+003,8.939741e-001
2.848392e+003,9.013823e-001
2.850321e+003,7.651742e-001
2.852249e+003,6.053205e-001
2.854178e+003,4.830020e-001
2.856106e+003,3.920494e-001
2.858035e+003,3.209065e-001
2.859963e+003,2.657394e-001
2.861892e+003,2.247013e-001
2.863820e+003,1.961291e-001
2.865749e+003,1.782776e-001
2.867677e+003,1.692823e-001
2.869606e+003,1.670330e-001
2.871534e+003,1.687195e-001
2.873463e+003,1.725110e-001
2.875391e+003,1.793588e-001
2.877320e+003,1.907798e-001
2.879248e+003,2.066979e-001
2.881177e+003,2.261783e-001
2.883105e+003,2.481095e-001
2.885034e+003,2.717674e-001
2.886962e+003,2.967743e-001
2.888891e+003,3.225687e-001
2.890819e+003,3.489596e-001
2.892748e+003,3.756400e-001
2.894676e+003,4.023425e-001
2.896605e+003,4.296341e-001
2.898533e+003,4.585886e-001
2.900462e+003,4.911569e-001
2.902390e+003,5.303218e-001
2.904319e+003,5.802535e-001
2.906247e+003,6.463462e-001
2.908176e+003,7.337699e-001
2.910104e+003,8.455909e-001
2.912033e+003,9.718090e-001
2.913961e+003,1.069597e+000
2.915890e+003,1.080252e+000
2.917818e+003,1.002732e+000
2.919747e+003,8.910242e-001
2.921675e+003,7.815913e-001
2.923604e+003,6.841584e-001
2.925532e+003,5.997499e-001
2.927461e+003,5.260108e-001
2.929389e+003,4.603943e-001
2.931318e+003,4.013586e-001
2.933246e+003,3.485806e-001
2.935175e+003,3.020915e-001
2.937103e+003,2.617397e-001
2.939032e+003,2.272127e-001
2.940960e+003,1.983508e-001
2.942889e+003,1.748165e-001
2.944817e+003,1.566302e-001
2.946746e+003,1.435721e-001
2.948674e+003,1.349736e-001
2.950603e+003,1.296608e-001
2.952531e+003,1.258933e-001
2.954460e+003,1.218978e-001
2.956388e+003,1.167547e-001
2.958317e+003,1.102972e-001
2.960245e+003,1.027967e-001
2.962174e+003,9.421703e-002
2.964102e+003,8.514708e-002
2.966031e+003,7.610358e-002
2.967959e+003,6.766148e-002
2.969888e+003,6.014764e-002
2.971816e+003,5.366018e-002
2.973745e+003,4.818102e-002
2.975673e+003,4.370766e-002
2.977602e+003,4.004711e-002
2.979530e+003,3.680474e-002
2.981459e+003,3.398410e-002
2.983387e+003,3.173188e-002
2.985316e+003,2.999130e-002
2.987244e+003,2.862349e-002
2.989173e+003,2.765322e-002
2.991101e+003,2.728140e-002
2.993030e+003,2.758454e-002
2.994958e+003,2.855353e-002
2.996887e+003,3.005308e-002
2.998815e+003,3.196976e-002
3.000744e+003,3.381480e-002
3.002672e+003,3.512897e-002
3.004601e+003,3.571840e-002
3.006529e+003,3.538183e-002
3.008458e+003,3.402176e-002
3.010386e+003,3.189145e-002
3.012315e+003,2.918023e-002
3.014243e+003,2.637267e-002
3.016172e+003,2.373350e-002
3.018100e+003,2.139617e-002
3.020029e+003,1.943589e-002
3.021957e+003,1.791798e-002
3.023886e+003,1.671642e-002
3.025814e+003,1.575856e-002
3.027743e+003,1.504442e-002
3.029671e+003,1.442836e-002
3.031600e+003,1.396727e-002
3.033528e+003,1.353367e-002
3.035457e+003,1.306085e-002
3.037385e+003,1.266841e-002
3.039314e+003,1.231320e-002
3.041242e+003,1.202300e-002
3.043171e+003,1.166132e-002
3.045099e+003,1.131256e-002
3.047028e+003,1.110858e-002
3.048956e+003,1.099709e-002
3.050885e+003,1.076362e-002
3.052813e+003,1.054301e-002
3.054742e+003,1.048615e-002
3.056670e+003,1.042769e-002
3.058599e+003,1.035924e-002
3.060527e+003,1.023801e-002
3.062456e+003,1.018470e-002
3.064384e+003,1.015288e-002
3.066313e+003,1.002285e-002
3.068241e+003,1.000443e-002
3.070170e+003,9.977046e-003
3.072098e+003,9.812733e-003
3.074027e+003,9.657960e-003
3.075955e+003,9.520164e-003
3.077884e+003,9.374768e-003
3.079812e+003,9.287251e-003
3.081741e+003,9.152204e-003
3.083669e+003,8.967008e-003
3.085598e+003,8.743307e-003
3.087526e+003,8.562949e-003
3.089455e+003,8.439148e-003
3.091383e+003,8.285102e-003
3.093312e+003,8.104644e-003
3.095240e+003,7.933259e-003
3.097169e+003,7.690586e-003
3.099097e+003,7.426286e-003
3.101026e+003,7.266669e-003
3.102954e+003,7.186429e-003
3.104883e+003,6.995150e-003
3.106811e+003,6.811019e-003
3.108740e+003,6.730532e-003
3.110668e+003,6.677608e-003
3.112597e+003,6.690445e-003
3.114525e+003,6.691068e-003
3.116454e+003,6.652458e-003
3.118382e+003,6.569501e-003
3.120311e+003,6.531976e-003
3.122239e+003,6.536763e-003
3.124168e+003,6.505006e-003
3.126096e+003,6.457340e-003
3.128025e+003,6.476987e-003
3.129953e+003,6.450456e-003
3.131882e+003,6.381576e-003
3.133810e+003,6.570483e-003
3.135739e+003,6.656621e-003
3.137667e+003,6.640306e-003
3.139596e+003,6.628612e-003
3.141524e+003,6.572174e-003
3.143453e+003,6.618494e-003
3.145381e+003,6.716983e-003
3.147310e+003,6.784372e-003
3.149238e+003,6.793926e-003
3.151167e+003,6.886442e-003
3.153095e+003,6.963375e-003
3.155024e+003,6.966044e-003
3.156952e+003,7.003768e-003
3.158881e+003,7.061302e-003
3.160809e+003,7.159001e-003
3.162738e+003,7.135060e-003
3.164666e+003,7.108876e-003
3.166594e+003,7.183260e-003
3.168523e+003,7.326757e-003
3.170452e+003,7.417127e-003
3.172380e+003,7.435121e-003
3.174309e+003,7.443288e-003
3.176237e+003,7.533440e-003
3.178166e+003,7.637308e-003
3.180094e+003,7.766987e-003
3.182022e+003,7.788012e-003
3.183951e+003,7.808837e-003
3.185880e+003,7.873690e-003
3.187808e+003,7.919582e-003
3.189737e+003,7.897778e-003
3.191665e+003,7.919606e-003
3.193594e+003,8.061513e-003
3.195522e+003,8.167966e-003
3.197450e+003,8.189007e-003
3.199379e+003,8.212700e-003
3.201308e+003,8.198814e-003
3.203236e+003,8.181096e-003
3.205165e+003,8.159006e-003
3.207093e+003,8.216630e-003
3.209021e+003,8.347345e-003
3.210950e+003,8.369645e-003
3.212878e+003,8.312580e-003
3.214807e+003,8.402297e-003
3.216736e+003,8.531593e-003
3.218664e+003,8.561539e-003
3.220593e+003,8.574611e-003
3.222521e+003,8.566846e-003
3.224449e+003,8.562353e-003
3.226378e+003,8.633951e-003
3.228307e+003,8.729155e-003
3.230235e+003,8.822978e-003
3.232164e+003,8.853441e-003
3.234092e+003,8.848922e-003
3.236021e+003,8.858697e-003
3.237949e+003,8.913867e-003
3.239877e+003,9.038916e-003
3.241806e+003,9.199517e-003
3.243735e+003,9.315454e-003
3.245663e+003,9.359095e-003
3.247592e+003,9.446514e-003
3.249520e+003,9.498628e-003
3.251448e+003,9.490352e-003
3.253377e+003,9.665183e-003
3.255305e+003,9.775409e-003
3.257234e+003,9.830046e-003
3.259163e+003,9.930796e-003
3.261091e+003,1.011103e-002
3.263020e+003,1.021119e-002
3.264948e+003,1.022982e-002
3.266876e+003,1.032173e-002
3.268805e+003,1.040186e-002
3.270733e+003,1.048456e-002
3.272662e+003,1.061459e-002
3.274591e+003,1.075732e-002
3.276519e+003,1.082973e-002
3.278448e+003,1.076735e-002
3.280376e+003,1.080633e-002
3.282304e+003,1.097040e-002
3.284233e+003,1.108527e-002
3.286161e+003,1.106723e-002
3.288090e+003,1.111979e-002
3.290019e+003,1.120295e-002
3.291947e+003,1.115976e-002
3.293875e+003,1.110160e-002
3.295804e+003,1.113986e-002
3.297732e+003,1.110425e-002
3.299661e+003,1.110763e-002
3.301589e+003,1.121814e-002
3.303518e+003,1.128052e-002
3.305447e+003,1.132306e-002
3.307375e+003,1.132093e-002
3.309303e+003,1.128072e-002
3.311232e+003,1.131607e-002
3.313160e+003,1.132714e-002
3.315089e+003,1.135628e-002
3.317018e+003,1.136000e-002
3.318946e+003,1.125511e-002
3.320875e+003,1.115822e-002
3.322803e+003,1.114850e-002
3.324731e+003,1.119984e-002
3.326660e+003,1.125211e-002
3.328588e+003,1.122301e-002
3.330517e+003,1.124340e-002
3.332446e+003,1.133593e-002
3.334374e+003,1.134294e-002
3.336302e+003,1.129722e-002
3.338231e+003,1.122783e-002
3.340159e+003,1.120007e-002
3.342088e+003,1.119402e-002
3.344016e+003,1.117811e-002
3.345945e+003,1.107538e-002
3.347874e+003,1.113912e-002
3.349802e+003,1.121000e-002
3.351730e+003,1.107294e-002
3.353659e+003,1.100432e-002
3.355587e+003,1.104514e-002
3.357516e+003,1.097606e-002
3.359444e+003,1.085238e-002
3.361373e+003,1.091924e-002
3.363302e+003,1.092749e-002
3.365230e+003,1.092239e-002
3.367158e+003,1.094274e-002
3.369087e+003,1.095030e-002
3.371015e+003,1.084993e-002
3.372944e+003,1.082934e-002
3.374872e+003,1.084170e-002
3.376801e+003,1.070045e-002
3.378729e+003,1.062422e-002
3.380658e+003,1.064895e-002
3.382586e+003,1.057805e-002
3.384515e+003,1.049542e-002
3.386443e+003,1.035297e-002
3.388372e+003,1.028600e-002
3.390300e+003,1.036013e-002
3.392229e+003,1.040207e-002
3.394157e+003,1.028127e-002
3.396086e+003,1.021573e-002
3.398014e+003,1.030059e-002
3.399943e+003,1.027864e-002
3.401871e+003,1.013565e-002
3.403800e+003,1.002454e-002
3.405728e+003,9.981545e-003
3.407657e+003,9.950418e-003
3.409585e+003,9.947052e-003
3.411514e+003,1.001575e-002
3.413442e+003,1.004507e-002
3.415371e+003,9.943599e-003
3.417299e+003,9.798449e-003
3.419228e+003,9.794688e-003
3.421156e+003,9.879120e-003
3.423085e+003,9.849716e-003
3.425013e+003,9.891501e-003
3.426942e+003,9.991597e-003
3.428870e+003,9.880763e-003
3.430799e+003,9.805021e-003
3.432727e+003,9.950634e-003
3.434656e+003,1.001022e-002
3.436584e+003,9.973295e-003
3.438513e+003,9.922802e-003
3.440441e+003,9.838512e-003
3.442370e+003,9.815367e-003
3.444298e+003,9.670293e-003
3.446227e+003,9.775447e-003
3.448155e+003,9.946738e-003
3.450084e+003,9.619555e-003
3.452012e+003,9.451561e-003
3.453941e+003,9.661420e-003
3.455869e+003,9.613235e-003
3.457798e+003,9.510314e-003
3.459726e+003,9.441759e-003
3.461655e+003,9.528499e-003
3.463583e+003,9.662208e-003
3.465512e+003,9.544270e-003
3.467440e+003,9.547282e-003
3.469369e+003,9.590596e-003
3.471297e+003,9.436294e-003
3.473226e+003,9.302804e-003
3.475154e+003,9.205280e-003
3.477083e+003,9.059574e-003
3.479011e+003,8.946992e-003
3.480940e+003,8.961532e-003
3.482868e+003,9.063652e-003
3.484797e+003,8.941527e-003
3.486725e+003,8.703207e-003
3.488654e+003,8.600548e-003
3.490582e+003,8.499611e-003
3.492511e+003,8.353980e-003
3.494439e+003,8.146418e-003
3.496368e+003,8.031801e-003
3.498296e+003,7.884519e-003
3.500225e+003,7.624576e-003
3.502153e+003,7.625157e-003
3.504082e+003,7.756496e-003
3.506010e+003,7.544224e-003
3.507939e+003,7.421347e-003
3.509867e+003,7.481121e-003
3.511796e+003,7.421716e-003
3.513724e+003,7.212038e-003
3.515653e+003,7.095520e-003
3.517581e+003,7.070445e-003
3.519510e+003,6.984794e-003
3.521438e+003,6.803078e-003
3.523367e+003,6.742715e-003
3.525295e+003,6.742434e-003
3.527224e+003,6.760973e-003
3.529152e+003,6.730450e-003
3.531081e+003,6.494218e-003
3.533009e+003,6.180719e-003
3.534938e+003,6.072850e-003
3.536866e+003,6.176158e-003
3.538795e+003,6.031906e-003
3.540723e+003,5.772660e-003
3.542652e+003,5.575444e-003
3.544580e+003,5.395413e-003
3.546509e+003,5.457085e-003
3.548437e+003,5.438209e-003
3.550366e+003,5.192119e-003
3.552294e+003,5.048897e-003
3.554223e+003,4.914179e-003
3.556151e+003,4.665114e-003
3.558080e+003,4.473747e-003
3.560008e+003,4.434904e-003
3.561937e+003,4.037010e-003
3.563865e+003,3.394706e-003
3.565794e+003,3.362711e-003
3.567722e+003,4.230063e-003
3.569651e+003,4.018228e-003
3.571579e+003,3.430376e-003
3.573508e+003,3.172387e-003
3.575436e+003,3.035310e-003
3.577365e+003,2.922190e-003
3.579293e+003,3.017637e-003
3.581222e+003,2.883534e-003
3.583150e+003,2.498970e-003
3.585079e+003,2.159882e-003
3.587007e+003,2.781656e-003
3.588936e+003,3.196799e-003
3.590864e+003,2.668549e-003
3.592793e+003,2.366407e-003
3.594721e+003,2.551626e-003
3.596650e+003,2.601973e-003
3.598578e+003,2.677074e-003
3.600507e+003,3.302923e-003
3.602435e+003,3.650100e-003
3.604364e+003,3.095594e-003
3.606292e+003,2.699245e-003
3.608221e+003,3.079941e-003
3.610149e+003,2.861112e-003
3.612078e+003,2.273903e-003
3.614006e+003,2.249448e-003
3.615935e+003,1.709946e-003
3.617863e+003,1.617549e-003
3.619792e+003,2.249015e-003
3.621720e+003,1.941058e-003
3.623649e+003,1.035773e-003
3.625577e+003,-7.764902e-005
3.627506e+003,-8.084020e-004
3.629434e+003,1.345589e-003
3.631363e+003,1.780058e-003
3.633291e+003,1.382146e-003
3.635220e+003,1.511576e-003
3.637148e+003,1.184313e-003
3.639077e+003,1.024486e-003
3.641005e+003,1.145513e-003
3.642934e+003,1.003546e-003
3.644862e+003,2.118777e-004
3.646791e+003,-4.082453e-004
3.648719e+003,7.851347e-004
3.650648e+003,2.057799e-003
3.652576e+003,1.041152e-003
3.654505e+003,2.047233e-005
3.656433e+003,2.892809e-004
3.658362e+003,5.928716e-004
3.660290e+003,4.505133e-004
3.662219e+003,4.442902e-004
3.664147e+003,2.737995e-004
3.666076e+003,-4.695747e-004
3.668004e+003,-1.002580e-003
3.669933e+003,1.747943e-004
3.671861e+003,1.969747e-005
3.673790e+003,-9.957515e-004
3.675718e+003,5.863803e-004
3.677647e+003,9.388104e-004
3.679575e+003,5.723247e-004
3.681504e+003,2.574828e-004
3.683432e+003,-4.630368e-004
3.685361e+003,-1.338782e-003
3.687289e+003,-1.886196e-003
3.689218e+003,-6.875638e-004
3.691146e+003,7.091295e-004
3.693075e+003,4.690485e-004
3.695003e+003,-1.035631e-005
3.696932e+003,-9.208731e-005
3.698860e+003,-4.659779e-004
3.700789e+003,-5.039647e-004
3.702717e+003,-1.053195e-004
3.704646e+003,-3.107786e-004
3.706574e+003,-9.746011e-004
3.708503e+003,-1.689306e-003
3.710431e+003,-1.054259e-003
3.712360e+003,2.692780e-004
3.714288e+003,1.890771e-005
3.716217e+003,-7.958375e-004
3.718145e+003,-1.263268e-003
3.720074e+003,-1.321305e-003
3.722002e+003,-8.958802e-004
3.723931e+003,-7.479638e-005
3.725859e+003,2.657119e-004
3.727788e+003,-2.471246e-004
3.729716e+003,-1.306552e-003
3.731645e+003,-1.623938e-003
3.733573e+003,-1.060085e-003
3.735502e+003,4.526041e-005
3.737430e+003,8.336967e-004
3.739359e+003,3.991043e-004
3.741287e+003,-6.917380e-004
3.743216e+003,-1.587033e-003
3.745144e+003,-4.870910e-004
3.747073e+003,-9.862296e-004
3.749001e+003,-1.658782e-003
3.750930e+003,-2.845451e-004
3.752858e+003,6.799893e-004
3.754787e+003,-7.007271e-006
3.756715e+003,-6.009024e-004
3.758644e+003,-1.700707e-004
3.760572e+003,2.930379e-004
3.762501e+003,-2.511386e-004
3.764429e+003,-7.032230e-004
3.766358e+003,-4.854966e-004
3.768286e+003,-4.279967e-004
3.770215e+003,2.231514e-004
3.772143e+003,3.931355e-004
3.774072e+003,1.901910e-004
3.776000e+003,-2.842862e-004
3.777929e+003,-6.669238e-004
3.779857e+003,5.709752e-005
3.781786e+003,9.458326e-005
3.783714e+003,-2.577752e-004
3.785643e+003,1.075268e-004
3.787571e+003,1.014452e-004
3.789500e+003,8.614548e-005
3.791428e+003,3.586523e-005
3.793357e+003,-3.973451e-004
3.795285e+003,-3.780723e-004
3.797214e+003,-1.264736e-005
3.799142e+003,-8.397568e-004
3.801071e+003,-6.639734e-004
3.802999e+003,1.066215e-004
3.804927e+003,-3.755055e-004
3.806856e+003,5.516410e-005
3.808785e+003,5.830340e-004
3.810713e+003,2.891161e-004
3.812642e+003,-5.316176e-004
3.814570e+003,-1.011394e-003
3.816499e+003,-2.284013e-004
3.818427e+003,-9.482186e-004
3.820355e+003,-7.443484e-004
3.822284e+003,1.273413e-003
3.824213e+003,8.342145e-004
3.826141e+003,6.808192e-004
3.828070e+003,5.745348e-004
3.829998e+003,-2.311636e-004
3.831927e+003,-4.457328e-004
3.833855e+003,-4.197489e-004
3.835783e+003,-7.430837e-004
3.837712e+003,-1.871251e-004
3.839641e+003,9.361124e-004
3.841569e+003,1.125339e-003
3.843498e+003,1.148267e-003
3.845426e+003,6.418666e-004
3.847354e+003,-3.464650e-004
3.849283e+003,-1.324613e-003
3.851211e+003,-2.396205e-003
3.853140e+003,-1.979433e-004
3.855069e+003,1.897122e-003
3.856997e+003,1.260702e-003
3.858926e+003,4.356178e-004
3.860854e+003,-3.988966e-004
3.862782e+003,-5.068835e-004
3.864711e+003,1.941919e-004
3.866640e+003,-1.963917e-004
3.868568e+003,-7.315930e-004
3.870497e+003,7.156562e-004
3.872425e+003,7.394599e-004
3.874354e+003,1.028175e-003
3.876282e+003,6.851647e-004
3.878210e+003,-3.736168e-004
3.880139e+003,-2.076142e-004
3.882068e+003,1.892038e-004
3.883996e+003,-2.882071e-005
3.885925e+003,8.310312e-004
3.887853e+003,4.844656e-004
3.889781e+003,-1.306199e-004
3.891710e+003,7.990282e-004
3.893638e+003,1.056678e-003
3.895567e+003,2.055392e-004
3.897496e+003,-4.957616e-004
3.899424e+003,-6.184988e-004
3.901353e+003,-3.356691e-004
3.903281e+003,5.269181e-004
3.905209e+003,1.482141e-003
3.907138e+003,1.217001e-003
3.909066e+003,6.068358e-004
3.910995e+003,3.130045e-004
3.912924e+003,1.274571e-004
3.914852e+003,-1.518037e-004
3.916781e+003,5.887076e-005
3.918709e+003,3.845291e-004
3.920637e+003,4.632659e-004
3.922566e+003,3.900984e-004
3.924494e+003,3.993213e-004
3.926423e+003,3.354531e-004
3.928352e+003,-6.029010e-005
3.930280e+003,-2.020784e-005
3.932208e+003,4.900759e-004
3.934137e+003,7.048752e-004
3.936065e+003,4.637567e-004
3.937994e+003,2.515204e-004
3.939922e+003,-3.695115e-005
3.941851e+003,-9.084120e-005
3.943780e+003,1.995768e-004
3.945708e+003,9.599142e-005
3.947636e+003,4.128739e-005
3.949565e+003,3.524311e-004
3.951493e+003,3.601834e-004
3.953422e+003,2.027042e-004
3.955351e+003,7.220916e-005
3.957279e+003,-8.932129e-005
3.959208e+003,-3.384054e-005
3.961136e+003,1.033545e-004
3.963064e+003,2.651494e-004
3.964993e+003,1.542512e-004
3.966921e+003,-3.906153e-005
3.968850e+003,6.944872e-005
3.970779e+003,4.249625e-005
3.972707e+003,-6.235205e-005
3.974635e+003,1.432188e-005
3.976564e+003,1.252703e-004
3.978492e+003,1.158975e-004
3.980421e+003,1.143478e-004
3.982349e+003,1.691431e-004
3.984278e+003,1.206491e-004
3.986207e+003,1.037493e-006
3.988135e+003,-1.144949e-004
3.990063e+003,-9.575486e-005
3.991992e+003,-6.389990e-005
3.993920e+003,-7.122383e-005
3.995849e+003,-1.427904e-005
3.997777e+003,-6.149337e-005
3.999706e+003,-5.728565e-005
4.001635e+003,0.000000e+000
