3.991992e+002,0.000000e+000
4.011277e+002,0.000000e+000
4.030562e+002,0.000000e+000
4.049846e+002,0.000000e+000
4.069131e+002,0.000000e+000
4.088416e+002,0.000000e+000
4.107701e+002,0.000000e+000
4.126986e+002,0.000000e+000
4.146271e+002,0.000000e+000
4.165556e+002,0.000000e+000
4.184841e+002,0.000000e+000
4.204126e+002,0.000000e+000
4.223411e+002,0.000000e+000
4.242697e+002,0.000000e+000
4.261982e+002,0.000000e+000
4.281266e+002,0.000000e+000
4.300551e+002,0.000000e+000
4.319836e+002,0.000000e+000
4.339121e+002,0.000000e+000
4.358406e+002,0.000000e+000
4.377691e+002,0.000000e+000
4.396976e+002,0.000000e+000
4.416261e+002,0.000000e+000
4.435546e+002,0.000000e+000
4.454831e+002,0.000000e+000
4.474116e+002,0.000000e+000
4.493401e+002,0.000000e+000
4.512686e+002,0.000000e+000
4.531971e+002,0.000000e+000
4.551256e+002,0.000000e+000
4.570541e+002,0.000000e+000
4.589826e+002,0.000000e+000
4.609111e+002,0.000000e+000
4.628396e+002,0.000000e+000
4.647681e+002,0.000000e+000
4.666966e+002,0.000000e+000
4.686251e+002,0.000000e+000
4.705536e+002,0.000000e+000
4.724821e+002,0.000000e+000
4.744106e+002,0.000000e+000
4.763391e+002,0.000000e+000
4.782676e+002,0.000000e+000
4.801961e+002,0.000000e+000
4.821246e+002,0.000000e+000
4.840531e+002,0.000000e+000
4.859816e+002,0.000000e+000
4.879101e+002,0.000000e+000
4.898386e+002,0.000000e+000
4.917671e+002,0.000000e+000
4.936956e+002,0.000000e+000
4.956241e+002,0.000000e+000
4.975526e+002,0.000000e+000
4.994811e+002,0.000000e+000
5.014096e+002,0.000000e+000
5.033381e+002,0.000000e+000
5.052666e+002,0.000000e+000
5.071951e+002,0.000000e+000
5.091236e+002,0.000000e+000
5.110521e+002,0.000000e+000
5.129806e+002,0.000000e+000
5.149091e+002,0.000000e+000
5.168376e+002,0.000000e+000
5.187661e+002,0.000000e+000
5.206946e+002,0.000000e+000
5.226230e+002,0.000000e+000
5.245516e+002,-1.228219e-003
5.264800e+002,-1.129964e-003
5.284086e+002,-1.285284e-003
5.303370e+002,-1.478110e-003
5.322656e+002,-1.352508e-003
5.341940e+002,-1.085270e-003
5.361226e+002,-1.016298e-003
5.380510e+002,-1.093693e-003
5.399796e+002,-1.197903e-003
5.419081e+002,-1.248280e-003
5.438365e+002,-1.252521e-003
5.457650e+002,-1.198538e-003
5.476935e+002,-1.146429e-003
5.496221e+002,-1.157833e-003
5.515505e+002,-1.078762e-003
5.534790e+002,-9.626215e-004
5.554075e+002,-9.736242e-004
5.573361e+002,-1.137082e-003
5.592645e+002,-1.240554e-003
5.611931e+002,-1.261223e-003
5.631215e+002,-1.226804e-003
5.650500e+002,-1.211891e-003
5.669785e+002,-1.174889e-003
5.689070e+002,-1.033474e-003
5.708355e+002,-9.854119e-004
5.727640e+002,-1.073574e-003
5.746925e+002,-1.046968e-003
5.766210e+002,-1.040176e-003
5.785495e+002,-1.118251e-003
5.804780e+002,-1.182709e-003
5.824065e+002,-1.135335e-003
5.843350e+002,-1.019939e-003
5.862635e+002,-9.097708e-004
5.881920e+002,-1.011128e-003
5.901205e+002,-1.116090e-003
5.920490e+002,-1.160545e-003
5.939775e+002,-1.127052e-003
5.959060e+002,-1.034794e-003
5.978345e+002,-8.462043e-004
5.997630e+002,-7.951763e-004
6.016915e+002,-7.907599e-004
6.036200e+002,-7.329639e-004
6.055485e+002,-6.127702e-004
6.074770e+002,-5.929442e-004
6.094055e+002,-6.374596e-004
6.113340e+002,-6.554900e-004
6.132625e+002,-6.211689e-004
6.151910e+002,-6.726822e-004
6.171195e+002,-7.252740e-004
6.190480e+002,-6.612344e-004
6.209765e+002,-4.548393e-004
6.229050e+002,-4.779156e-004
6.248335e+002,-4.536873e-004
6.267620e+002,-4.285267e-004
6.286905e+002,-3.791135e-004
6.306190e+002,-3.787661e-004
6.325475e+002,-3.332086e-004
6.344760e+002,-3.593303e-004
6.364045e+002,-2.469858e-004
6.383330e+002,-1.616636e-004
6.402615e+002,-1.016380e-004
6.421899e+002,-7.549208e-005
6.441185e+002,2.793968e-007
6.460470e+002,2.655201e-006
6.479755e+002,5.757902e-005
6.499039e+002,1.917686e-005
6.518325e+002,-5.760137e-005
6.537610e+002,-3.486779e-005
6.556895e+002,1.178514e-004
6.576179e+002,1.846310e-004
6.595464e+002,3.794869e-004
6.614750e+002,4.386567e-004
6.634034e+002,4.388914e-004
6.653319e+002,4.220465e-004
6.672604e+002,4.330911e-004
6.691890e+002,5.417094e-004
6.711174e+002,6.649690e-004
6.730460e+002,7.363269e-004
6.749745e+002,9.357706e-004
6.769030e+002,1.059043e-003
6.788314e+002,1.322628e-003
6.807599e+002,1.482922e-003
6.826885e+002,1.609120e-003
6.846169e+002,1.641813e-003
6.865454e+002,1.812806e-003
6.884739e+002,1.944506e-003
6.904025e+002,2.238947e-003
6.923309e+002,2.493586e-003
6.942594e+002,2.892664e-003
6.961879e+002,3.322885e-003
6.981165e+002,3.900419e-003
7.000449e+002,4.567673e-003
7.019734e+002,5.571895e-003
7.039019e+002,6.753247e-003
7.058304e+002,8.473156e-003
7.077589e+002,1.082582e-002
7.096874e+002,1.441979e-002
7.116159e+002,2.032869e-002
7.135444e+002,3.204180e-002
7.154729e+002,5.328207e-002
7.174014e+002,8.252621e-002
7.193299e+002,9.046140e-002
7.212584e+002,5.923958e-002
7.231869e+002,3.408523e-002
7.251154e+002,2.836485e-002
7.270439e+002,3.685653e-002
7.289724e+002,5.922323e-002
7.309009e+002,6.307463e-002
7.328294e+002,3.434507e-002
7.347579e+002,1.333843e-002
7.366864e+002,6.381962e-003
7.386149e+002,3.967223e-003
7.405434e+002,2.728948e-003
7.424719e+002,2.112253e-003
7.444004e+002,1.646439e-003
7.463289e+002,1.339951e-003
7.482574e+002,1.055036e-003
7.501859e+002,9.355294e-004
7.521144e+002,7.853787e-004
7.540428e+002,6.941659e-004
7.559714e+002,5.495222e-004
7.578999e+002,4.954478e-004
7.598284e+002,4.129168e-004
7.617568e+002,3.623785e-004
7.636854e+002,3.862707e-004
7.656139e+002,3.901012e-004
7.675424e+002,2.737837e-004
7.694709e+002,2.836687e-004
7.713994e+002,2.822792e-004
7.733279e+002,2.493542e-004
7.752563e+002,1.715925e-004
7.771849e+002,1.838664e-004
7.791134e+002,2.160519e-004
7.810419e+002,2.454128e-004
7.829703e+002,2.304111e-004
7.848989e+002,3.335942e-004
7.868274e+002,4.093274e-004
7.887559e+002,5.077738e-004
7.906843e+002,6.177770e-004
7.926129e+002,7.704394e-004
7.945414e+002,8.606045e-004
7.964698e+002,9.246888e-004
7.983983e+002,9.840028e-004
8.003268e+002,1.056857e-003
8.022554e+002,1.116846e-003
8.041838e+002,1.096089e-003
8.061123e+002,9.448994e-004
8.080408e+002,8.900696e-004
8.099694e+002,9.435751e-004
8.118978e+002,1.000249e-003
8.138263e+002,9.671608e-004
8.157548e+002,8.952562e-004
8.176833e+002,7.784832e-004
8.196118e+002,7.469468e-004
8.215403e+002,7.269485e-004
8.234689e+002,6.641578e-004
8.253973e+002,6.448403e-004
8.273258e+002,6.038584e-004
8.292543e+002,5.213432e-004
8.311829e+002,5.065436e-004
8.331113e+002,4.579443e-004
8.350398e+002,4.179617e-004
8.369683e+002,3.852174e-004
8.388969e+002,3.638826e-004
8.408253e+002,3.903946e-004
8.427538e+002,4.034266e-004
8.446823e+002,4.214849e-004
8.466108e+002,4.625954e-004
8.485393e+002,5.235467e-004
8.504678e+002,5.826736e-004
8.523963e+002,6.004358e-004
8.543248e+002,5.920297e-004
8.562533e+002,5.878741e-004
8.581818e+002,5.933912e-004
8.601103e+002,5.497094e-004
8.620388e+002,5.559837e-004
8.639673e+002,5.797474e-004
8.658958e+002,5.925214e-004
8.678243e+002,5.799746e-004
8.697528e+002,6.256951e-004
8.716813e+002,6.552171e-004
8.736098e+002,6.832499e-004
8.755383e+002,7.045940e-004
8.774668e+002,6.774981e-004
8.793953e+002,6.664610e-004
8.813238e+002,6.896490e-004
8.832523e+002,8.246945e-004
8.851808e+002,9.528659e-004
8.871093e+002,1.001660e-003
8.890378e+002,9.721015e-004
8.909663e+002,9.125154e-004
8.928948e+002,9.013433e-004
8.948232e+002,1.002940e-003
8.967518e+002,1.116718e-003
8.986803e+002,1.205722e-003
9.006088e+002,1.439194e-003
9.025372e+002,1.841178e-003
9.044658e+002,2.388889e-003
9.063943e+002,3.125998e-003
9.083228e+002,3.586913e-003
9.102512e+002,3.078882e-003
9.121797e+002,2.188276e-003
9.141083e+002,1.536495e-003
9.160367e+002,1.204520e-003
9.179653e+002,1.110344e-003
9.198937e+002,9.959098e-004
9.218223e+002,9.015324e-004
9.237507e+002,9.015650e-004
9.256793e+002,9.435946e-004
9.276077e+002,9.981692e-004
9.295363e+002,9.771688e-004
9.314647e+002,9.188885e-004
9.333932e+002,9.197239e-004
9.353217e+002,9.685950e-004
9.372502e+002,1.049373e-003
9.391787e+002,1.057350e-003
9.411072e+002,1.065015e-003
9.430358e+002,1.075297e-003
9.449642e+002,1.068411e-003
9.468928e+002,1.106174e-003
9.488212e+002,1.156583e-003
9.507498e+002,1.152575e-003
9.526782e+002,1.191124e-003
9.546068e+002,1.275091e-003
9.565352e+002,1.360295e-003
9.584637e+002,1.373942e-003
9.603922e+002,1.381490e-003
9.623207e+002,1.445263e-003
9.642492e+002,1.514560e-003
9.661777e+002,1.521165e-003
9.681062e+002,1.563889e-003
9.700347e+002,1.576822e-003
9.719632e+002,1.560961e-003
9.738917e+002,1.459363e-003
9.758202e+002,1.428346e-003
9.777487e+002,1.472147e-003
9.796772e+002,1.537764e-003
9.816057e+002,1.566435e-003
9.835342e+002,1.699004e-003
9.854627e+002,1.937953e-003
9.873912e+002,2.193827e-003
9.893197e+002,2.358294e-003
9.912482e+002,2.398672e-003
9.931767e+002,2.342648e-003
9.951052e+002,2.249491e-003
9.970337e+002,2.231918e-003
9.989622e+002,2.250364e-003
1.000891e+003,2.205973e-003
1.002819e+003,2.266765e-003
1.004748e+003,2.343149e-003
1.006676e+003,2.476711e-003
1.008605e+003,2.704246e-003
1.010533e+003,2.925748e-003
1.012462e+003,3.188694e-003
1.014390e+003,3.382387e-003
1.016319e+003,3.470063e-003
1.018247e+003,3.565058e-003
1.020176e+003,3.581990e-003
1.022104e+003,3.522678e-003
1.024033e+003,3.466612e-003
1.025961e+003,3.384193e-003
1.027890e+003,3.285128e-003
1.029818e+003,3.257227e-003
1.031747e+003,3.242243e-003
1.033675e+003,3.212006e-003
1.035604e+003,3.210151e-003
1.037532e+003,3.267302e-003
1.039461e+003,3.305880e-003
1.041389e+003,3.352234e-003
1.043318e+003,3.365584e-003
1.045246e+003,3.387727e-003
1.047175e+003,3.410862e-003
1.049103e+003,3.583530e-003
1.051032e+003,3.714026e-003
1.052960e+003,3.565335e-003
1.054889e+003,3.393059e-003
1.056817e+003,3.370643e-003
1.058746e+003,3.363520e-003
1.060674e+003,3.406531e-003
1.062603e+003,3.469948e-003
1.064531e+003,3.530506e-003
1.066460e+003,3.537967e-003
1.068388e+003,3.546245e-003
1.070317e+003,3.625050e-003
1.072245e+003,3.774611e-003
1.074174e+003,3.914158e-003
1.076102e+003,4.056354e-003
1.078031e+003,4.202531e-003
1.079959e+003,4.325842e-003
1.081888e+003,4.392460e-003
1.083816e+003,4.458250e-003
1.085745e+003,4.436136e-003
1.087673e+003,4.392529e-003
1.089602e+003,4.391225e-003
1.091530e+003,4.450263e-003
1.093459e+003,4.473591e-003
1.095387e+003,4.479134e-003
1.097316e+003,4.472234e-003
1.099244e+003,4.429629e-003
1.101173e+003,4.309326e-003
1.103101e+003,4.304796e-003
1.105030e+003,4.265960e-003
1.106958e+003,4.176604e-003
1.108887e+003,4.135477e-003
1.110815e+003,4.157285e-003
1.112744e+003,4.098590e-003
1.114672e+003,4.057133e-003
1.116601e+003,4.026690e-003
1.118529e+003,3.957898e-003
1.120458e+003,3.857916e-003
1.122386e+003,3.781214e-003
1.124315e+003,3.662670e-003
1.126243e+003,3.597141e-003
1.128172e+003,3.588433e-003
1.130100e+003,3.590791e-003
1.132029e+003,3.609005e-003
1.133957e+003,3.717239e-003
1.135885e+003,3.837523e-003
1.137814e+003,3.953718e-003
1.139743e+003,4.039585e-003
1.141671e+003,4.160447e-003
1.143600e+003,4.259807e-003
1.145528e+003,4.327307e-003
1.147457e+003,4.452110e-003
1.149385e+003,4.633319e-003
1.151314e+003,4.835146e-003
1.153242e+003,5.072943e-003
1.155171e+003,5.259545e-003
1.157099e+003,5.417167e-003
1.159028e+003,5.468603e-003
1.160956e+003,5.504419e-003
1.162885e+003,5.506819e-003
1.164813e+003,5.442508e-003
1.166742e+003,5.322183e-003
1.168670e+003,5.158912e-003
1.170599e+003,4.944159e-003
1.172527e+003,4.836494e-003
1.174456e+003,4.836177e-003
1.176384e+003,4.784337e-003
1.178313e+003,4.475424e-003
1.180241e+003,4.218801e-003
1.182170e+003,4.063225e-003
1.184098e+003,4.028911e-003
1.186027e+003,3.958656e-003
1.187955e+003,3.896255e-003
1.189884e+003,3.872354e-003
1.191812e+003,3.888651e-003
1.193740e+003,3.844640e-003
1.195669e+003,3.826427e-003
1.197598e+003,3.855167e-003
1.199526e+003,3.884271e-003
1.201455e+003,3.923613e-003
1.203383e+003,4.023929e-003
1.205312e+003,4.150657e-003
1.207240e+003,4.262497e-003
1.209168e+003,4.367093e-003
1.211097e+003,4.447140e-003
1.213026e+003,4.488446e-003
1.214954e+003,4.584214e-003
1.216883e+003,4.638824e-003
1.218811e+003,4.737104e-003
1.220740e+003,4.823270e-003
1.222668e+003,4.900456e-003
1.224596e+003,4.963393e-003
1.226525e+003,5.064709e-003
1.228453e+003,5.141193e-003
1.230382e+003,5.239547e-003
1.232311e+003,5.324734e-003
1.234239e+003,5.415359e-003
1.236167e+003,5.463448e-003
1.238096e+003,5.508866e-003
1.240025e+003,5.493567e-003
1.241953e+003,5.470906e-003
1.243882e+003,5.422940e-003
1.245810e+003,5.351491e-003
1.247739e+003,5.223837e-003
1.249667e+003,5.113697e-003
1.251595e+003,5.054084e-003
1.253524e+003,5.083143e-003
1.255453e+003,5.153660e-003
1.257381e+003,5.295943e-003
1.259310e+003,5.420919e-003
1.261238e+003,5.525667e-003
1.263167e+003,5.463947e-003
1.265095e+003,5.271232e-003
1.267023e+003,4.971380e-003
1.268952e+003,4.734508e-003
1.270880e+003,4.528631e-003
1.272809e+003,4.418205e-003
1.274738e+003,4.357067e-003
1.276666e+003,4.342968e-003
1.278594e+003,4.325883e-003
1.280523e+003,4.343002e-003
1.282451e+003,4.360524e-003
1.284380e+003,4.461853e-003
1.286308e+003,4.549982e-003
1.288237e+003,4.696494e-003
1.290166e+003,4.788504e-003
1.292094e+003,4.934747e-003
1.294022e+003,5.096227e-003
1.295951e+003,5.290583e-003
1.297879e+003,5.417921e-003
1.299808e+003,5.542092e-003
1.301736e+003,5.582836e-003
1.303665e+003,5.621275e-003
1.305594e+003,5.586103e-003
1.307522e+003,5.518852e-003
1.309450e+003,5.372014e-003
1.311379e+003,5.287807e-003
1.313307e+003,5.072370e-003
1.315236e+003,4.857780e-003
1.317164e+003,4.690111e-003
1.319093e+003,4.561001e-003
1.321021e+003,4.318956e-003
1.322950e+003,4.112452e-003
1.324878e+003,3.942734e-003
1.326807e+003,3.928600e-003
1.328735e+003,3.898753e-003
1.330664e+003,3.947051e-003
1.332592e+003,4.026433e-003
1.334521e+003,4.234808e-003
1.336449e+003,4.558500e-003
1.338378e+003,5.093113e-003
1.340306e+003,5.372256e-003
1.342235e+003,5.444800e-003
1.344163e+003,5.602337e-003
1.346092e+003,5.929245e-003
1.348021e+003,6.289797e-003
1.349949e+003,6.680043e-003
1.351877e+003,6.841049e-003
1.353806e+003,6.884364e-003
1.355734e+003,6.778359e-003
1.357663e+003,6.765617e-003
1.359591e+003,6.919974e-003
1.361520e+003,7.399535e-003
1.363448e+003,7.848350e-003
1.365377e+003,8.146964e-003
1.367305e+003,8.415524e-003
1.369234e+003,8.353475e-003
1.371162e+003,7.785236e-003
1.373091e+003,7.351769e-003
1.375019e+003,6.887961e-003
1.376948e+003,6.455369e-003
1.378876e+003,5.735045e-003
1.380805e+003,4.930113e-003
1.382733e+003,4.345695e-003
1.384662e+003,4.180657e-003
1.386590e+003,4.163299e-003
1.388519e+003,4.045796e-003
1.390447e+003,3.815915e-003
1.392376e+003,3.892794e-003
1.394304e+003,4.032848e-003
1.396233e+003,4.248159e-003
1.398161e+003,4.225871e-003
1.400090e+003,4.232626e-003
1.402018e+003,4.107315e-003
1.403947e+003,4.329266e-003
1.405875e+003,4.381208e-003
1.407804e+003,4.428566e-003
1.409732e+003,4.519150e-003
1.411661e+003,4.818192e-003
1.413589e+003,4.963724e-003
1.415518e+003,5.304277e-003
1.417446e+003,5.546821e-003
1.419375e+003,5.972849e-003
1.421303e+003,6.024845e-003
1.423232e+003,6.596087e-003
1.425160e+003,7.242151e-003
1.427089e+003,8.089799e-003
1.429017e+003,9.364618e-003
1.430946e+003,1.108173e-002
1.432874e+003,1.230038e-002
1.434803e+003,1.357420e-002
1.436731e+003,1.491051e-002
1.438660e+003,1.595642e-002
1.440588e+003,1.649430e-002
1.442517e+003,1.740863e-002
1.444445e+003,1.812342e-002
1.446374e+003,1.932409e-002
1.448302e+003,2.091759e-002
1.450231e+003,2.332553e-002
1.452159e+003,2.703058e-002
1.454088e+003,3.224967e-002
1.456016e+003,3.858514e-002
1.457945e+003,6.096179e-002
1.459873e+003,1.019230e-001
1.461802e+003,1.308263e-001
1.463730e+003,1.134435e-001
1.465659e+003,7.626647e-002
1.467587e+003,7.293499e-002
1.469516e+003,8.352771e-002
1.471444e+003,1.140445e-001
1.473373e+003,1.097646e-001
1.475301e+003,5.501674e-002
1.477230e+003,2.016859e-002
1.479158e+003,1.078254e-002
1.481087e+003,7.218469e-003
1.483015e+003,5.772589e-003
1.484944e+003,4.678851e-003
1.486872e+003,4.710378e-003
1.488801e+003,4.376890e-003
1.490729e+003,4.271328e-003
1.492658e+003,3.413765e-003
1.494586e+003,3.436785e-003
1.496515e+003,3.130069e-003
1.498443e+003,3.323512e-003
1.500372e+003,2.946138e-003
1.502300e+003,2.856730e-003
1.504229e+003,2.630832e-003
1.506157e+003,3.481915e-003
1.508086e+003,3.394438e-003
1.510014e+003,3.040435e-003
1.511943e+003,2.493870e-003
1.513871e+003,2.596948e-003
1.515800e+003,2.722658e-003
1.517728e+003,2.918204e-003
1.519657e+003,2.646266e-003
1.521585e+003,3.144387e-003
1.523514e+003,2.751665e-003
1.525442e+003,2.848951e-003
1.527371e+003,2.553402e-003
1.529299e+003,2.377558e-003
1.531228e+003,2.294222e-003
1.533156e+003,2.728837e-003
1.535085e+003,2.553636e-003
1.537013e+003,2.598906e-003
1.538942e+003,2.688225e-003
1.540870e+003,3.238199e-003
1.542799e+003,2.924703e-003
1.544727e+003,2.729725e-003
1.546656e+003,2.198346e-003
1.548584e+003,2.303829e-003
1.550513e+003,2.379382e-003
1.552441e+003,2.350174e-003
1.554370e+003,2.328247e-003
1.556298e+003,2.343282e-003
1.558227e+003,2.293203e-003
1.560155e+003,2.470532e-003
1.562084e+003,2.036687e-003
1.564012e+003,1.983272e-003
1.565941e+003,1.889093e-003
1.567869e+003,2.094422e-003
1.569798e+003,2.172573e-003
1.571726e+003,1.953244e-003
1.573655e+003,1.843177e-003
1.575583e+003,2.153568e-003
1.577512e+003,2.098260e-003
1.579440e+003,1.965076e-003
1.581369e+003,1.870576e-003
1.583297e+003,1.895659e-003
1.585226e+003,1.875829e-003
1.587154e+003,1.901582e-003
1.589083e+003,1.843767e-003
1.591011e+003,1.832800e-003
1.592940e+003,1.789393e-003
1.594868e+003,1.881078e-003
1.596797e+003,1.757661e-003
1.598725e+003,1.737405e-003
1.600654e+003,1.754852e-003
1.602582e+003,1.843395e-003
1.604511e+003,1.742741e-003
1.606439e+003,1.749890e-003
1.608368e+003,1.793528e-003
1.610296e+003,1.817357e-003
1.612225e+003,1.717808e-003
1.614153e+003,1.848387e-003
1.616082e+003,2.097011e-003
1.618010e+003,2.177898e-003
1.619939e+003,1.944453e-003
1.621867e+003,2.015818e-003
1.623796e+003,2.077036e-003
1.625724e+003,2.076132e-003
1.627653e+003,2.126416e-003
1.629581e+003,2.154611e-003
1.631510e+003,2.074052e-003
1.633438e+003,2.218541e-003
1.635367e+003,2.568347e-003
1.637295e+003,2.883153e-003
1.639224e+003,2.759792e-003
1.641152e+003,2.714710e-003
1.643081e+003,2.515774e-003
1.645009e+003,2.652710e-003
1.646938e+003,3.003646e-003
1.648866e+003,2.709085e-003
1.650795e+003,2.289746e-003
1.652723e+003,2.547782e-003
1.654652e+003,2.578204e-003
1.656580e+003,2.161453e-003
1.658509e+003,1.863191e-003
1.660437e+003,1.902062e-003
1.662366e+003,2.051368e-003
1.664294e+003,1.943117e-003
1.666223e+003,1.745284e-003
1.668151e+003,1.847833e-003
1.670080e+003,1.777954e-003
1.672008e+003,1.677858e-003
1.673937e+003,1.530724e-003
1.675865e+003,1.641734e-003
1.677794e+003,1.561856e-003
1.679722e+003,1.703186e-003
1.681651e+003,1.649296e-003
1.683579e+003,1.896741e-003
1.685508e+003,1.548808e-003
1.687436e+003,1.413180e-003
1.689365e+003,1.294978e-003
1.691293e+003,1.153866e-003
1.693222e+003,1.064122e-003
1.695150e+003,1.382986e-003
1.697079e+003,1.717279e-003
1.699007e+003,1.700962e-003
1.700936e+003,1.535272e-003
1.702864e+003,1.375612e-003
1.704793e+003,1.391055e-003
1.706721e+003,1.420882e-003
1.708650e+003,1.296852e-003
1.710578e+003,1.375332e-003
1.712507e+003,1.436183e-003
1.714435e+003,1.809565e-003
1.716364e+003,1.950461e-003
1.718292e+003,1.810854e-003
1.720221e+003,1.464535e-003
1.722149e+003,1.434987e-003
1.724078e+003,1.488272e-003
1.726006e+003,1.608733e-003
1.727935e+003,1.769703e-003
1.729863e+003,2.151538e-003
1.731792e+003,2.381435e-003
1.733720e+003,2.974812e-003
1.735649e+003,3.289709e-003
1.737577e+003,3.473764e-003
1.739506e+003,4.073843e-003
1.741434e+003,4.709195e-003
1.743363e+003,5.345978e-003
1.745291e+003,5.819052e-003
1.747220e+003,5.949771e-003
1.749148e+003,5.811837e-003
1.751077e+003,4.954627e-003
1.753005e+003,3.938481e-003
1.754934e+003,3.161713e-003
1.756862e+003,2.569757e-003
1.758791e+003,1.944195e-003
1.760719e+003,1.580993e-003
1.762648e+003,1.129609e-003
1.764576e+003,7.260889e-004
1.766505e+003,4.788525e-004
1.768433e+003,5.125981e-004
1.770362e+003,5.877428e-004
1.772290e+003,7.644109e-004
1.774219e+003,4.141387e-004
1.776147e+003,2.046991e-004
1.778076e+003,9.500235e-005
1.780004e+003,1.498219e-004
1.781933e+003,1.963042e-005
1.783861e+003,3.349967e-005
1.785790e+003,3.584102e-005
1.787718e+003,-7.114746e-005
1.789646e+003,-1.099613e-004
1.791575e+003,1.562312e-004
1.793504e+003,6.763451e-005
1.795432e+003,1.924112e-006
1.797361e+003,-1.405776e-004
1.799289e+003,-1.368448e-004
1.801218e+003,-1.163967e-004
1.803146e+003,-2.148058e-004
1.805074e+003,-3.686585e-004
1.807003e+003,-2.545714e-004
1.808932e+003,-2.308972e-004
1.810860e+003,-2.949163e-004
1.812789e+003,-5.363598e-004
1.814717e+003,-7.690676e-004
1.816646e+003,-8.604582e-004
1.818574e+003,-5.882867e-004
1.820502e+003,-4.186891e-004
1.822431e+003,-3.299341e-004
1.824360e+003,-5.142353e-004
1.826288e+003,-5.029589e-004
1.828217e+003,-6.017685e-004
1.830145e+003,-7.586163e-004
1.832073e+003,-1.055427e-003
1.834002e+003,-9.794403e-004
1.835931e+003,-8.900147e-004
1.837859e+003,-8.953102e-004
1.839788e+003,-9.919889e-004
1.841716e+003,-9.021405e-004
1.843645e+003,-1.018591e-003
1.845573e+003,-9.772554e-004
1.847501e+003,-1.007695e-003
1.849430e+003,-9.862576e-004
1.851359e+003,-1.189763e-003
1.853287e+003,-1.228346e-003
1.855216e+003,-1.268657e-003
1.857144e+003,-1.180416e-003
1.859073e+003,-1.286935e-003
1.861001e+003,-1.237100e-003
1.862929e+003,-1.422148e-003
1.864858e+003,-1.428531e-003
1.866787e+003,-1.375997e-003
1.868715e+003,-1.103051e-003
1.870644e+003,-1.105852e-003
1.872572e+003,-1.195921e-003
1.874500e+003,-1.419621e-003
1.876429e+003,-1.306206e-003
1.878357e+003,-1.258695e-003
1.880286e+003,-1.106311e-003
1.882215e+003,-1.262272e-003
1.884143e+003,-1.002606e-003
1.886072e+003,-9.780563e-004
1.888000e+003,-9.147301e-004
1.889928e+003,-1.001116e-003
1.891857e+003,-7.639900e-004
1.893785e+003,-5.939584e-004
1.895714e+003,-3.942419e-004
1.897643e+003,-6.667171e-004
1.899571e+003,-6.542355e-004
1.901500e+003,-6.456431e-004
1.903428e+003,-6.370563e-004
1.905356e+003,-6.284770e-004
1.907285e+003,-6.199069e-004
1.909213e+003,-6.113444e-004
1.911142e+003,-6.027855e-004
1.913071e+003,-5.942378e-004
1.914999e+003,-5.856976e-004
1.916927e+003,-5.771648e-004
1.918856e+003,-5.686395e-004
1.920784e+003,-5.601216e-004
1.922713e+003,-5.516093e-004
1.924641e+003,-5.431063e-004
1.926570e+003,-5.346127e-004
1.928499e+003,-5.261246e-004
1.930427e+003,-5.176477e-004
1.932355e+003,-5.091745e-004
1.934284e+003,-5.007088e-004
1.936212e+003,-4.922543e-004
1.938141e+003,-4.838053e-004
1.940070e+003,-4.753601e-004
1.941998e+003,-4.669260e-004
1.943927e+003,-4.585013e-004
1.945855e+003,-4.500821e-004
1.947783e+003,-4.416686e-004
1.949712e+003,-4.332662e-004
1.951640e+003,-4.248694e-004
1.953569e+003,-4.164819e-004
1.955498e+003,-4.080981e-004
1.957426e+003,-3.997274e-004
1.959354e+003,-3.913622e-004
1.961283e+003,-3.830045e-004
1.963211e+003,-3.746543e-004
1.965140e+003,-3.663115e-004
1.967068e+003,-3.579762e-004
1.968997e+003,-3.496464e-004
1.970926e+003,-3.413260e-004
1.972854e+003,-3.330130e-004
1.974782e+003,-3.247093e-004
1.976711e+003,-3.164131e-004
1.978639e+003,-3.081206e-004
1.980568e+003,-2.998393e-004
1.982496e+003,-2.915673e-004
1.984425e+003,-2.832972e-004
1.986354e+003,-2.750382e-004
1.988282e+003,-2.667867e-004
1.990210e+003,-2.585426e-004
1.992139e+003,-2.503078e-004
1.994067e+003,-2.420787e-004
1.995996e+003,-2.338551e-004
1.997924e+003,-2.256446e-004
1.999853e+003,-2.174359e-004
2.001781e+003,-2.092402e-004
2.003710e+003,-2.010483e-004
2.005638e+003,-1.928657e-004
2.007567e+003,-1.846887e-004
2.009495e+003,-1.765210e-004
2.011424e+003,-1.683608e-004
2.013352e+003,-1.602061e-004
2.015281e+003,-1.520608e-004
2.017209e+003,-1.439247e-004
2.019138e+003,-1.357961e-004
2.021066e+003,-1.276713e-004
2.022995e+003,-1.195576e-004
2.024923e+003,-1.114495e-004
2.026852e+003,-1.033507e-004
2.028781e+003,-9.525754e-005
2.030709e+003,-8.717366e-005
2.032637e+003,-7.909909e-005
2.034566e+003,-7.103011e-005
2.036494e+003,-6.296486e-005
2.038423e+003,-5.491264e-005
2.040351e+003,-4.686601e-005
2.042280e+003,-3.882498e-005
2.044208e+003,-3.079697e-005
2.046137e+003,-2.277270e-005
2.048065e+003,-1.475960e-005
2.049994e+003,-6.752089e-006
2.051922e+003,1.251698e-006
2.053851e+003,9.248033e-006
2.055779e+003,1.723319e-005
2.057708e+003,2.520904e-005
2.059636e+003,3.317930e-005
2.061565e+003,4.114024e-005
2.063493e+003,4.909560e-005
2.065422e+003,5.704351e-005
2.067350e+003,6.498396e-005
2.069279e+003,7.291883e-005
2.071207e+003,8.084252e-005
2.073136e+003,8.875690e-005
2.075064e+003,9.666570e-005
2.076993e+003,1.045670e-004
2.078921e+003,1.124628e-004
2.080850e+003,1.203511e-004
2.082778e+003,1.282301e-004
2.084707e+003,1.361016e-004
2.086635e+003,1.439638e-004
2.088564e+003,1.518205e-004
2.090492e+003,1.596697e-004
2.092421e+003,1.675114e-004
2.094349e+003,1.753438e-004
2.096278e+003,1.831707e-004
2.098206e+003,1.909900e-004
2.100135e+003,1.987983e-004
2.102063e+003,2.066009e-004
2.103992e+003,2.143960e-004
2.105920e+003,2.221838e-004
2.107849e+003,2.299659e-004
2.109777e+003,2.377387e-004
2.111706e+003,2.455022e-004
2.113634e+003,2.532601e-004
2.115563e+003,2.610106e-004
2.117491e+003,2.687518e-004
2.119420e+003,2.764892e-004
2.121348e+003,2.842154e-004
2.123277e+003,2.919342e-004
2.125205e+003,2.996437e-004
2.127134e+003,3.073476e-004
2.129062e+003,3.150459e-004
2.130991e+003,3.227349e-004
2.132919e+003,3.304165e-004
2.134848e+003,3.380887e-004
2.136776e+003,3.457572e-004
2.138705e+003,3.534146e-004
2.140633e+003,3.610644e-004
2.142562e+003,3.687106e-004
2.144490e+003,3.763456e-004
2.146419e+003,3.839750e-004
2.148347e+003,3.915951e-004
2.150276e+003,3.992077e-004
2.152204e+003,4.068129e-004
2.154133e+003,4.144106e-004
2.156061e+003,4.220027e-004
2.157990e+003,4.295819e-004
2.159918e+003,4.371572e-004
2.161847e+003,4.447233e-004
2.163775e+003,4.522838e-004
2.165704e+003,4.598331e-004
2.167632e+003,4.673786e-004
2.169561e+003,4.749149e-004
2.171489e+003,4.824437e-004
2.173418e+003,4.899688e-004
2.175346e+003,4.974846e-004
2.177275e+003,5.049910e-004
2.179203e+003,5.124900e-004
2.181132e+003,5.199797e-004
2.183060e+003,5.274620e-004
2.184989e+003,5.349368e-004
2.186917e+003,5.424079e-004
2.188846e+003,5.498677e-004
2.190774e+003,5.573202e-004
2.192703e+003,5.647670e-004
2.194631e+003,5.722027e-004
2.196560e+003,5.796328e-004
2.198488e+003,5.870555e-004
2.200417e+003,5.944744e-004
2.202345e+003,6.018803e-004
2.204274e+003,6.092843e-004
2.206202e+003,6.166752e-004
2.208131e+003,6.240606e-004
2.210059e+003,6.314348e-004
2.211988e+003,6.388035e-004
2.213916e+003,6.461628e-004
2.215845e+003,6.535165e-004
2.217773e+003,6.608665e-004
2.219702e+003,6.682053e-004
2.221630e+003,6.755367e-004
2.223559e+003,6.828606e-004
2.225487e+003,6.901771e-004
2.227416e+003,6.974880e-004
2.229344e+003,7.047858e-004
2.231273e+003,7.120855e-004
2.233201e+003,7.193703e-004
2.235130e+003,7.266477e-004
2.237058e+003,7.339157e-004
2.238987e+003,7.411782e-004
2.240915e+003,7.484332e-004
2.242844e+003,7.556807e-004
2.244772e+003,7.629246e-004
2.246701e+003,7.701535e-004
2.248629e+003,7.773805e-004
2.250558e+003,7.845983e-004
2.252486e+003,7.918105e-004
2.254415e+003,7.990096e-004
2.256343e+003,8.062050e-004
2.258272e+003,8.133892e-004
2.260200e+003,8.205716e-004
2.262129e+003,8.277465e-004
2.264057e+003,8.349083e-004
2.265986e+003,8.420628e-004
2.267914e+003,8.492116e-004
2.269843e+003,8.563530e-004
2.271771e+003,8.634869e-004
2.273700e+003,8.706115e-004
2.275628e+003,8.777324e-004
2.277557e+003,8.848459e-004
2.279485e+003,8.919500e-004
2.281414e+003,8.990448e-004
2.283342e+003,9.061303e-004
2.285271e+003,9.132102e-004
2.287199e+003,9.202845e-004
2.289128e+003,9.273551e-004
2.291056e+003,9.344108e-004
2.292985e+003,9.414572e-004
2.294913e+003,9.485018e-004
2.296842e+003,9.555370e-004
2.298770e+003,9.625629e-004
2.300699e+003,9.695813e-004
2.302627e+003,9.765960e-004
2.304556e+003,9.836014e-004
2.306484e+003,9.906013e-004
2.308413e+003,9.975862e-004
2.310341e+003,1.004567e-003
2.312270e+003,1.011541e-003
2.314198e+003,1.018507e-003
2.316127e+003,1.025466e-003
2.318055e+003,1.032418e-003
2.319984e+003,1.039363e-003
2.321912e+003,1.046300e-003
2.323841e+003,1.053229e-003
2.325769e+003,1.060147e-003
2.327698e+003,1.067061e-003
2.329626e+003,1.073966e-003
2.331555e+003,1.080861e-003
2.333483e+003,1.087759e-003
2.335412e+003,1.094639e-003
2.337340e+003,1.101514e-003
2.339269e+003,1.108382e-003
2.341197e+003,1.115242e-003
2.343126e+003,1.122093e-003
2.345054e+003,1.128938e-003
2.346983e+003,1.135780e-003
2.348911e+003,1.142608e-003
2.350840e+003,1.149431e-003
2.352768e+003,1.156243e-003
2.354697e+003,1.163049e-003
2.356625e+003,1.169845e-003
2.358554e+003,1.176637e-003
2.360482e+003,1.183420e-003
2.362411e+003,1.190199e-003
2.364339e+003,1.196969e-003
2.366268e+003,1.203733e-003
2.368196e+003,1.210485e-003
2.370125e+003,1.217227e-003
2.372053e+003,1.223968e-003
2.373982e+003,1.230698e-003
2.375910e+003,1.237422e-003
2.377839e+003,1.244139e-003
2.379767e+003,1.250846e-003
2.381696e+003,1.257544e-003
2.383624e+003,1.264237e-003
2.385553e+003,1.270922e-003
2.387481e+003,1.277599e-003
2.389410e+003,1.284271e-003
2.391338e+003,1.290936e-003
2.393267e+003,1.297591e-003
2.395195e+003,1.304237e-003
2.397124e+003,1.310874e-003
2.399052e+003,1.317507e-003
2.400981e+003,1.305206e-003
2.402909e+003,1.247073e-003
2.404838e+003,1.228046e-003
2.406766e+003,1.384372e-003
2.408695e+003,1.663573e-003
2.410623e+003,1.645127e-003
2.412552e+003,1.663689e-003
2.414480e+003,1.802064e-003
2.416409e+003,1.803238e-003
2.418337e+003,1.676435e-003
2.420266e+003,1.639750e-003
2.422194e+003,1.600446e-003
2.424123e+003,1.617024e-003
2.426051e+003,1.652449e-003
2.427979e+003,1.707938e-003
2.429908e+003,1.618709e-003
2.431837e+003,1.592508e-003
2.433765e+003,1.648296e-003
2.435694e+003,1.652826e-003
2.437622e+003,1.527308e-003
2.439551e+003,1.419196e-003
2.441479e+003,1.449542e-003
2.443407e+003,1.638649e-003
2.445336e+003,1.808761e-003
2.447265e+003,1.906227e-003
2.449193e+003,1.767626e-003
2.451122e+003,1.777383e-003
2.453050e+003,1.898255e-003
2.454979e+003,1.986030e-003
2.456907e+003,1.947336e-003
2.458836e+003,1.981681e-003
2.460764e+003,2.023106e-003
2.462693e+003,2.005540e-003
2.464621e+003,2.059540e-003
2.466550e+003,2.117572e-003
2.468478e+003,2.208898e-003
2.470406e+003,2.248270e-003
2.472335e+003,2.146874e-003
2.474264e+003,2.330460e-003
2.476192e+003,2.514523e-003
2.478121e+003,2.509473e-003
2.480049e+003,2.332868e-003
2.481978e+003,2.436310e-003
2.483906e+003,2.681706e-003
2.485835e+003,2.636574e-003
2.487763e+003,2.483867e-003
2.489692e+003,2.487108e-003
2.491620e+003,2.626870e-003
2.493549e+003,2.748245e-003
2.495477e+003,2.695875e-003
2.497406e+003,2.684779e-003
2.499334e+003,2.602708e-003
2.501263e+003,2.525283e-003
2.503191e+003,2.606295e-003
2.505120e+003,2.627494e-003
2.507048e+003,2.846442e-003
2.508977e+003,3.007248e-003
2.510905e+003,2.814388e-003
2.512833e+003,2.729757e-003
2.514762e+003,2.884196e-003
2.516691e+003,3.043175e-003
2.518619e+003,3.233841e-003
2.520548e+003,3.342910e-003
2.522476e+003,3.388744e-003
2.524405e+003,3.466146e-003
2.526333e+003,3.420720e-003
2.528261e+003,3.561452e-003
2.530190e+003,3.708448e-003
2.532119e+003,3.710477e-003
2.534047e+003,3.553892e-003
2.535976e+003,3.501896e-003
2.537904e+003,3.611412e-003
2.539833e+003,3.807392e-003
2.541761e+003,3.956601e-003
2.543689e+003,4.026543e-003
2.545618e+003,4.333742e-003
2.547547e+003,4.543554e-003
2.549475e+003,4.571021e-003
2.551404e+003,4.581526e-003
2.553332e+003,4.669964e-003
2.555260e+003,4.635790e-003
2.557189e+003,4.547082e-003
2.559117e+003,4.659686e-003
2.561046e+003,4.934492e-003
2.562975e+003,5.178872e-003
2.564903e+003,5.193053e-003
2.566832e+003,5.171211e-003
2.568760e+003,5.190128e-003
2.570688e+003,5.186759e-003
2.572617e+003,5.311130e-003
2.574546e+003,5.475190e-003
2.576474e+003,5.653668e-003
2.578403e+003,5.950602e-003
2.580331e+003,6.109208e-003
2.582260e+003,6.322701e-003
2.584188e+003,6.449323e-003
2.586116e+003,6.533429e-003
2.588045e+003,6.722528e-003
2.589974e+003,7.008940e-003
2.591902e+003,7.278545e-003
2.593831e+003,7.430447e-003
2.595759e+003,7.511411e-003
2.597688e+003,7.634636e-003
2.599616e+003,7.781269e-003
2.601544e+003,7.989662e-003
2.603473e+003,8.154884e-003
2.605402e+003,8.300822e-003
2.607330e+003,8.570312e-003
2.609259e+003,8.847395e-003
2.611187e+003,9.083148e-003
2.613115e+003,9.446656e-003
2.615044e+003,9.672618e-003
2.616972e+003,9.901538e-003
2.618901e+003,1.016766e-002
2.620830e+003,1.047720e-002
2.622758e+003,1.077924e-002
2.624687e+003,1.118992e-002
2.626615e+003,1.155595e-002
2.628543e+003,1.181317e-002
2.630472e+003,1.217881e-002
2.632400e+003,1.255088e-002
2.634329e+003,1.278546e-002
2.636258e+003,1.281194e-002
2.638186e+003,1.277321e-002
2.640115e+003,1.280194e-002
2.642043e+003,1.281635e-002
2.643971e+003,1.280666e-002
2.645900e+003,1.282178e-002
2.647828e+003,1.296334e-002
2.649757e+003,1.315787e-002
2.651686e+003,1.336828e-002
2.653614e+003,1.351759e-002
2.655542e+003,1.364673e-002
2.657471e+003,1.373463e-002
2.659399e+003,1.375146e-002
2.661328e+003,1.361539e-002
2.663256e+003,1.340639e-002
2.665185e+003,1.319803e-002
2.667114e+003,1.303991e-002
2.669042e+003,1.295387e-002
2.670970e+003,1.276891e-002
2.672899e+003,1.260729e-002
2.674827e+003,1.248654e-002
2.676756e+003,1.238988e-002
2.678685e+003,1.242416e-002
2.680613e+003,1.239803e-002
2.682542e+003,1.231940e-002
2.684470e+003,1.232145e-002
2.686398e+003,1.234987e-002
2.688327e+003,1.237176e-002
2.690255e+003,1.240984e-002
2.692184e+003,1.245277e-002
2.694113e+003,1.249583e-002
2.696041e+003,1.255988e-002
2.697969e+003,1.268204e-002
2.699898e+003,1.290210e-002
2.701826e+003,1.315862e-002
2.703755e+003,1.334805e-002
2.705683e+003,1.349876e-002
2.707612e+003,1.368247e-002
2.709541e+003,1.389329e-002
2.711469e+003,1.404621e-002
2.713397e+003,1.413446e-002
2.715326e+003,1.423253e-002
2.717254e+003,1.446361e-002
2.719183e+003,1.470647e-002
2.721111e+003,1.493264e-002
2.723040e+003,1.515541e-002
2.724969e+003,1.542365e-002
2.726897e+003,1.566695e-002
2.728825e+003,1.586115e-002
2.730754e+003,1.613195e-002
2.732682e+003,1.639536e-002
2.734611e+003,1.666691e-002
2.736539e+003,1.692566e-002
2.738468e+003,1.712029e-002
2.740396e+003,1.730726e-002
2.742325e+003,1.741605e-002
2.744253e+003,1.750189e-002
2.746182e+003,1.759815e-002
2.748110e+003,1.769568e-002
2.750039e+003,1.790264e-002
2.751967e+003,1.812588e-002
2.753896e+003,1.840726e-002
2.755824e+003,1.873465e-002
2.757753e+003,1.909608e-002
2.759681e+003,1.952229e-002
2.761610e+003,1.996602e-002
2.763538e+003,2.038087e-002
2.765467e+003,2.079841e-002
2.767395e+003,2.126166e-002
2.769324e+003,2.181515e-002
2.771252e+003,2.244845e-002
2.773181e+003,2.307973e-002
2.775109e+003,2.370247e-002
2.777038e+003,2.444380e-002
2.778966e+003,2.533505e-002
2.780895e+003,2.632170e-002
2.782823e+003,2.731656e-002
2.784752e+003,2.835397e-002
2.786680e+003,2.951034e-002
2.788609e+003,3.078207e-002
2.790537e+003,3.215746e-002
2.792466e+003,3.351573e-002
2.794394e+003,3.491195e-002
2.796323e+003,3.637813e-002
2.798251e+003,3.779048e-002
2.800180e+003,3.923899e-002
2.802108e+003,4.088343e-002
2.804037e+003,4.265537e-002
2.805965e+003,4.457697e-002
2.807894e+003,4.676589e-002
2.809822e+003,4.921273e-002
2.811751e+003,5.200562e-002
2.813679e+003,5.516320e-002
2.815608e+003,5.880880e-002
2.817536e+003,6.300104e-002
2.819465e+003,6.791708e-002
2.821393e+003,7.371891e-002
2.823322e+003,8.070242e-002
2.825250e+003,8.918484e-002
2.827179e+003,9.969878e-002
2.829107e+003,1.127009e-001
2.831036e+003,1.290608e-001
2.832964e+003,1.501615e-001
2.834893e+003,1.783149e-001
2.836821e+003,2.164801e-001
2.838750e+003,2.694841e-001
2.840678e+003,3.448099e-001
2.842607e+003,4.498450e-001
2.844535e+003,5.791227e-001
2.846464e+003,6.818626e-001
2.848392e+003,6.644285e-001
2.850321e+003,5.286293e-001
2.852249e+003,3.813397e-001
2.854178e+003,2.770393e-001
2.856106e+003,2.084690e-001
2.858035e+003,1.616151e-001
2.859963e+003,1.295592e-001
2.861892e+003,1.084135e-001
2.863820e+003,9.530184e-002
2.865749e+003,8.811449e-002
2.867677e+003,8.541838e-002
2.869606e+003,8.634382e-002
2.871534e+003,9.049647e-002
2.873463e+003,9.788021e-002
2.875391e+003,1.085115e-001
2.877320e+003,1.220574e-001
2.879248e+003,1.380347e-001
2.881177e+003,1.554775e-001
2.883105e+003,1.735567e-001
2.885034e+003,1.920640e-001
2.886962e+003,2.106243e-001
2.888891e+003,2.291714e-001
2.890819e+003,2.477061e-001
2.892748e+003,2.659073e-001
2.894676e+003,2.838771e-001
2.896605e+003,3.021259e-001
2.898533e+003,3.213915e-001
2.900462e+003,3.431224e-001
2.902390e+003,3.698667e-001
2.904319e+003,4.051558e-001
2.906247e+003,4.532729e-001
2.908176e+003,5.181571e-001
2.910104e+003,6.009797e-001
2.912033e+003,6.916049e-001
2.913961e+003,7.546321e-001
2.915890e+003,7.457158e-001
2.917818e+003,6.674502e-001
2.919747e+003,5.648679e-001
2.921675e+003,4.687462e-001
2.923604e+003,3.874773e-001
2.925532e+003,3.214707e-001
2.927461e+003,2.678979e-001
2.929389e+003,2.231109e-001
2.931318e+003,1.848042e-001
2.933246e+003,1.521996e-001
2.935175e+003,1.247834e-001
2.937103e+003,1.018880e-001
2.939032e+003,8.287619e-002
2.940960e+003,6.726313e-002
2.942889e+003,5.481125e-002
2.944817e+003,4.518195e-002
2.946746e+003,3.792728e-002
2.948674e+003,3.265461e-002
2.950603e+003,2.879887e-002
2.952531e+003,2.563563e-002
2.954460e+003,2.286672e-002
2.956388e+003,2.051014e-002
2.958317e+003,1.839555e-002
2.960245e+003,1.636957e-002
2.962174e+003,1.438927e-002
2.964102e+003,1.249066e-002
2.966031e+003,1.063356e-002
2.967959e+003,9.023882e-003
2.969888e+003,7.606912e-003
2.971816e+003,6.426275e-003
2.973745e+003,5.446326e-003
2.975673e+003,4.557125e-003
2.977602e+003,3.751971e-003
2.979530e+003,3.066294e-003
2.981459e+003,2.515692e-003
2.983387e+003,2.083696e-003
2.985316e+003,1.785044e-003
2.987244e+003,1.552578e-003
2.989173e+003,1.254532e-003
2.991101e+003,1.010217e-003
2.993030e+003,9.051450e-004
2.994958e+003,8.608811e-004
2.996887e+003,7.868819e-004
2.998815e+003,7.774793e-004
3.000744e+003,7.802062e-004
3.002672e+003,7.869229e-004
3.004601e+003,8.123480e-004
3.006529e+003,7.547252e-004
3.008458e+003,6.938651e-004
3.010386e+003,6.821789e-004
3.012315e+003,6.050877e-004
3.014243e+003,5.105697e-004
3.016172e+003,4.781075e-004
3.018100e+003,4.492030e-004
3.020029e+003,3.735013e-004
3.021957e+003,3.475621e-004
3.023886e+003,3.339201e-004
3.025814e+003,3.764629e-004
3.027743e+003,3.897995e-004
3.029671e+003,4.367456e-004
3.031600e+003,4.450753e-004
3.033528e+003,4.187413e-004
3.035457e+003,2.437867e-004
3.037385e+003,4.952028e-005
3.039314e+003,-2.135709e-005
3.041242e+003,-1.120865e-004
3.043171e+003,-2.396591e-004
3.045099e+003,-3.456511e-004
3.047028e+003,-4.134290e-004
3.048956e+003,-4.752986e-004
3.050885e+003,-5.722977e-004
3.052813e+003,-6.706640e-004
3.054742e+003,-6.137192e-004
3.056670e+003,-5.857982e-004
3.058599e+003,-6.560944e-004
3.060527e+003,-7.088967e-004
3.062456e+003,-6.854646e-004
3.064384e+003,-5.735755e-004
3.066313e+003,-6.680340e-004
3.068241e+003,-7.058755e-004
3.070170e+003,-6.448291e-004
3.072098e+003,-5.604327e-004
3.074027e+003,-5.731024e-004
3.075955e+003,-6.362982e-004
3.077884e+003,-6.291606e-004
3.079812e+003,-6.607622e-004
3.081741e+003,-7.388070e-004
3.083669e+003,-7.982887e-004
3.085598e+003,-8.285940e-004
3.087526e+003,-8.625053e-004
3.089455e+003,-9.905361e-004
3.091383e+003,-1.059052e-003
3.093312e+003,-1.080770e-003
3.095240e+003,-1.271956e-003
3.097169e+003,-1.519643e-003
3.099097e+003,-1.657806e-003
3.101026e+003,-1.778025e-003
3.102954e+003,-1.901861e-003
3.104883e+003,-2.051037e-003
3.106811e+003,-2.181716e-003
3.108740e+003,-2.233814e-003
3.110668e+003,-2.213106e-003
3.112597e+003,-2.126630e-003
3.114525e+003,-2.068605e-003
3.116454e+003,-2.123635e-003
3.118382e+003,-2.127692e-003
3.120311e+003,-2.075925e-003
3.122239e+003,-2.065331e-003
3.124168e+003,-2.141405e-003
3.126096e+003,-2.228294e-003
3.128025e+003,-2.267815e-003
3.129953e+003,-2.207696e-003
3.131882e+003,-2.101034e-003
3.133810e+003,-2.059262e-003
3.135739e+003,-2.067689e-003
3.137667e+003,-2.050888e-003
3.139596e+003,-2.056457e-003
3.141524e+003,-2.160609e-003
3.143453e+003,-2.222825e-003
3.145381e+003,-2.130475e-003
3.147310e+003,-2.035748e-003
3.149238e+003,-1.978774e-003
3.151167e+003,-1.950089e-003
3.153095e+003,-1.953177e-003
3.155024e+003,-1.977164e-003
3.156952e+003,-1.958936e-003
3.158881e+003,-1.876328e-003
3.160809e+003,-1.849219e-003
3.162738e+003,-1.762997e-003
3.164666e+003,-1.700323e-003
3.166594e+003,-1.738891e-003
3.168523e+003,-1.744039e-003
3.170452e+003,-1.713123e-003
3.172380e+003,-1.725379e-003
3.174309e+003,-1.700349e-003
3.176237e+003,-1.567278e-003
3.178166e+003,-1.523446e-003
3.180094e+003,-1.585327e-003
3.182022e+003,-1.543835e-003
3.183951e+003,-1.472004e-003
3.185880e+003,-1.353752e-003
3.187808e+003,-1.375087e-003
3.189737e+003,-1.407720e-003
3.191665e+003,-1.380753e-003
3.193594e+003,-1.371555e-003
3.195522e+003,-1.329441e-003
3.197450e+003,-1.258817e-003
3.199379e+003,-1.258880e-003
3.201308e+003,-1.317915e-003
3.203236e+003,-1.305290e-003
3.205165e+003,-1.269773e-003
3.207093e+003,-1.184527e-003
3.209021e+003,-1.154359e-003
3.210950e+003,-1.168132e-003
3.212878e+003,-1.060177e-003
3.214807e+003,-9.301193e-004
3.216736e+003,-9.783432e-004
3.218664e+003,-9.689778e-004
3.220593e+003,-9.437278e-004
3.222521e+003,-9.302832e-004
3.224449e+003,-8.799955e-004
3.226378e+003,-8.860268e-004
3.228307e+003,-8.979887e-004
3.230235e+003,-8.252040e-004
3.232164e+003,-8.229800e-004
3.234092e+003,-8.483492e-004
3.236021e+003,-8.614361e-004
3.237949e+003,-8.114688e-004
3.239877e+003,-7.124282e-004
3.241806e+003,-5.869307e-004
3.243735e+003,-5.735457e-004
3.245663e+003,-6.300025e-004
3.247592e+003,-6.298870e-004
3.249520e+003,-5.107857e-004
3.251448e+003,-4.081205e-004
3.253377e+003,-2.920479e-004
3.255305e+003,-2.388284e-004
3.257234e+003,-3.736392e-004
3.259163e+003,-4.173927e-004
3.261091e+003,-2.866499e-004
3.263020e+003,-2.415292e-004
3.264948e+003,-2.700835e-004
3.266876e+003,-1.249090e-004
3.268805e+003,-1.159757e-004
3.270733e+003,-1.516342e-004
3.272662e+003,-1.359358e-005
3.274591e+003,1.217276e-004
3.276519e+003,8.901954e-005
3.278448e+003,2.626702e-005
3.280376e+003,-7.438660e-005
3.282304e+003,-1.446716e-004
3.284233e+003,-2.134591e-005
3.286161e+003,1.370050e-004
3.288090e+003,2.059564e-004
3.290019e+003,2.581961e-004
3.291947e+003,2.616607e-004
3.293875e+003,2.828352e-004
3.295804e+003,4.195310e-004
3.297732e+003,4.021041e-004
3.299661e+003,2.799109e-004
3.301589e+003,2.066642e-004
3.303518e+003,2.117753e-004
3.305447e+003,2.263300e-004
3.307375e+003,2.819709e-004
3.309303e+003,4.434101e-004
3.311232e+003,5.137809e-004
3.313160e+003,5.159117e-004
3.315089e+003,4.131310e-004
3.317018e+003,3.666617e-004
3.318946e+003,4.149973e-004
3.320875e+003,3.490336e-004
3.322803e+003,3.183745e-004
3.324731e+003,4.030615e-004
3.326660e+003,5.520396e-004
3.328588e+003,5.466938e-004
3.330517e+003,4.813783e-004
3.332446e+003,5.742908e-004
3.334374e+003,6.206743e-004
3.336302e+003,5.665123e-004
3.338231e+003,5.567037e-004
3.340159e+003,5.629063e-004
3.342088e+003,5.520508e-004
3.344016e+003,5.200244e-004
3.345945e+003,5.914457e-004
3.347874e+003,5.623400e-004
3.349802e+003,5.246587e-004
3.351730e+003,5.389377e-004
3.353659e+003,5.742274e-004
3.355587e+003,7.020608e-004
3.357516e+003,7.647946e-004
3.359444e+003,7.703081e-004
3.361373e+003,8.270815e-004
3.363302e+003,6.983541e-004
3.365230e+003,7.057749e-004
3.367158e+003,8.600093e-004
3.369087e+003,7.859953e-004
3.371015e+003,6.782748e-004
3.372944e+003,7.263273e-004
3.374872e+003,7.231943e-004
3.376801e+003,6.022565e-004
3.378729e+003,4.911907e-004
3.380658e+003,4.796274e-004
3.382586e+003,5.599037e-004
3.384515e+003,6.917603e-004
3.386443e+003,6.560721e-004
3.388372e+003,6.520562e-004
3.390300e+003,6.648712e-004
3.392229e+003,6.577261e-004
3.394157e+003,6.272346e-004
3.396086e+003,7.111318e-004
3.398014e+003,6.889515e-004
3.399943e+003,6.462671e-004
3.401871e+003,5.904436e-004
3.403800e+003,4.250929e-004
3.405728e+003,3.904067e-004
3.407657e+003,4.367270e-004
3.409585e+003,5.271956e-004
3.411514e+003,5.348697e-004
3.413442e+003,4.990958e-004
3.415371e+003,4.759505e-004
3.417299e+003,4.418492e-004
3.419228e+003,5.059056e-004
3.421156e+003,5.780682e-004
3.423085e+003,6.187484e-004
3.425013e+003,6.460547e-004
3.426942e+003,6.705932e-004
3.428870e+003,6.334223e-004
3.430799e+003,6.292462e-004
3.432727e+003,6.493628e-004
3.434656e+003,6.202832e-004
3.436584e+003,5.478971e-004
3.438513e+003,6.114058e-004
3.440441e+003,6.840043e-004
3.442370e+003,8.339025e-004
3.444298e+003,8.678995e-004
3.446227e+003,9.296201e-004
3.448155e+003,8.641630e-004
3.450084e+003,5.608313e-004
3.452012e+003,5.124845e-004
3.453941e+003,6.435886e-004
3.455869e+003,7.127337e-004
3.457798e+003,6.798021e-004
3.459726e+003,6.322190e-004
3.461655e+003,5.352162e-004
3.463583e+003,4.919842e-004
3.465512e+003,5.484745e-004
3.467440e+003,5.166344e-004
3.469369e+003,3.833286e-004
3.471297e+003,3.306828e-004
3.473226e+003,4.102401e-004
3.475154e+003,4.779361e-004
3.477083e+003,4.568398e-004
3.479011e+003,6.368868e-004
3.480940e+003,7.436834e-004
3.482868e+003,6.875843e-004
3.484797e+003,5.889684e-004
3.486725e+003,5.241781e-004
3.488654e+003,5.165413e-004
3.490582e+003,5.370602e-004
3.492511e+003,5.670935e-004
3.494439e+003,6.474778e-004
3.496368e+003,6.151274e-004
3.498296e+003,4.945099e-004
3.500225e+003,6.652735e-004
3.502153e+003,8.803606e-004
3.504082e+003,6.687567e-004
3.506010e+003,4.741438e-004
3.507939e+003,7.029288e-004
3.509867e+003,8.930527e-004
3.511796e+003,5.961023e-004
3.513724e+003,4.030392e-004
3.515653e+003,4.239455e-004
3.517581e+003,4.558787e-004
3.519510e+003,4.904792e-004
3.521438e+003,6.313249e-004
3.523367e+003,7.948689e-004
3.525295e+003,7.125884e-004
3.527224e+003,7.442795e-004
3.529152e+003,6.903410e-004
3.531081e+003,5.494431e-004
3.533009e+003,4.212745e-004
3.534938e+003,4.702993e-004
3.536866e+003,5.358681e-004
3.538795e+003,2.558343e-004
3.540723e+003,1.609661e-004
3.542652e+003,4.574507e-004
3.544580e+003,1.047686e-003
3.546509e+003,1.126923e-003
3.548437e+003,5.381741e-004
3.550366e+003,2.760515e-004
3.552294e+003,4.838295e-004
3.554223e+003,4.129931e-004
3.556151e+003,2.284348e-004
3.558080e+003,2.543814e-004
3.560008e+003,6.163456e-004
3.561937e+003,7.865764e-004
3.563865e+003,9.311661e-004
3.565794e+003,1.732800e-003
3.567722e+003,1.804851e-003
3.569651e+003,7.635467e-004
3.571579e+003,3.354140e-004
3.573508e+003,2.260208e-004
3.575436e+003,3.093630e-004
3.577365e+003,6.095469e-004
3.579293e+003,7.393919e-004
3.581222e+003,7.163696e-004
3.583150e+003,6.563626e-004
3.585079e+003,7.843524e-004
3.587007e+003,1.544271e-003
3.588936e+003,1.501437e-003
3.590864e+003,9.975322e-004
3.592793e+003,1.204181e-003
3.594721e+003,1.848832e-003
3.596650e+003,1.997203e-003
3.598578e+003,2.146591e-003
3.600507e+003,2.393708e-003
3.602435e+003,2.291940e-003
3.604364e+003,2.117846e-003
3.606292e+003,2.432924e-003
3.608221e+003,2.656274e-003
3.610149e+003,2.424955e-003
3.612078e+003,2.555948e-003
3.614006e+003,2.478655e-003
3.615935e+003,1.891423e-003
3.617863e+003,1.988377e-003
3.619792e+003,2.390366e-003
3.621720e+003,1.823388e-003
3.623649e+003,1.324616e-003
3.625577e+003,1.417600e-003
3.627506e+003,2.133790e-003
3.629434e+003,3.278747e-003
3.631363e+003,1.955096e-003
3.633291e+003,1.609448e-003
3.635220e+003,1.274031e-003
3.637148e+003,1.171790e-003
3.639077e+003,1.642309e-003
3.641005e+003,2.020292e-003
3.642934e+003,2.020873e-003
3.644862e+003,1.722287e-003
3.646791e+003,2.515655e-003
3.648719e+003,3.669642e-003
3.650648e+003,3.174569e-003
3.652576e+003,2.042256e-003
3.654505e+003,1.662698e-003
3.656433e+003,1.912326e-003
3.658362e+003,1.485460e-003
3.660290e+003,1.139395e-003
3.662219e+003,8.129887e-004
3.664147e+003,6.472170e-004
3.666076e+003,9.090193e-004
3.668004e+003,1.587559e-003
3.669933e+003,2.630711e-003
3.671861e+003,2.067655e-003
3.673790e+003,1.971681e-003
3.675718e+003,3.126215e-003
3.677647e+003,2.071768e-003
3.679575e+003,1.701832e-003
3.681504e+003,1.392778e-003
3.683432e+003,1.380268e-003
3.685361e+003,1.632635e-003
3.687289e+003,2.222531e-003
3.689218e+003,3.111124e-003
3.691146e+003,2.524123e-003
3.693075e+003,1.731373e-003
3.695003e+003,1.340359e-003
3.696932e+003,1.211278e-003
3.698860e+003,1.339067e-003
3.700789e+003,1.832489e-003
3.702717e+003,2.014648e-003
3.704646e+003,1.762889e-003
3.706574e+003,1.507241e-003
3.708503e+003,1.755044e-003
3.710431e+003,2.766486e-003
3.712360e+003,2.907794e-003
3.714288e+003,2.251063e-003
3.716217e+003,1.832955e-003
3.718145e+003,1.892440e-003
3.720074e+003,1.956042e-003
3.722002e+003,2.190184e-003
3.723931e+003,2.066057e-003
3.725859e+003,2.161968e-003
3.727788e+003,2.112139e-003
3.729716e+003,2.048150e-003
3.731645e+003,2.728768e-003
3.733573e+003,3.362503e-003
3.735502e+003,3.959414e-003
3.737430e+003,3.208913e-003
3.739359e+003,2.444465e-003
3.741287e+003,2.318051e-003
3.743216e+003,2.744365e-003
3.745144e+003,3.983572e-003
3.747073e+003,3.419850e-003
3.749001e+003,3.536914e-003
3.750930e+003,4.440535e-003
3.752858e+003,3.856286e-003
3.754787e+003,2.781145e-003
3.756715e+003,2.589259e-003
3.758644e+003,2.793379e-003
3.760572e+003,2.694618e-003
3.762501e+003,2.289880e-003
3.764429e+003,2.398513e-003
3.766358e+003,2.485812e-003
3.768286e+003,2.306681e-003
3.770215e+003,2.766225e-003
3.772143e+003,2.536092e-003
3.774072e+003,2.281945e-003
3.776000e+003,2.293970e-003
3.777929e+003,2.617769e-003
3.779857e+003,3.134273e-003
3.781786e+003,2.757050e-003
3.783714e+003,2.743397e-003
3.785643e+003,2.854276e-003
3.787571e+003,2.600212e-003
3.789500e+003,2.396293e-003
3.791428e+003,2.206266e-003
3.793357e+003,2.410401e-003
3.795285e+003,2.737693e-003
3.797214e+003,3.175177e-003
3.799142e+003,3.170189e-003
3.801071e+003,3.867663e-003
3.802999e+003,3.686316e-003
3.804927e+003,2.934996e-003
3.806856e+003,3.344383e-003
3.808785e+003,3.255144e-003
3.810713e+003,2.930082e-003
3.812642e+003,2.824429e-003
3.814570e+003,2.948366e-003
3.816499e+003,3.906377e-003
3.818427e+003,3.934518e-003
3.820355e+003,4.273206e-003
3.822284e+003,4.018262e-003
3.824213e+003,3.381263e-003
3.826141e+003,3.322385e-003
3.828070e+003,2.912670e-003
3.829998e+003,3.028378e-003
3.831927e+003,3.811989e-003
3.833855e+003,4.008122e-003
3.835783e+003,4.333004e-003
3.837712e+003,4.515231e-003
3.839641e+003,4.490718e-003
3.841569e+003,3.889889e-003
3.843498e+003,3.672142e-003
3.845426e+003,3.686126e-003
3.847354e+003,3.766268e-003
3.849283e+003,3.893245e-003
3.851211e+003,4.171889e-003
3.853140e+003,5.244169e-003
3.855069e+003,4.719853e-003
3.856997e+003,4.088432e-003
3.858926e+003,3.420938e-003
3.860854e+003,3.482882e-003
3.862782e+003,4.231546e-003
3.864711e+003,4.799336e-003
3.866640e+003,4.434589e-003
3.868568e+003,4.498631e-003
3.870497e+003,4.954107e-003
3.872425e+003,4.433267e-003
3.874354e+003,4.526611e-003
3.876282e+003,3.985193e-003
3.878210e+003,3.953718e-003
3.880139e+003,4.686825e-003
3.882068e+003,4.689436e-003
3.883996e+003,4.468653e-003
3.885925e+003,4.406426e-003
3.887853e+003,3.637571e-003
3.889781e+003,3.698569e-003
3.891710e+003,4.312064e-003
3.893638e+003,4.233282e-003
3.895567e+003,4.112933e-003
3.897496e+003,4.393756e-003
3.899424e+003,4.889231e-003
3.901353e+003,5.119953e-003
3.903281e+003,5.137529e-003
3.905209e+003,4.762191e-003
3.907138e+003,4.203871e-003
3.909066e+003,4.079465e-003
3.910995e+003,4.097864e-003
3.912924e+003,4.062735e-003
3.914852e+003,4.243065e-003
3.916781e+003,4.572779e-003
3.918709e+003,4.362598e-003
3.920637e+003,4.313320e-003
3.922566e+003,4.375242e-003
3.924494e+003,4.732482e-003
3.926423e+003,4.474606e-003
3.928352e+003,4.318804e-003
3.930280e+003,4.521288e-003
3.932208e+003,4.613787e-003
3.934137e+003,4.302301e-003
3.936065e+003,3.848739e-003
3.937994e+003,3.857948e-003
3.939922e+003,4.063986e-003
3.941851e+003,4.397254e-003
3.943780e+003,4.412930e-003
3.945708e+003,4.170451e-003
3.947636e+003,4.280191e-003
3.949565e+003,4.112776e-003
3.951493e+003,3.924165e-003
3.953422e+003,3.809299e-003
3.955351e+003,3.880981e-003
3.957279e+003,4.038882e-003
3.959208e+003,4.150599e-003
3.961136e+003,4.122511e-003
3.963064e+003,4.029740e-003
3.964993e+003,3.870461e-003
3.966921e+003,3.844082e-003
3.968850e+003,3.944431e-003
3.970779e+003,4.056260e-003
3.972707e+003,4.128613e-003
3.974635e+003,4.076920e-003
3.976564e+003,4.005089e-003
3.978492e+003,4.060943e-003
3.980421e+003,4.104897e-003
3.982349e+003,4.054021e-003
3.984278e+003,4.112687e-003
3.986207e+003,4.049659e-003
3.988135e+003,4.030786e-003
3.990063e+003,4.132677e-003
3.991992e+003,3.943674e-003
3.993920e+003,3.950477e-003
3.995849e+003,4.047960e-003
3.997777e+003,3.894784e-003
3.999706e+003,3.878899e-003
4.001635e+003,0.000000e+000
