3.991992e+002,0.000000e+000
4.011277e+002,0.000000e+000
4.030562e+002,0.000000e+000
4.049846e+002,0.000000e+000
4.069131e+002,0.000000e+000
4.088416e+002,0.000000e+000
4.107701e+002,0.000000e+000
4.126986e+002,0.000000e+000
4.146271e+002,0.000000e+000
4.165556e+002,0.000000e+000
4.184841e+002,0.000000e+000
4.204126e+002,0.000000e+000
4.223411e+002,0.000000e+000
4.242697e+002,0.000000e+000
4.261982e+002,0.000000e+000
4.281266e+002,0.000000e+000
4.300551e+002,0.000000e+000
4.319836e+002,0.000000e+000
4.339121e+002,0.000000e+000
4.358406e+002,0.000000e+000
4.377691e+002,0.000000e+000
4.396976e+002,0.000000e+000
4.416261e+002,0.000000e+000
4.435546e+002,0.000000e+000
4.454831e+002,0.000000e+000
4.474116e+002,0.000000e+000
4.493401e+002,0.000000e+000
4.512686e+002,0.000000e+000
4.531971e+002,0.000000e+000
4.551256e+002,0.000000e+000
4.570541e+002,0.000000e+000
4.589826e+002,0.000000e+000
4.609111e+002,0.000000e+000
4.628396e+002,0.000000e+000
4.647681e+002,0.000000e+000
4.666966e+002,0.000000e+000
4.686251e+002,0.000000e+000
4.705536e+002,0.000000e+000
4.724821e+002,0.000000e+000
4.744106e+002,0.000000e+000
4.763391e+002,0.000000e+000
4.782676e+002,0.000000e+000
4.801961e+002,0.000000e+000
4.821246e+002,0.000000e+000
4.840531e+002,0.000000e+000
4.859816e+002,0.000000e+000
4.879101e+002,0.000000e+000
4.898386e+002,0.000000e+000
4.917671e+002,0.000000e+000
4.936956e+002,0.000000e+000
4.956241e+002,0.000000e+000
4.975526e+002,0.000000e+000
4.994811e+002,0.000000e+000
5.014096e+002,0.000000e+000
5.033381e+002,0.000000e+000
5.052666e+002,0.000000e+000
5.071951e+002,0.000000e+000
5.091236e+002,0.000000e+000
5.110521e+002,0.000000e+000
5.129806e+002,0.000000e+000
5.149091e+002,0.000000e+000
5.168376e+002,0.000000e+000
5.187661e+002,0.000000e+000
5.206946e+002,0.000000e+000
5.226230e+002,0.000000e+000
5.245516e+002,-9.192154e-004
5.264800e+002,-9.310395e-004
5.284086e+002,-8.747578e-004
5.303370e+002,-8.820975e-004
5.322656e+002,-8.119782e-004
5.341940e+002,-8.808561e-004
5.361226e+002,-9.481478e-004
5.380510e+002,-8.762693e-004
5.399796e+002,-8.180430e-004
5.419081e+002,-8.534733e-004
5.438365e+002,-9.319531e-004
5.457650e+002,-9.322055e-004
5.476935e+002,-7.658759e-004
5.496221e+002,-6.122710e-004
5.515505e+002,-6.561857e-004
5.534790e+002,-7.201452e-004
5.554075e+002,-7.158536e-004
5.573361e+002,-7.141866e-004
5.592645e+002,-7.196730e-004
5.611931e+002,-8.478677e-004
5.631215e+002,-8.459194e-004
5.650500e+002,-7.510884e-004
5.669785e+002,-8.842060e-004
5.689070e+002,-9.453753e-004
5.708355e+002,-8.291518e-004
5.727640e+002,-8.414183e-004
5.746925e+002,-7.977942e-004
5.766210e+002,-8.499054e-004
5.785495e+002,-8.547530e-004
5.804780e+002,-7.182825e-004
5.824065e+002,-6.668102e-004
5.843350e+002,-7.395456e-004
5.862635e+002,-6.724400e-004
5.881920e+002,-6.953152e-004
5.901205e+002,-6.502373e-004
5.920490e+002,-6.088717e-004
5.939775e+002,-5.763881e-004
5.959060e+002,-6.337743e-004
5.978345e+002,-5.342420e-004
5.997630e+002,-3.948174e-004
6.016915e+002,-3.373548e-004
6.036200e+002,-3.035050e-004
6.055485e+002,-3.093779e-004
6.074770e+002,-3.509875e-004
6.094055e+002,-2.516583e-004
6.113340e+002,-2.573924e-004
6.132625e+002,-3.315918e-004
6.151910e+002,-3.953027e-004
6.171195e+002,-3.751079e-004
6.190480e+002,-3.646398e-004
6.209765e+002,-3.323443e-004
6.229050e+002,-2.348050e-004
6.248335e+002,-1.286604e-004
6.267620e+002,-1.792610e-004
6.286905e+002,-1.532743e-004
6.306190e+002,-8.683372e-005
6.325475e+002,4.580431e-005
6.344760e+002,1.492593e-004
6.364045e+002,2.217144e-004
6.383330e+002,1.511620e-004
6.402615e+002,2.865633e-004
6.421899e+002,2.905298e-004
6.441185e+002,2.518799e-004
6.460470e+002,2.545416e-004
6.479755e+002,3.801137e-004
6.499039e+002,3.463365e-004
6.518325e+002,3.749076e-004
6.537610e+002,4.500244e-004
6.556895e+002,5.527660e-004
6.576179e+002,5.702507e-004
6.595464e+002,7.072855e-004
6.614750e+002,8.046664e-004
6.634034e+002,8.719228e-004
6.653319e+002,8.095782e-004
6.672604e+002,8.935183e-004
6.691890e+002,9.493362e-004
6.711174e+002,1.045782e-003
6.730460e+002,1.119703e-003
6.749745e+002,1.281848e-003
6.769030e+002,1.345111e-003
6.788314e+002,1.533911e-003
6.807599e+002,1.796558e-003
6.826885e+002,2.109718e-003
6.846169e+002,2.190147e-003
6.865454e+002,2.301438e-003
6.884739e+002,2.439683e-003
6.904025e+002,2.748411e-003
6.923309e+002,3.031079e-003
6.942594e+002,3.464617e-003
6.961879e+002,3.888110e-003
6.981165e+002,4.524263e-003
7.000449e+002,5.231237e-003
7.019734e+002,6.352577e-003
7.039019e+002,7.690422e-003
7.058304e+002,9.681692e-003
7.077589e+002,1.228702e-002
7.096874e+002,1.639605e-002
7.116159e+002,2.303434e-002
7.135444e+002,3.594223e-002
7.154729e+002,6.059977e-002
7.174014e+002,9.790076e-002
7.193299e+002,1.100051e-001
7.212584e+002,7.127413e-002
7.231869e+002,4.018925e-002
7.251154e+002,3.278909e-002
7.270439e+002,4.164129e-002
7.289724e+002,6.582716e-002
7.309009e+002,6.984676e-002
7.328294e+002,3.826977e-002
7.347579e+002,1.525584e-002
7.366864e+002,7.595694e-003
7.386149e+002,4.863555e-003
7.405434e+002,3.354859e-003
7.424719e+002,2.553703e-003
7.444004e+002,2.042705e-003
7.463289e+002,1.845548e-003
7.482574e+002,1.535900e-003
7.501859e+002,1.278110e-003
7.521144e+002,9.940416e-004
7.540428e+002,8.660350e-004
7.559714e+002,7.068198e-004
7.578999e+002,6.248429e-004
7.598284e+002,5.479753e-004
7.617568e+002,5.317777e-004
7.636854e+002,4.739277e-004
7.656139e+002,4.728623e-004
7.675424e+002,3.936309e-004
7.694709e+002,3.348794e-004
7.713994e+002,2.257843e-004
7.733279e+002,2.157371e-004
7.752563e+002,1.920015e-004
7.771849e+002,1.624525e-004
7.791134e+002,1.541656e-004
7.810419e+002,1.829695e-004
7.829703e+002,1.214612e-004
7.848989e+002,1.536533e-004
7.868274e+002,1.543537e-004
7.887559e+002,1.808014e-004
7.906843e+002,2.309605e-004
7.926129e+002,2.832320e-004
7.945414e+002,2.374817e-004
7.964698e+002,2.177302e-004
7.983983e+002,2.240427e-004
8.003268e+002,2.225898e-004
8.022554e+002,2.475195e-004
8.041838e+002,3.277231e-004
8.061123e+002,3.341325e-004
8.080408e+002,3.468618e-004
8.099694e+002,2.871975e-004
8.118978e+002,2.196617e-004
8.138263e+002,1.393650e-004
8.157548e+002,1.411643e-004
8.176833e+002,1.578946e-004
8.196118e+002,1.769550e-004
8.215403e+002,2.033003e-004
8.234689e+002,2.024453e-004
8.253973e+002,1.187250e-004
8.273258e+002,4.575215e-005
8.292543e+002,2.964027e-005
8.311829e+002,8.572266e-005
8.331113e+002,6.560609e-005
8.350398e+002,3.954582e-005
8.369683e+002,4.188530e-005
8.388969e+002,6.672554e-005
8.408253e+002,4.305504e-005
8.427538e+002,4.245527e-005
8.446823e+002,6.055459e-005
8.466108e+002,1.154151e-004
8.485393e+002,1.406688e-004
8.504678e+002,1.944844e-004
8.523963e+002,2.159551e-004
8.543248e+002,2.040062e-004
8.562533e+002,2.492629e-004
8.581818e+002,2.940241e-004
8.601103e+002,2.527609e-004
8.620388e+002,1.949333e-004
8.639673e+002,1.546368e-004
8.658958e+002,1.947861e-004
8.678243e+002,2.960842e-004
8.697528e+002,3.547352e-004
8.716813e+002,3.050920e-004
8.736098e+002,2.600532e-004
8.755383e+002,2.922229e-004
8.774668e+002,3.846362e-004
8.793953e+002,4.640296e-004
8.813238e+002,5.153622e-004
8.832523e+002,5.442072e-004
8.851808e+002,5.871411e-004
8.871093e+002,6.947331e-004
8.890378e+002,6.986223e-004
8.909663e+002,6.725732e-004
8.928948e+002,7.328298e-004
8.948232e+002,8.133221e-004
8.967518e+002,8.888952e-004
8.986803e+002,1.053486e-003
9.006088e+002,1.309937e-003
9.025372e+002,1.616038e-003
9.044658e+002,2.227250e-003
9.063943e+002,3.203396e-003
9.083228e+002,3.742246e-003
9.102512e+002,3.263969e-003
9.121797e+002,2.237080e-003
9.141083e+002,1.488622e-003
9.160367e+002,1.093760e-003
9.179653e+002,9.911116e-004
9.198937e+002,9.247195e-004
9.218223e+002,8.204803e-004
9.237507e+002,7.476024e-004
9.256793e+002,7.867347e-004
9.276077e+002,8.027609e-004
9.295363e+002,7.508937e-004
9.314647e+002,7.594526e-004
9.333932e+002,7.629823e-004
9.353217e+002,7.847715e-004
9.372502e+002,8.225888e-004
9.391787e+002,8.216370e-004
9.411072e+002,8.425731e-004
9.430358e+002,8.822195e-004
9.449642e+002,8.866731e-004
9.468928e+002,9.353906e-004
9.488212e+002,9.923410e-004
9.507498e+002,1.029626e-003
9.526782e+002,1.035878e-003
9.546068e+002,1.038542e-003
9.565352e+002,1.083056e-003
9.584637e+002,1.133395e-003
9.603922e+002,1.241019e-003
9.623207e+002,1.342330e-003
9.642492e+002,1.404425e-003
9.661777e+002,1.472287e-003
9.681062e+002,1.497915e-003
9.700347e+002,1.462899e-003
9.719632e+002,1.412764e-003
9.738917e+002,1.362301e-003
9.758202e+002,1.349220e-003
9.777487e+002,1.427637e-003
9.796772e+002,1.519771e-003
9.816057e+002,1.596760e-003
9.835342e+002,1.722816e-003
9.854627e+002,1.925161e-003
9.873912e+002,2.219781e-003
9.893197e+002,2.456781e-003
9.912482e+002,2.524793e-003
9.931767e+002,2.469026e-003
9.951052e+002,2.403241e-003
9.970337e+002,2.304258e-003
9.989622e+002,2.274722e-003
1.000891e+003,2.262477e-003
1.002819e+003,2.291428e-003
1.004748e+003,2.374271e-003
1.006676e+003,2.504908e-003
1.008605e+003,2.648272e-003
1.010533e+003,2.778221e-003
1.012462e+003,2.915869e-003
1.014390e+003,3.120298e-003
1.016319e+003,3.278499e-003
1.018247e+003,3.369445e-003
1.020176e+003,3.416244e-003
1.022104e+003,3.491269e-003
1.024033e+003,3.532881e-003
1.025961e+003,3.567526e-003
1.027890e+003,3.599111e-003
1.029818e+003,3.672430e-003
1.031747e+003,3.760504e-003
1.033675e+003,3.805816e-003
1.035604e+003,3.803564e-003
1.037532e+003,3.892090e-003
1.039461e+003,3.956970e-003
1.041389e+003,3.999725e-003
1.043318e+003,4.023798e-003
1.045246e+003,4.107023e-003
1.047175e+003,4.190210e-003
1.049103e+003,4.367473e-003
1.051032e+003,4.386080e-003
1.052960e+003,4.168745e-003
1.054889e+003,4.053699e-003
1.056817e+003,4.085170e-003
1.058746e+003,4.081586e-003
1.060674e+003,4.159363e-003
1.062603e+003,4.223851e-003
1.064531e+003,4.243959e-003
1.066460e+003,4.238911e-003
1.068388e+003,4.218794e-003
1.070317e+003,4.233353e-003
1.072245e+003,4.366091e-003
1.074174e+003,4.575344e-003
1.076102e+003,4.812198e-003
1.078031e+003,4.987815e-003
1.079959e+003,5.099662e-003
1.081888e+003,5.125595e-003
1.083816e+003,5.136471e-003
1.085745e+003,5.105915e-003
1.087673e+003,5.074037e-003
1.089602e+003,5.060710e-003
1.091530e+003,5.104000e-003
1.093459e+003,5.080434e-003
1.095387e+003,5.026592e-003
1.097316e+003,4.977092e-003
1.099244e+003,4.950330e-003
1.101173e+003,4.920358e-003
1.103101e+003,4.842151e-003
1.105030e+003,4.770452e-003
1.106958e+003,4.737576e-003
1.108887e+003,4.652277e-003
1.110815e+003,4.665170e-003
1.112744e+003,4.663320e-003
1.114672e+003,4.633592e-003
1.116601e+003,4.622322e-003
1.118529e+003,4.598904e-003
1.120458e+003,4.471967e-003
1.122386e+003,4.328011e-003
1.124315e+003,4.151080e-003
1.126243e+003,4.095823e-003
1.128172e+003,4.076494e-003
1.130100e+003,4.065759e-003
1.132029e+003,4.060764e-003
1.133957e+003,4.083507e-003
1.135885e+003,4.148271e-003
1.137814e+003,4.286498e-003
1.139743e+003,4.400587e-003
1.141671e+003,4.509864e-003
1.143600e+003,4.573340e-003
1.145528e+003,4.668528e-003
1.147457e+003,4.849371e-003
1.149385e+003,5.081974e-003
1.151314e+003,5.309602e-003
1.153242e+003,5.582517e-003
1.155171e+003,5.802333e-003
1.157099e+003,5.949499e-003
1.159028e+003,6.060405e-003
1.160956e+003,6.115163e-003
1.162885e+003,6.111156e-003
1.164813e+003,6.051691e-003
1.166742e+003,5.885981e-003
1.168670e+003,5.689573e-003
1.170599e+003,5.501429e-003
1.172527e+003,5.387684e-003
1.174456e+003,5.354384e-003
1.176384e+003,5.310763e-003
1.178313e+003,5.010562e-003
1.180241e+003,4.734682e-003
1.182170e+003,4.551960e-003
1.184098e+003,4.459228e-003
1.186027e+003,4.368609e-003
1.187955e+003,4.342077e-003
1.189884e+003,4.304025e-003
1.191812e+003,4.261343e-003
1.193740e+003,4.199838e-003
1.195669e+003,4.199119e-003
1.197598e+003,4.211022e-003
1.199526e+003,4.283555e-003
1.201455e+003,4.312983e-003
1.203383e+003,4.397037e-003
1.205312e+003,4.522776e-003
1.207240e+003,4.675535e-003
1.209168e+003,4.791725e-003
1.211097e+003,4.872812e-003
1.213026e+003,4.924564e-003
1.214954e+003,5.012320e-003
1.216883e+003,5.073400e-003
1.218811e+003,5.158078e-003
1.220740e+003,5.267644e-003
1.222668e+003,5.427230e-003
1.224596e+003,5.538024e-003
1.226525e+003,5.636031e-003
1.228453e+003,5.715938e-003
1.230382e+003,5.835608e-003
1.232311e+003,5.926164e-003
1.234239e+003,6.018030e-003
1.236167e+003,6.089427e-003
1.238096e+003,6.183095e-003
1.240025e+003,6.192803e-003
1.241953e+003,6.173670e-003
1.243882e+003,6.073385e-003
1.245810e+003,5.975645e-003
1.247739e+003,5.855812e-003
1.249667e+003,5.729131e-003
1.251595e+003,5.549515e-003
1.253524e+003,5.422611e-003
1.255453e+003,5.307546e-003
1.257381e+003,5.260102e-003
1.259310e+003,5.226860e-003
1.261238e+003,5.208367e-003
1.263167e+003,5.106818e-003
1.265095e+003,4.992163e-003
1.267023e+003,4.859038e-003
1.268952e+003,4.790107e-003
1.270880e+003,4.707310e-003
1.272809e+003,4.720833e-003
1.274738e+003,4.713727e-003
1.276666e+003,4.742665e-003
1.278594e+003,4.770435e-003
1.280523e+003,4.834875e-003
1.282451e+003,4.845716e-003
1.284380e+003,4.887970e-003
1.286308e+003,4.951525e-003
1.288237e+003,5.090570e-003
1.290166e+003,5.192325e-003
1.292094e+003,5.381633e-003
1.294022e+003,5.576182e-003
1.295951e+003,5.814314e-003
1.297879e+003,5.950019e-003
1.299808e+003,6.067965e-003
1.301736e+003,6.109405e-003
1.303665e+003,6.147940e-003
1.305594e+003,6.106019e-003
1.307522e+003,6.040394e-003
1.309450e+003,5.864117e-003
1.311379e+003,5.722262e-003
1.313307e+003,5.511094e-003
1.315236e+003,5.290218e-003
1.317164e+003,5.029827e-003
1.319093e+003,4.796140e-003
1.321021e+003,4.519077e-003
1.322950e+003,4.364211e-003
1.324878e+003,4.202273e-003
1.326807e+003,4.110631e-003
1.328735e+003,4.051659e-003
1.330664e+003,4.108647e-003
1.332592e+003,4.180515e-003
1.334521e+003,4.366012e-003
1.336449e+003,4.615065e-003
1.338378e+003,5.033258e-003
1.340306e+003,5.402774e-003
1.342235e+003,5.687021e-003
1.344163e+003,5.970616e-003
1.346092e+003,6.402969e-003
1.348021e+003,6.810218e-003
1.349949e+003,7.209789e-003
1.351877e+003,7.385425e-003
1.353806e+003,7.430259e-003
1.355734e+003,7.256135e-003
1.357663e+003,7.221077e-003
1.359591e+003,7.362787e-003
1.361520e+003,7.811546e-003
1.363448e+003,8.441158e-003
1.365377e+003,9.054564e-003
1.367305e+003,9.360522e-003
1.369234e+003,9.158827e-003
1.371162e+003,8.390605e-003
1.373091e+003,7.513378e-003
1.375019e+003,6.735068e-003
1.376948e+003,6.416880e-003
1.378876e+003,5.823959e-003
1.380805e+003,5.100187e-003
1.382733e+003,4.525684e-003
1.384662e+003,4.317619e-003
1.386590e+003,4.159227e-003
1.388519e+003,4.137445e-003
1.390447e+003,4.018497e-003
1.392376e+003,4.052930e-003
1.394304e+003,4.047744e-003
1.396233e+003,4.236620e-003
1.398161e+003,4.269492e-003
1.400090e+003,4.442699e-003
1.402018e+003,4.419446e-003
1.403947e+003,4.593536e-003
1.405875e+003,4.676711e-003
1.407804e+003,4.876662e-003
1.409732e+003,4.963558e-003
1.411661e+003,5.240053e-003
1.413589e+003,5.419429e-003
1.415518e+003,5.771302e-003
1.417446e+003,5.902611e-003
1.419375e+003,6.327376e-003
1.421303e+003,6.512620e-003
1.423232e+003,7.135458e-003
1.425160e+003,7.943805e-003
1.427089e+003,9.029973e-003
1.429017e+003,1.039038e-002
1.430946e+003,1.230073e-002
1.432874e+003,1.373328e-002
1.434803e+003,1.517094e-002
1.436731e+003,1.667748e-002
1.438660e+003,1.804565e-002
1.440588e+003,1.875868e-002
1.442517e+003,1.983038e-002
1.444445e+003,2.061288e-002
1.446374e+003,2.190568e-002
1.448302e+003,2.369156e-002
1.450231e+003,2.651294e-002
1.452159e+003,3.090604e-002
1.454088e+003,3.707953e-002
1.456016e+003,4.469614e-002
1.457945e+003,7.383950e-002
1.459873e+003,1.284678e-001
1.461802e+003,1.669072e-001
1.463730e+003,1.425500e-001
1.465659e+003,9.086384e-002
1.467587e+003,8.396357e-002
1.469516e+003,9.317309e-002
1.471444e+003,1.246401e-001
1.473373e+003,1.210776e-001
1.475301e+003,6.170013e-002
1.477230e+003,2.295910e-002
1.479158e+003,1.244678e-002
1.481087e+003,8.238766e-003
1.483015e+003,6.464526e-003
1.484944e+003,5.143616e-003
1.486872e+003,4.950147e-003
1.488801e+003,4.194014e-003
1.490729e+003,4.216611e-003
1.492658e+003,3.536291e-003
1.494586e+003,3.624499e-003
1.496515e+003,3.212877e-003
1.498443e+003,3.334630e-003
1.500372e+003,2.836976e-003
1.502300e+003,2.850253e-003
1.504229e+003,2.559207e-003
1.506157e+003,3.001850e-003
1.508086e+003,2.661210e-003
1.510014e+003,2.835590e-003
1.511943e+003,2.524469e-003
1.513871e+003,2.634376e-003
1.515800e+003,2.515011e-003
1.517728e+003,2.718892e-003
1.519657e+003,2.503335e-003
1.521585e+003,2.900943e-003
1.523514e+003,2.656646e-003
1.525442e+003,2.836391e-003
1.527371e+003,2.602637e-003
1.529299e+003,2.718769e-003
1.531228e+003,2.671834e-003
1.533156e+003,2.983633e-003
1.535085e+003,2.958916e-003
1.537013e+003,3.167491e-003
1.538942e+003,3.303185e-003
1.540870e+003,3.850278e-003
1.542799e+003,3.302321e-003
1.544727e+003,3.234051e-003
1.546656e+003,2.947070e-003
1.548584e+003,3.017366e-003
1.550513e+003,2.898905e-003
1.552441e+003,2.867397e-003
1.554370e+003,2.691194e-003
1.556298e+003,2.868962e-003
1.558227e+003,3.032211e-003
1.560155e+003,2.854146e-003
1.562084e+003,2.458721e-003
1.564012e+003,2.472982e-003
1.565941e+003,2.326746e-003
1.567869e+003,2.473284e-003
1.569798e+003,2.466138e-003
1.571726e+003,2.390184e-003
1.573655e+003,2.341386e-003
1.575583e+003,2.610058e-003
1.577512e+003,2.477892e-003
1.579440e+003,2.448231e-003
1.581369e+003,2.395924e-003
1.583297e+003,2.460197e-003
1.585226e+003,2.411697e-003
1.587154e+003,2.457272e-003
1.589083e+003,2.436575e-003
1.591011e+003,2.434824e-003
1.592940e+003,2.309367e-003
1.594868e+003,2.352722e-003
1.596797e+003,2.311490e-003
1.598725e+003,2.352908e-003
1.600654e+003,2.296228e-003
1.602582e+003,2.324026e-003
1.604511e+003,2.266515e-003
1.606439e+003,2.340820e-003
1.608368e+003,2.349358e-003
1.610296e+003,2.427649e-003
1.612225e+003,2.412096e-003
1.614153e+003,2.559993e-003
1.616082e+003,2.699248e-003
1.618010e+003,2.805237e-003
1.619939e+003,2.727691e-003
1.621867e+003,2.833065e-003
1.623796e+003,2.911236e-003
1.625724e+003,3.099371e-003
1.627653e+003,3.246959e-003
1.629581e+003,3.356889e-003
1.631510e+003,3.304962e-003
1.633438e+003,3.448438e-003
1.635367e+003,3.708448e-003
1.637295e+003,4.069585e-003
1.639224e+003,4.148565e-003
1.641152e+003,4.231129e-003
1.643081e+003,4.133373e-003
1.645009e+003,4.295185e-003
1.646938e+003,4.437972e-003
1.648866e+003,4.148193e-003
1.650795e+003,3.930397e-003
1.652723e+003,4.301805e-003
1.654652e+003,4.073381e-003
1.656580e+003,3.824230e-003
1.658509e+003,3.587667e-003
1.660437e+003,3.579047e-003
1.662366e+003,3.572926e-003
1.664294e+003,3.399562e-003
1.666223e+003,3.171962e-003
1.668151e+003,3.173642e-003
1.670080e+003,2.952602e-003
1.672008e+003,2.804942e-003
1.673937e+003,2.675109e-003
1.675865e+003,2.632435e-003
1.677794e+003,2.348203e-003
1.679722e+003,2.301760e-003
1.681651e+003,2.259228e-003
1.683579e+003,2.493281e-003
1.685508e+003,2.102271e-003
1.687436e+003,1.963779e-003
1.689365e+003,1.746070e-003
1.691293e+003,1.679055e-003
1.693222e+003,1.670595e-003
1.695150e+003,1.928043e-003
1.697079e+003,1.970958e-003
1.699007e+003,2.167534e-003
1.700936e+003,2.012670e-003
1.702864e+003,1.870014e-003
1.704793e+003,1.966093e-003
1.706721e+003,2.269190e-003
1.708650e+003,2.349254e-003
1.710578e+003,2.531026e-003
1.712507e+003,2.598766e-003
1.714435e+003,2.837393e-003
1.716364e+003,2.974775e-003
1.718292e+003,2.903856e-003
1.720221e+003,2.592016e-003
1.722149e+003,2.690863e-003
1.724078e+003,2.814859e-003
1.726006e+003,2.975378e-003
1.727935e+003,3.073346e-003
1.729863e+003,3.256906e-003
1.731792e+003,3.537543e-003
1.733720e+003,4.365228e-003
1.735649e+003,4.536550e-003
1.737577e+003,4.682895e-003
1.739506e+003,5.161233e-003
1.741434e+003,5.632464e-003
1.743363e+003,6.033592e-003
1.745291e+003,6.268945e-003
1.747220e+003,6.252460e-003
1.749148e+003,5.988594e-003
1.751077e+003,4.951090e-003
1.753005e+003,3.798805e-003
1.754934e+003,2.956040e-003
1.756862e+003,2.085824e-003
1.758791e+003,1.284901e-003
1.760719e+003,9.121150e-004
1.762648e+003,3.897212e-004
1.764576e+003,1.595505e-004
1.766505e+003,1.030043e-005
1.768433e+003,-2.150983e-005
1.770362e+003,-1.254864e-004
1.772290e+003,-1.446903e-005
1.774219e+003,-3.182590e-004
1.776147e+003,-4.515424e-004
1.778076e+003,-5.441867e-004
1.780004e+003,-4.601814e-004
1.781933e+003,-5.078502e-004
1.783861e+003,-4.943348e-004
1.785790e+003,-5.717091e-004
1.787718e+003,-6.786287e-004
1.789646e+003,-7.241853e-004
1.791575e+003,-4.012212e-004
1.793504e+003,-4.621893e-004
1.795432e+003,-5.134828e-004
1.797361e+003,-6.008968e-004
1.799289e+003,-5.605705e-004
1.801218e+003,-5.938932e-004
1.803146e+003,-6.556213e-004
1.805074e+003,-8.667931e-004
1.807003e+003,-9.291992e-004
1.808932e+003,-9.174794e-004
1.810860e+003,-8.000173e-004
1.812789e+003,-1.135547e-003
1.814717e+003,-1.385290e-003
1.816646e+003,-1.476273e-003
1.818574e+003,-1.185387e-003
1.820502e+003,-1.099095e-003
1.822431e+003,-9.071082e-004
1.824360e+003,-9.431876e-004
1.826288e+003,-1.030691e-003
1.828217e+003,-9.787902e-004
1.830145e+003,-9.196326e-004
1.832073e+003,-1.335919e-003
1.834002e+003,-1.245927e-003
1.835931e+003,-1.255285e-003
1.837859e+003,-1.255199e-003
1.839788e+003,-1.391403e-003
1.841716e+003,-1.194056e-003
1.843645e+003,-1.030996e-003
1.845573e+003,-8.970685e-004
1.847501e+003,-1.159798e-003
1.849430e+003,-1.265287e-003
1.851359e+003,-1.247685e-003
1.853287e+003,-1.072299e-003
1.855216e+003,-1.277097e-003
1.857144e+003,-1.284193e-003
1.859073e+003,-1.380235e-003
1.861001e+003,-1.297541e-003
1.862929e+003,-1.428340e-003
1.864858e+003,-1.312416e-003
1.866787e+003,-1.113575e-003
1.868715e+003,-8.705221e-004
1.870644e+003,-1.228601e-003
1.872572e+003,-1.263935e-003
1.874500e+003,-1.178179e-003
1.876429e+003,-1.071546e-003
1.878357e+003,-1.256611e-003
1.880286e+003,-1.255631e-003
1.882215e+003,-1.268256e-003
1.884143e+003,-1.039259e-003
1.886072e+003,-1.112949e-003
1.888000e+003,-6.969310e-004
1.889928e+003,-4.405566e-004
1.891857e+003,-2.576523e-004
1.893785e+003,-1.896434e-004
1.895714e+003,1.755990e-004
1.897643e+003,8.860230e-005
1.899571e+003,-1.058914e-004
1.901500e+003,-1.024976e-004
1.903428e+003,-9.910017e-005
1.905356e+003,-9.570643e-005
1.907285e+003,-9.232387e-005
1.909213e+003,-8.894131e-005
1.911142e+003,-8.555502e-005
1.913071e+003,-8.218363e-005
1.914999e+003,-7.881224e-005
1.916927e+003,-7.544085e-005
1.918856e+003,-7.207319e-005
1.920784e+003,-6.871670e-005
1.922713e+003,-6.535649e-005
1.924641e+003,-6.200373e-005
1.926570e+003,-5.865097e-005
1.928499e+003,-5.530939e-005
1.930427e+003,-5.195662e-005
1.932355e+003,-4.862249e-005
1.934284e+003,-4.528463e-005
1.936212e+003,-4.195049e-005
1.938141e+003,-3.862008e-005
1.940070e+003,-3.529340e-005
1.941998e+003,-3.197044e-005
1.943927e+003,-2.865493e-005
1.945855e+003,-2.534315e-005
1.947783e+003,-2.202764e-005
1.949712e+003,-1.872331e-005
1.951640e+003,-1.541525e-005
1.953569e+003,-1.211837e-005
1.955498e+003,-8.817762e-006
1.957426e+003,-5.524606e-006
1.959354e+003,-2.235174e-006
1.961283e+003,1.054257e-006
1.963211e+003,4.332513e-006
1.965140e+003,7.614493e-006
1.967068e+003,1.088902e-005
1.968997e+003,1.416355e-005
1.970926e+003,1.743063e-005
1.972854e+003,2.069771e-005
1.974782e+003,2.395362e-005
1.976711e+003,2.721325e-005
1.978639e+003,3.046915e-005
1.980568e+003,3.371760e-005
1.982496e+003,3.696978e-005
1.984425e+003,4.021078e-005
1.986354e+003,4.345179e-005
1.988282e+003,4.668161e-005
1.990210e+003,4.991889e-005
1.992139e+003,5.314499e-005
1.994067e+003,5.637482e-005
1.995996e+003,5.959347e-005
1.997924e+003,6.281212e-005
1.999853e+003,6.603077e-005
2.001781e+003,6.923825e-005
2.003710e+003,7.244572e-005
2.005638e+003,7.564947e-005
2.007567e+003,7.885322e-005
2.009495e+003,8.204579e-005
2.011424e+003,8.523837e-005
2.013352e+003,8.843094e-005
2.015281e+003,9.161606e-005
2.017209e+003,9.479374e-005
2.019138e+003,9.797513e-005
2.021066e+003,1.011528e-004
2.022995e+003,1.043230e-004
2.024923e+003,1.074895e-004
2.026852e+003,1.106523e-004
2.028781e+003,1.138151e-004
2.030709e+003,1.169704e-004
2.032637e+003,1.201294e-004
2.034566e+003,1.232773e-004
2.036494e+003,1.264252e-004
2.038423e+003,1.295656e-004
2.040351e+003,1.327097e-004
2.042280e+003,1.358427e-004
2.044208e+003,1.389720e-004
2.046137e+003,1.421049e-004
2.048065e+003,1.452267e-004
2.049994e+003,1.483522e-004
2.051922e+003,1.514629e-004
2.053851e+003,1.545846e-004
2.055779e+003,1.576915e-004
2.057708e+003,1.607984e-004
2.059636e+003,1.639016e-004
2.061565e+003,1.670010e-004
2.063493e+003,1.700968e-004
2.065422e+003,1.731887e-004
2.067350e+003,1.762770e-004
2.069279e+003,1.793616e-004
2.071207e+003,1.824461e-004
2.073136e+003,1.855232e-004
2.075064e+003,1.886003e-004
2.076993e+003,1.916699e-004
2.078921e+003,1.947358e-004
2.080850e+003,1.977943e-004
2.082778e+003,2.008602e-004
2.084707e+003,2.039224e-004
2.086635e+003,2.069734e-004
2.088564e+003,2.100207e-004
2.090492e+003,2.130680e-004
2.092421e+003,2.161115e-004
2.094349e+003,2.191439e-004
2.096278e+003,2.221838e-004
2.098206e+003,2.252199e-004
2.100135e+003,2.282448e-004
2.102063e+003,2.312697e-004
2.103992e+003,2.342910e-004
2.105920e+003,2.373047e-004
2.107849e+003,2.403148e-004
2.109777e+003,2.433285e-004
2.111706e+003,2.463311e-004
2.113634e+003,2.493411e-004
2.115563e+003,2.523400e-004
2.117491e+003,2.553388e-004
2.119420e+003,2.583228e-004
2.121348e+003,2.613142e-004
2.123277e+003,2.642982e-004
2.125205e+003,2.672784e-004
2.127134e+003,2.702549e-004
2.129062e+003,2.732351e-004
2.130991e+003,2.762042e-004
2.132919e+003,2.791695e-004
2.134848e+003,2.821386e-004
2.136776e+003,2.850927e-004
2.138705e+003,2.880506e-004
2.140633e+003,2.910011e-004
2.142562e+003,2.939552e-004
2.144490e+003,2.968982e-004
2.146419e+003,2.998412e-004
2.148347e+003,3.027804e-004
2.150276e+003,3.057122e-004
2.152204e+003,3.086440e-004
2.154133e+003,3.115721e-004
2.156061e+003,3.145039e-004
2.157990e+003,3.174171e-004
2.159918e+003,3.203340e-004
2.161847e+003,3.232472e-004
2.163775e+003,3.261566e-004
2.165704e+003,3.290586e-004
2.167632e+003,3.319643e-004
2.169561e+003,3.348589e-004
2.171489e+003,3.377534e-004
2.173418e+003,3.406480e-004
2.175346e+003,3.435425e-004
2.177275e+003,3.464259e-004
2.179203e+003,3.493056e-004
2.181132e+003,3.521852e-004
2.183060e+003,3.550537e-004
2.184989e+003,3.579222e-004
2.186917e+003,3.607944e-004
2.188846e+003,3.636554e-004
2.190774e+003,3.665127e-004
2.192703e+003,3.693663e-004
2.194631e+003,3.722198e-004
2.196560e+003,3.750697e-004
2.198488e+003,3.779158e-004
2.200417e+003,3.807619e-004
2.202345e+003,3.835969e-004
2.204274e+003,3.864281e-004
2.206202e+003,3.892630e-004
2.208131e+003,3.920868e-004
2.210059e+003,3.949106e-004
2.211988e+003,3.977269e-004
2.213916e+003,4.005432e-004
2.215845e+003,4.033558e-004
2.217773e+003,4.061684e-004
2.219702e+003,4.089735e-004
2.221630e+003,4.117787e-004
2.223559e+003,4.145764e-004
2.225487e+003,4.173666e-004
2.227416e+003,4.201606e-004
2.229344e+003,4.229471e-004
2.231273e+003,4.257336e-004
2.233201e+003,4.285164e-004
2.235130e+003,4.312918e-004
2.237058e+003,4.340596e-004
2.238987e+003,4.368313e-004
2.240915e+003,4.395917e-004
2.242844e+003,4.423596e-004
2.244772e+003,4.451238e-004
2.246701e+003,4.478730e-004
2.248629e+003,4.506260e-004
2.250558e+003,4.533790e-004
2.252486e+003,4.561245e-004
2.254415e+003,4.588589e-004
2.256343e+003,4.616007e-004
2.258272e+003,4.643276e-004
2.260200e+003,4.670620e-004
2.262129e+003,4.697889e-004
2.264057e+003,4.725158e-004
2.265986e+003,4.752241e-004
2.267914e+003,4.779473e-004
2.269843e+003,4.806593e-004
2.271771e+003,4.833639e-004
2.273700e+003,4.860722e-004
2.275628e+003,4.887767e-004
2.277557e+003,4.914775e-004
2.279485e+003,4.941709e-004
2.281414e+003,4.968606e-004
2.283342e+003,4.995391e-004
2.285271e+003,5.022250e-004
2.287199e+003,5.049035e-004
2.289128e+003,5.075857e-004
2.291056e+003,5.102642e-004
2.292985e+003,5.129315e-004
2.294913e+003,5.155951e-004
2.296842e+003,5.182512e-004
2.298770e+003,5.209111e-004
2.300699e+003,5.235672e-004
2.302627e+003,5.262233e-004
2.304556e+003,5.288683e-004
2.306484e+003,5.315170e-004
2.308413e+003,5.341507e-004
2.310341e+003,5.367883e-004
2.312270e+003,5.394220e-004
2.314198e+003,5.420521e-004
2.316127e+003,5.446747e-004
2.318055e+003,5.472973e-004
2.319984e+003,5.499236e-004
2.321912e+003,5.525351e-004
2.323841e+003,5.551502e-004
2.325769e+003,5.577542e-004
2.327698e+003,5.603619e-004
2.329626e+003,5.629584e-004
2.331555e+003,5.655587e-004
2.333483e+003,5.681589e-004
2.335412e+003,5.707443e-004
2.337340e+003,5.733334e-004
2.339269e+003,5.759113e-004
2.341197e+003,5.784966e-004
2.343126e+003,5.810633e-004
2.345054e+003,5.836412e-004
2.346983e+003,5.862117e-004
2.348911e+003,5.887747e-004
2.350840e+003,5.913340e-004
2.352768e+003,5.938970e-004
2.354697e+003,5.964525e-004
2.356625e+003,5.989969e-004
2.358554e+003,6.015487e-004
2.360482e+003,6.040856e-004
2.362411e+003,6.066263e-004
2.364339e+003,6.091669e-004
2.366268e+003,6.117001e-004
2.368196e+003,6.142259e-004
2.370125e+003,6.167553e-004
2.372053e+003,6.192736e-004
2.373982e+003,6.217919e-004
2.375910e+003,6.243102e-004
2.377839e+003,6.268248e-004
2.379767e+003,6.293319e-004
2.381696e+003,6.318316e-004
2.383624e+003,6.343350e-004
2.385553e+003,6.368309e-004
2.387481e+003,6.393231e-004
2.389410e+003,6.418079e-004
2.391338e+003,6.443039e-004
2.393267e+003,6.467812e-004
2.395195e+003,6.492622e-004
2.397124e+003,6.517358e-004
2.399052e+003,6.542094e-004
2.400981e+003,7.241331e-004
2.402909e+003,7.282160e-004
2.404838e+003,8.395836e-004
2.406766e+003,1.053296e-003
2.408695e+003,1.290414e-003
2.410623e+003,1.245923e-003
2.412552e+003,1.225501e-003
2.414480e+003,1.318570e-003
2.416409e+003,1.462940e-003
2.418337e+003,1.419988e-003
2.420266e+003,1.515623e-003
2.422194e+003,1.510471e-003
2.424123e+003,1.329158e-003
2.426051e+003,1.247380e-003
2.427979e+003,1.289308e-003
2.429908e+003,1.250517e-003
2.431837e+003,1.342434e-003
2.433765e+003,1.428690e-003
2.435694e+003,1.592852e-003
2.437622e+003,1.605727e-003
2.439551e+003,1.444373e-003
2.441479e+003,1.348302e-003
2.443407e+003,1.479365e-003
2.445336e+003,1.496889e-003
2.447265e+003,1.543764e-003
2.449193e+003,1.591884e-003
2.451122e+003,1.686875e-003
2.453050e+003,1.701362e-003
2.454979e+003,1.676057e-003
2.456907e+003,1.648232e-003
2.458836e+003,1.717716e-003
2.460764e+003,1.775701e-003
2.462693e+003,1.831133e-003
2.464621e+003,1.871869e-003
2.466550e+003,1.913358e-003
2.468478e+003,1.948133e-003
2.470406e+003,2.049897e-003
2.472335e+003,2.077281e-003
2.474264e+003,2.089005e-003
2.476192e+003,2.012454e-003
2.478121e+003,2.114553e-003
2.480049e+003,2.196528e-003
2.481978e+003,2.300560e-003
2.483906e+003,2.254102e-003
2.485835e+003,2.039496e-003
2.487763e+003,2.016019e-003
2.489692e+003,2.182819e-003
2.491620e+003,2.057694e-003
2.493549e+003,2.177324e-003
2.495477e+003,2.317213e-003
2.497406e+003,2.427377e-003
2.499334e+003,2.459470e-003
2.501263e+003,2.462652e-003
2.503191e+003,2.531160e-003
2.505120e+003,2.678975e-003
2.507048e+003,2.660919e-003
2.508977e+003,2.743643e-003
2.510905e+003,2.846520e-003
2.512833e+003,2.852660e-003
2.514762e+003,2.788343e-003
2.516691e+003,2.945293e-003
2.518619e+003,2.984326e-003
2.520548e+003,3.204886e-003
2.522476e+003,3.416896e-003
2.524405e+003,3.445327e-003
2.526333e+003,3.491767e-003
2.528261e+003,3.576066e-003
2.530190e+003,3.555760e-003
2.532119e+003,3.482439e-003
2.534047e+003,3.352214e-003
2.535976e+003,3.364917e-003
2.537904e+003,3.469370e-003
2.539833e+003,3.643591e-003
2.541761e+003,3.676265e-003
2.543689e+003,3.724881e-003
2.545618e+003,4.040003e-003
2.547547e+003,4.361697e-003
2.549475e+003,4.439339e-003
2.551404e+003,4.502121e-003
2.553332e+003,4.447248e-003
2.555260e+003,4.573192e-003
2.557189e+003,4.595350e-003
2.559117e+003,4.706927e-003
2.561046e+003,4.730515e-003
2.562975e+003,4.883923e-003
2.564903e+003,5.018596e-003
2.566832e+003,5.092375e-003
2.568760e+003,5.082201e-003
2.570688e+003,5.224906e-003
2.572617e+003,5.381666e-003
2.574546e+003,5.448416e-003
2.576474e+003,5.634520e-003
2.578403e+003,5.842160e-003
2.580331e+003,6.079648e-003
2.582260e+003,6.217316e-003
2.584188e+003,6.319329e-003
2.586116e+003,6.484367e-003
2.588045e+003,6.772917e-003
2.589974e+003,7.047437e-003
2.591902e+003,7.057488e-003
2.593831e+003,7.178023e-003
2.595759e+003,7.383481e-003
2.597688e+003,7.618573e-003
2.599616e+003,7.832497e-003
2.601544e+003,7.931881e-003
2.603473e+003,8.092519e-003
2.605402e+003,8.368403e-003
2.607330e+003,8.538812e-003
2.609259e+003,8.801397e-003
2.611187e+003,9.057593e-003
2.613115e+003,9.355471e-003
2.615044e+003,9.676833e-003
2.616972e+003,1.000641e-002
2.618901e+003,1.030988e-002
2.620830e+003,1.068125e-002
2.622758e+003,1.101408e-002
2.624687e+003,1.145803e-002
2.626615e+003,1.199448e-002
2.628543e+003,1.235917e-002
2.630472e+003,1.270794e-002
2.632400e+003,1.306790e-002
2.634329e+003,1.323234e-002
2.636258e+003,1.327427e-002
2.638186e+003,1.323622e-002
2.640115e+003,1.316475e-002
2.642043e+003,1.314807e-002
2.643971e+003,1.312939e-002
2.645900e+003,1.310373e-002
2.647828e+003,1.322453e-002
2.649757e+003,1.337089e-002
2.651686e+003,1.358018e-002
2.653614e+003,1.378757e-002
2.655542e+003,1.398197e-002
2.657471e+003,1.412010e-002
2.659399e+003,1.407690e-002
2.661328e+003,1.387926e-002
2.663256e+003,1.363150e-002
2.665185e+003,1.341084e-002
2.667114e+003,1.324949e-002
2.669042e+003,1.307270e-002
2.670970e+003,1.285933e-002
2.672899e+003,1.264016e-002
2.674827e+003,1.250728e-002
2.676756e+003,1.244165e-002
2.678685e+003,1.235178e-002
2.680613e+003,1.224582e-002
2.682542e+003,1.220674e-002
2.684470e+003,1.222179e-002
2.686398e+003,1.226079e-002
2.688327e+003,1.226525e-002
2.690255e+003,1.221941e-002
2.692184e+003,1.219673e-002
2.694113e+003,1.227227e-002
2.696041e+003,1.239974e-002
2.697969e+003,1.254802e-002
2.699898e+003,1.276295e-002
2.701826e+003,1.302185e-002
2.703755e+003,1.320656e-002
2.705683e+003,1.340174e-002
2.707612e+003,1.356370e-002
2.709541e+003,1.370882e-002
2.711469e+003,1.386306e-002
2.713397e+003,1.402530e-002
2.715326e+003,1.421591e-002
2.717254e+003,1.449201e-002
2.719183e+003,1.470419e-002
2.721111e+003,1.494698e-002
2.723040e+003,1.520760e-002
2.724969e+003,1.544131e-002
2.726897e+003,1.573080e-002
2.728825e+003,1.605134e-002
2.730754e+003,1.632270e-002
2.732682e+003,1.661117e-002
2.734611e+003,1.697296e-002
2.736539e+003,1.725807e-002
2.738468e+003,1.744176e-002
2.740396e+003,1.761975e-002
2.742325e+003,1.770568e-002
2.744253e+003,1.776811e-002
2.746182e+003,1.783622e-002
2.748110e+003,1.794972e-002
2.750039e+003,1.811435e-002
2.751967e+003,1.836240e-002
2.753896e+003,1.869477e-002
2.755824e+003,1.911442e-002
2.757753e+003,1.951956e-002
2.759681e+003,1.994738e-002
2.761610e+003,2.039564e-002
2.763538e+003,2.084485e-002
2.765467e+003,2.135048e-002
2.767395e+003,2.193078e-002
2.769324e+003,2.253759e-002
2.771252e+003,2.318399e-002
2.773181e+003,2.385867e-002
2.775109e+003,2.461425e-002
2.777038e+003,2.549222e-002
2.778966e+003,2.646254e-002
2.780895e+003,2.747853e-002
2.782823e+003,2.864015e-002
2.784752e+003,2.991901e-002
2.786680e+003,3.126074e-002
2.788609e+003,3.270024e-002
2.790537e+003,3.423476e-002
2.792466e+003,3.583361e-002
2.794394e+003,3.747156e-002
2.796323e+003,3.912077e-002
2.798251e+003,4.074405e-002
2.800180e+003,4.248113e-002
2.802108e+003,4.443235e-002
2.804037e+003,4.655614e-002
2.805965e+003,4.881921e-002
2.807894e+003,5.132695e-002
2.809822e+003,5.418810e-002
2.811751e+003,5.747557e-002
2.813679e+003,6.124844e-002
2.815608e+003,6.561666e-002
2.817536e+003,7.060596e-002
2.819465e+003,7.646398e-002
2.821393e+003,8.341874e-002
2.823322e+003,9.179521e-002
2.825250e+003,1.020962e-001
2.827179e+003,1.148863e-001
2.829107e+003,1.307820e-001
2.831036e+003,1.508413e-001
2.832964e+003,1.769208e-001
2.834893e+003,2.121551e-001
2.836821e+003,2.606927e-001
2.838750e+003,3.289642e-001
2.840678e+003,4.272828e-001
2.842607e+003,5.665693e-001
2.844535e+003,7.414035e-001
2.846464e+003,8.835672e-001
2.848392e+003,8.572286e-001
2.850321e+003,6.681569e-001
2.852249e+003,4.738253e-001
2.854178e+003,3.419484e-001
2.856106e+003,2.570250e-001
2.858035e+003,1.995350e-001
2.859963e+003,1.600594e-001
2.861892e+003,1.337115e-001
2.863820e+003,1.171529e-001
2.865749e+003,1.078733e-001
2.867677e+003,1.041405e-001
2.869606e+003,1.048983e-001
2.871534e+003,1.098037e-001
2.873463e+003,1.188182e-001
2.875391e+003,1.321995e-001
2.877320e+003,1.496901e-001
2.879248e+003,1.705067e-001
2.881177e+003,1.934787e-001
2.883105e+003,2.173053e-001
2.885034e+003,2.415315e-001
2.886962e+003,2.658901e-001
2.888891e+003,2.900764e-001
2.890819e+003,3.140550e-001
2.892748e+003,3.377776e-001
2.894676e+003,3.612497e-001
2.896605e+003,3.849097e-001
2.898533e+003,4.098030e-001
2.900462e+003,4.378825e-001
2.902390e+003,4.723337e-001
2.904319e+003,5.176789e-001
2.906247e+003,5.793234e-001
2.908176e+003,6.616427e-001
2.910104e+003,7.638581e-001
2.912033e+003,8.697126e-001
2.913961e+003,9.348946e-001
2.915890e+003,9.118276e-001
2.917818e+003,8.083600e-001
2.919747e+003,6.773100e-001
2.921675e+003,5.558584e-001
2.923604e+003,4.553984e-001
2.925532e+003,3.761918e-001
2.927461e+003,3.135236e-001
2.929389e+003,2.619443e-001
2.931318e+003,2.182198e-001
2.933246e+003,1.809613e-001
2.935175e+003,1.495779e-001
2.937103e+003,1.232718e-001
2.939032e+003,1.012066e-001
2.940960e+003,8.293204e-002
2.942889e+003,6.799459e-002
2.944817e+003,5.626706e-002
2.946746e+003,4.743620e-002
2.948674e+003,4.088731e-002
2.950603e+003,3.613811e-002
2.952531e+003,3.255431e-002
2.954460e+003,2.929940e-002
2.956388e+003,2.631334e-002
2.958317e+003,2.360873e-002
2.960245e+003,2.101970e-002
2.962174e+003,1.852865e-002
2.964102e+003,1.630580e-002
2.966031e+003,1.431796e-002
2.967959e+003,1.251025e-002
2.969888e+003,1.093769e-002
2.971816e+003,9.621486e-003
2.973745e+003,8.437488e-003
2.975673e+003,7.368594e-003
2.977602e+003,6.525896e-003
2.979530e+003,5.811874e-003
2.981459e+003,5.140264e-003
2.983387e+003,4.539557e-003
2.985316e+003,4.009772e-003
2.987244e+003,3.640354e-003
2.989173e+003,3.336664e-003
2.991101e+003,3.119819e-003
2.993030e+003,2.943993e-003
2.994958e+003,2.868418e-003
2.996887e+003,2.778415e-003
2.998815e+003,2.727039e-003
3.000744e+003,2.770107e-003
3.002672e+003,2.781909e-003
3.004601e+003,2.656624e-003
3.006529e+003,2.539083e-003
3.008458e+003,2.513640e-003
3.010386e+003,2.432041e-003
3.012315e+003,2.225991e-003
3.014243e+003,2.105389e-003
3.016172e+003,2.005421e-003
3.018100e+003,1.941700e-003
3.020029e+003,1.823839e-003
3.021957e+003,1.691908e-003
3.023886e+003,1.654755e-003
3.025814e+003,1.710787e-003
3.027743e+003,1.665194e-003
3.029671e+003,1.543213e-003
3.031600e+003,1.518231e-003
3.033528e+003,1.524512e-003
3.035457e+003,1.375087e-003
3.037385e+003,1.241785e-003
3.039314e+003,1.110733e-003
3.041242e+003,9.951033e-004
3.043171e+003,8.378439e-004
3.045099e+003,7.000975e-004
3.047028e+003,6.059296e-004
3.048956e+003,5.427450e-004
3.050885e+003,3.868453e-004
3.052813e+003,3.332570e-004
3.054742e+003,2.936535e-004
3.056670e+003,1.784265e-004
3.058599e+003,7.839501e-005
3.060527e+003,1.293346e-004
3.062456e+003,1.613982e-004
3.064384e+003,1.081973e-004
3.066313e+003,8.948147e-005
3.068241e+003,1.463816e-004
3.070170e+003,1.674630e-004
3.072098e+003,1.755096e-004
3.074027e+003,1.252033e-004
3.075955e+003,9.366125e-005
3.077884e+003,6.110966e-005
3.079812e+003,-4.857033e-005
3.081741e+003,-1.654178e-004
3.083669e+003,-2.282485e-004
3.085598e+003,-3.210381e-004
3.087526e+003,-3.696419e-004
3.089455e+003,-4.063472e-004
3.091383e+003,-4.328564e-004
3.093312e+003,-5.709939e-004
3.095240e+003,-7.325187e-004
3.097169e+003,-9.758584e-004
3.099097e+003,-1.255322e-003
3.101026e+003,-1.442563e-003
3.102954e+003,-1.574077e-003
3.104883e+003,-1.621481e-003
3.106811e+003,-1.655098e-003
3.108740e+003,-1.744468e-003
3.110668e+003,-1.837932e-003
3.112597e+003,-1.836389e-003
3.114525e+003,-1.784001e-003
3.116454e+003,-1.873471e-003
3.118382e+003,-1.985975e-003
3.120311e+003,-2.047665e-003
3.122239e+003,-2.008755e-003
3.124168e+003,-1.970459e-003
3.126096e+003,-1.860231e-003
3.128025e+003,-1.793500e-003
3.129953e+003,-1.848042e-003
3.131882e+003,-1.875840e-003
3.133810e+003,-1.835182e-003
3.135739e+003,-1.725182e-003
3.137667e+003,-1.714833e-003
3.139596e+003,-1.780570e-003
3.141524e+003,-1.685534e-003
3.143453e+003,-1.608931e-003
3.145381e+003,-1.606539e-003
3.147310e+003,-1.570113e-003
3.149238e+003,-1.512669e-003
3.151167e+003,-1.409329e-003
3.153095e+003,-1.367941e-003
3.155024e+003,-1.356568e-003
3.156952e+003,-1.346599e-003
3.158881e+003,-1.383986e-003
3.160809e+003,-1.455147e-003
3.162738e+003,-1.390193e-003
3.164666e+003,-1.261100e-003
3.166594e+003,-1.179855e-003
3.168523e+003,-1.139559e-003
3.170452e+003,-1.170635e-003
3.172380e+003,-1.201294e-003
3.174309e+003,-1.064353e-003
3.176237e+003,-8.825697e-004
3.178166e+003,-8.819439e-004
3.180094e+003,-8.941777e-004
3.182022e+003,-9.638183e-004
3.183951e+003,-8.869246e-004
3.185880e+003,-7.907711e-004
3.187808e+003,-7.068366e-004
3.189737e+003,-6.581880e-004
3.191665e+003,-6.830394e-004
3.193594e+003,-7.127821e-004
3.195522e+003,-6.890148e-004
3.197450e+003,-5.579218e-004
3.199379e+003,-5.491823e-004
3.201308e+003,-5.488433e-004
3.203236e+003,-4.180968e-004
3.205165e+003,-3.629588e-004
3.207093e+003,-3.045462e-004
3.209021e+003,-2.486184e-004
3.210950e+003,-3.095940e-004
3.212878e+003,-3.149100e-004
3.214807e+003,-2.580024e-004
3.216736e+003,-2.187081e-004
3.218664e+003,-1.860484e-004
3.220593e+003,-1.614764e-004
3.222521e+003,-1.342073e-004
3.224449e+003,-8.516759e-005
3.226378e+003,6.187707e-006
3.228307e+003,2.322346e-005
3.230235e+003,-8.426607e-006
3.232164e+003,6.000698e-005
3.234092e+003,1.030266e-004
3.236021e+003,1.330040e-004
3.237949e+003,3.222190e-004
3.239877e+003,4.595965e-004
3.241806e+003,4.042909e-004
3.243735e+003,4.277825e-004
3.245663e+003,4.685856e-004
3.247592e+003,4.309230e-004
3.249520e+003,5.524568e-004
3.251448e+003,7.362105e-004
3.253377e+003,7.397011e-004
3.255305e+003,7.256195e-004
3.257234e+003,7.578246e-004
3.259163e+003,7.841960e-004
3.261091e+003,7.690862e-004
3.263020e+003,7.651299e-004
3.264948e+003,9.699948e-004
3.266876e+003,1.209941e-003
3.268805e+003,1.257230e-003
3.270733e+003,1.222637e-003
3.272662e+003,1.320373e-003
3.274591e+003,1.510587e-003
3.276519e+003,1.566660e-003
3.278448e+003,1.481652e-003
3.280376e+003,1.428664e-003
3.282304e+003,1.481365e-003
3.284233e+003,1.645066e-003
3.286161e+003,1.657687e-003
3.288090e+003,1.606468e-003
3.290019e+003,1.669295e-003
3.291947e+003,1.745291e-003
3.293875e+003,1.707930e-003
3.295804e+003,1.649193e-003
3.297732e+003,1.706686e-003
3.299661e+003,1.730565e-003
3.301589e+003,1.650006e-003
3.303518e+003,1.593821e-003
3.305447e+003,1.743142e-003
3.307375e+003,1.834966e-003
3.309303e+003,1.895614e-003
3.311232e+003,1.892250e-003
3.313160e+003,1.804829e-003
3.315089e+003,1.850847e-003
3.317018e+003,1.966976e-003
3.318946e+003,1.995452e-003
3.320875e+003,1.843933e-003
3.322803e+003,1.739625e-003
3.324731e+003,1.768805e-003
3.326660e+003,1.781438e-003
3.328588e+003,1.834176e-003
3.330517e+003,1.940001e-003
3.332446e+003,1.943864e-003
3.334374e+003,1.952328e-003
3.336302e+003,1.967847e-003
3.338231e+003,1.925834e-003
3.340159e+003,1.832895e-003
3.342088e+003,1.878545e-003
3.344016e+003,1.938842e-003
3.345945e+003,1.987625e-003
3.347874e+003,2.059739e-003
3.349802e+003,2.066422e-003
3.351730e+003,2.043750e-003
3.353659e+003,1.981921e-003
3.355587e+003,2.057675e-003
3.357516e+003,2.133511e-003
3.359444e+003,2.119288e-003
3.361373e+003,2.099458e-003
3.363302e+003,2.027217e-003
3.365230e+003,2.017669e-003
3.367158e+003,1.948550e-003
3.369087e+003,1.960643e-003
3.371015e+003,1.974717e-003
3.372944e+003,1.987163e-003
3.374872e+003,1.999754e-003
3.376801e+003,2.055019e-003
3.378729e+003,2.029043e-003
3.380658e+003,2.016969e-003
3.382586e+003,1.992092e-003
3.384515e+003,1.930639e-003
3.386443e+003,1.908615e-003
3.388372e+003,1.912262e-003
3.390300e+003,1.854628e-003
3.392229e+003,1.891352e-003
3.394157e+003,1.826115e-003
3.396086e+003,1.707442e-003
3.398014e+003,1.701780e-003
3.399943e+003,1.646675e-003
3.401871e+003,1.632378e-003
3.403800e+003,1.629002e-003
3.405728e+003,1.532860e-003
3.407657e+003,1.530588e-003
3.409585e+003,1.515925e-003
3.411514e+003,1.561217e-003
3.413442e+003,1.517847e-003
3.415371e+003,1.531020e-003
3.417299e+003,1.566581e-003
3.419228e+003,1.549028e-003
3.421156e+003,1.467288e-003
3.423085e+003,1.499541e-003
3.425013e+003,1.447767e-003
3.426942e+003,1.344368e-003
3.428870e+003,1.445033e-003
3.430799e+003,1.492158e-003
3.432727e+003,1.360789e-003
3.434656e+003,1.295954e-003
3.436584e+003,1.336284e-003
3.438513e+003,1.340114e-003
3.440441e+003,1.347758e-003
3.442370e+003,1.198657e-003
3.444298e+003,1.144372e-003
3.446227e+003,1.294762e-003
3.448155e+003,1.288906e-003
3.450084e+003,1.224048e-003
3.452012e+003,1.177169e-003
3.453941e+003,1.003802e-003
3.455869e+003,8.822680e-004
3.457798e+003,1.100190e-003
3.459726e+003,1.180001e-003
3.461655e+003,1.187667e-003
3.463583e+003,1.188040e-003
3.465512e+003,1.124255e-003
3.467440e+003,1.019031e-003
3.469369e+003,9.286776e-004
3.471297e+003,9.039044e-004
3.473226e+003,9.125024e-004
3.475154e+003,8.644909e-004
3.477083e+003,8.302554e-004
3.479011e+003,8.622780e-004
3.480940e+003,8.449703e-004
3.482868e+003,7.946268e-004
3.484797e+003,7.203817e-004
3.486725e+003,6.647184e-004
3.488654e+003,6.974488e-004
3.490582e+003,6.071851e-004
3.492511e+003,5.099401e-004
3.494439e+003,5.746558e-004
3.496368e+003,5.007312e-004
3.498296e+003,3.721714e-004
3.500225e+003,4.926845e-004
3.502153e+003,5.531535e-004
3.504082e+003,4.904270e-004
3.506010e+003,5.368963e-004
3.507939e+003,5.713776e-004
3.509867e+003,4.913211e-004
3.511796e+003,3.908947e-004
3.513724e+003,3.681257e-004
3.515653e+003,2.807751e-004
3.517581e+003,1.963675e-004
3.519510e+003,8.557737e-005
3.521438e+003,1.526773e-004
3.523367e+003,1.943856e-004
3.525295e+003,6.756186e-005
3.527224e+003,1.014546e-004
3.529152e+003,1.325682e-004
3.531081e+003,8.253753e-005
3.533009e+003,-5.328655e-005
3.534938e+003,-7.977337e-005
3.536866e+003,-1.115575e-004
3.538795e+003,-1.498461e-004
3.540723e+003,-1.542866e-004
3.542652e+003,-8.636713e-005
3.544580e+003,3.788620e-005
3.546509e+003,-6.332994e-005
3.548437e+003,-1.953095e-004
3.550366e+003,-3.001764e-004
3.552294e+003,-5.391017e-004
3.554223e+003,-5.155504e-004
3.556151e+003,-4.757345e-004
3.558080e+003,-5.143359e-004
3.560008e+003,-3.433302e-004
3.561937e+003,-3.630742e-004
3.563865e+003,-4.179552e-004
3.565794e+003,-9.191781e-005
3.567722e+003,8.699298e-005
3.569651e+003,-2.996773e-004
3.571579e+003,-6.209090e-004
3.573508e+003,-8.955002e-004
3.575436e+003,-8.615255e-004
3.577365e+003,-5.566701e-004
3.579293e+003,-3.689453e-004
3.581222e+003,-5.847812e-004
3.583150e+003,-7.652715e-004
3.585079e+003,-5.373880e-004
3.587007e+003,-7.822365e-005
3.588936e+003,-2.841651e-005
3.590864e+003,-1.411811e-004
3.592793e+003,-2.206862e-005
3.594721e+003,2.317876e-004
3.596650e+003,4.023686e-004
3.598578e+003,6.387383e-004
3.600507e+003,9.011850e-004
3.602435e+003,9.168088e-004
3.604364e+003,9.334460e-004
3.606292e+003,1.014099e-003
3.608221e+003,1.000725e-003
3.610149e+003,8.779317e-004
3.612078e+003,5.927309e-004
3.614006e+003,6.407499e-007
3.615935e+003,-1.498163e-004
3.617863e+003,1.045465e-004
3.619792e+003,1.754761e-004
3.621720e+003,-3.100187e-005
3.623649e+003,-1.730323e-004
3.625577e+003,-1.833588e-004
3.627506e+003,4.839152e-004
3.629434e+003,7.098839e-004
3.631363e+003,1.503453e-004
3.633291e+003,-1.281574e-004
3.635220e+003,-5.326867e-004
3.637148e+003,-4.155412e-004
3.639077e+003,-5.410612e-005
3.641005e+003,1.834035e-004
3.642934e+003,1.311079e-004
3.644862e+003,-2.067536e-005
3.646791e+003,3.387854e-004
3.648719e+003,8.953363e-004
3.650648e+003,7.529780e-004
3.652576e+003,5.867332e-005
3.654505e+003,-1.451001e-004
3.656433e+003,-2.022013e-004
3.658362e+003,-3.824010e-004
3.660290e+003,-3.306344e-004
3.662219e+003,-3.822222e-004
3.664147e+003,-5.375966e-004
3.666076e+003,-5.747825e-004
3.668004e+003,-2.301484e-004
3.669933e+003,-6.541610e-006
3.671861e+003,-5.748048e-004
3.673790e+003,-6.086677e-004
3.675718e+003,-3.848225e-004
3.677647e+003,-3.508925e-004
3.679575e+003,-2.691001e-004
3.681504e+003,-4.498586e-004
3.683432e+003,-5.205646e-004
3.685361e+003,-5.485490e-004
3.687289e+003,4.020333e-005
3.689218e+003,8.588210e-004
3.691146e+003,5.194619e-004
3.693075e+003,1.290217e-004
3.695003e+003,-2.496168e-004
3.696932e+003,-4.866049e-004
3.698860e+003,-4.134402e-004
3.700789e+003,-4.532188e-005
3.702717e+003,1.315922e-004
3.704646e+003,-1.519918e-004
3.706574e+003,-5.118027e-004
3.708503e+003,-5.768910e-004
3.710431e+003,-3.877282e-005
3.712360e+003,1.306385e-004
3.714288e+003,-9.541214e-005
3.716217e+003,-3.164038e-004
3.718145e+003,-4.310608e-004
3.720074e+003,-5.968884e-004
3.722002e+003,-4.650801e-004
3.723931e+003,3.708899e-005
3.725859e+003,2.937168e-004
3.727788e+003,-1.382828e-004
3.729716e+003,-2.665147e-004
3.731645e+003,-4.130602e-005
3.733573e+003,2.356619e-004
3.735502e+003,1.102671e-003
3.737430e+003,6.774962e-004
3.739359e+003,-1.809672e-004
3.741287e+003,-3.331676e-004
3.743216e+003,2.805367e-004
3.745144e+003,5.989820e-004
3.747073e+003,3.943890e-004
3.749001e+003,9.513199e-004
3.750930e+003,1.522519e-003
3.752858e+003,8.848310e-004
3.754787e+003,3.599450e-004
3.756715e+003,3.647655e-004
3.758644e+003,5.112439e-004
3.760572e+003,6.810501e-004
3.762501e+003,5.472898e-004
3.764429e+003,4.375130e-004
3.766358e+003,3.128946e-004
3.768286e+003,5.491078e-004
3.770215e+003,7.416457e-004
3.772143e+003,4.587248e-004
3.774072e+003,3.198907e-004
3.776000e+003,4.147589e-004
3.777929e+003,8.075088e-004
3.779857e+003,8.445755e-004
3.781786e+003,7.103160e-004
3.783714e+003,8.120090e-004
3.785643e+003,7.039011e-004
3.787571e+003,6.509721e-004
3.789500e+003,5.377159e-004
3.791428e+003,5.078390e-004
3.793357e+003,5.953684e-004
3.795285e+003,8.393228e-004
3.797214e+003,9.117350e-004
3.799142e+003,1.092792e-003
3.801071e+003,1.365177e-003
3.802999e+003,8.396283e-004
3.804927e+003,9.617954e-004
3.806856e+003,1.222126e-003
3.808785e+003,1.040764e-003
3.810713e+003,1.082413e-003
3.812642e+003,1.099966e-003
3.814570e+003,1.478516e-003
3.816499e+003,1.755148e-003
3.818427e+003,1.854613e-003
3.820355e+003,2.183877e-003
3.822284e+003,1.360282e-003
3.824213e+003,1.106501e-003
3.826141e+003,1.127020e-003
3.828070e+003,1.065306e-003
3.829998e+003,1.354948e-003
3.831927e+003,1.639098e-003
3.833855e+003,1.674637e-003
3.835783e+003,1.781106e-003
3.837712e+003,1.675561e-003
3.839641e+003,1.457788e-003
3.841569e+003,1.596577e-003
3.843498e+003,1.544520e-003
3.845426e+003,1.442656e-003
3.847354e+003,1.345068e-003
3.849283e+003,1.211569e-003
3.851211e+003,1.396522e-003
3.853140e+003,2.313614e-003
3.855069e+003,2.030037e-003
3.856997e+003,1.617953e-003
3.858926e+003,1.289397e-003
3.860854e+003,1.402847e-003
3.862782e+003,2.036333e-003
3.864711e+003,2.192713e-003
3.866640e+003,1.755938e-003
3.868568e+003,1.772642e-003
3.870497e+003,1.650609e-003
3.872425e+003,1.832247e-003
3.874354e+003,1.936853e-003
3.876282e+003,1.652360e-003
3.878210e+003,1.823939e-003
3.880139e+003,2.091058e-003
3.882068e+003,2.230413e-003
3.883996e+003,2.489842e-003
3.885925e+003,2.025224e-003
3.887853e+003,1.510762e-003
3.889781e+003,1.757197e-003
3.891710e+003,2.043635e-003
3.893638e+003,2.128892e-003
3.895567e+003,2.211809e-003
3.897496e+003,2.193466e-003
3.899424e+003,2.147712e-003
3.901353e+003,2.423488e-003
3.903281e+003,2.498604e-003
3.905209e+003,2.275787e-003
3.907138e+003,2.137989e-003
3.909066e+003,2.061628e-003
3.910995e+003,2.054088e-003
3.912924e+003,2.089217e-003
3.914852e+003,2.277367e-003
3.916781e+003,2.501130e-003
3.918709e+003,2.375886e-003
3.920637e+003,2.237082e-003
3.922566e+003,2.312958e-003
3.924494e+003,2.278477e-003
3.926423e+003,2.149597e-003
3.928352e+003,2.120830e-003
3.930280e+003,2.103180e-003
3.932208e+003,2.131656e-003
3.934137e+003,2.031475e-003
3.936065e+003,1.989633e-003
3.937994e+003,1.898408e-003
3.939922e+003,1.833268e-003
3.941851e+003,1.986228e-003
3.943780e+003,2.023712e-003
3.945708e+003,2.159037e-003
3.947636e+003,2.213851e-003
3.949565e+003,2.037689e-003
3.951493e+003,1.963086e-003
3.953422e+003,1.859561e-003
3.955351e+003,1.821369e-003
3.957279e+003,1.988046e-003
3.959208e+003,2.138995e-003
3.961136e+003,2.178200e-003
3.963064e+003,2.090126e-003
3.964993e+003,2.128929e-003
3.966921e+003,2.152532e-003
3.968850e+003,2.216123e-003
3.970779e+003,2.182454e-003
3.972707e+003,2.092503e-003
3.974635e+003,2.132483e-003
3.976564e+003,2.205394e-003
3.978492e+003,2.203323e-003
3.980421e+003,2.197795e-003
3.982349e+003,2.231412e-003
3.984278e+003,2.099402e-003
3.986207e+003,2.015024e-003
3.988135e+003,2.058245e-003
3.990063e+003,2.053171e-003
3.991992e+003,2.031781e-003
3.993920e+003,2.087779e-003
3.995849e+003,2.033047e-003
3.997777e+003,1.961514e-003
3.999706e+003,2.088018e-003
4.001635e+003,0.000000e+000
