3.991992e+002,0.000000e+000
4.011277e+002,0.000000e+000
4.030562e+002,0.000000e+000
4.049846e+002,0.000000e+000
4.069131e+002,0.000000e+000
4.088416e+002,0.000000e+000
4.107701e+002,0.000000e+000
4.126986e+002,0.000000e+000
4.146271e+002,0.000000e+000
4.165556e+002,0.000000e+000
4.184841e+002,0.000000e+000
4.204126e+002,0.000000e+000
4.223411e+002,0.000000e+000
4.242697e+002,0.000000e+000
4.261982e+002,0.000000e+000
4.281266e+002,0.000000e+000
4.300551e+002,0.000000e+000
4.319836e+002,0.000000e+000
4.339121e+002,0.000000e+000
4.358406e+002,0.000000e+000
4.377691e+002,0.000000e+000
4.396976e+002,0.000000e+000
4.416261e+002,0.000000e+000
4.435546e+002,0.000000e+000
4.454831e+002,0.000000e+000
4.474116e+002,0.000000e+000
4.493401e+002,0.000000e+000
4.512686e+002,0.000000e+000
4.531971e+002,0.000000e+000
4.551256e+002,0.000000e+000
4.570541e+002,0.000000e+000
4.589826e+002,0.000000e+000
4.609111e+002,0.000000e+000
4.628396e+002,0.000000e+000
4.647681e+002,0.000000e+000
4.666966e+002,0.000000e+000
4.686251e+002,0.000000e+000
4.705536e+002,0.000000e+000
4.724821e+002,0.000000e+000
4.744106e+002,0.000000e+000
4.763391e+002,0.000000e+000
4.782676e+002,0.000000e+000
4.801961e+002,0.000000e+000
4.821246e+002,0.000000e+000
4.840531e+002,0.000000e+000
4.859816e+002,0.000000e+000
4.879101e+002,0.000000e+000
4.898386e+002,0.000000e+000
4.917671e+002,0.000000e+000
4.936956e+002,0.000000e+000
4.956241e+002,0.000000e+000
4.975526e+002,0.000000e+000
4.994811e+002,0.000000e+000
5.014096e+002,0.000000e+000
5.033381e+002,0.000000e+000
5.052666e+002,0.000000e+000
5.071951e+002,0.000000e+000
5.091236e+002,0.000000e+000
5.110521e+002,0.000000e+000
5.129806e+002,0.000000e+000
5.149091e+002,0.000000e+000
5.168376e+002,0.000000e+000
5.187661e+002,0.000000e+000
5.206946e+002,0.000000e+000
5.226230e+002,0.000000e+000
5.245516e+002,-4.361651e-004
5.264800e+002,-5.054749e-004
5.284086e+002,-3.356952e-004
5.303370e+002,-2.804857e-004
5.322656e+002,-2.649704e-004
5.341940e+002,-3.755272e-004
5.361226e+002,-4.013027e-004
5.380510e+002,-3.276810e-004
5.399796e+002,-3.185393e-004
5.419081e+002,-3.290116e-004
5.438365e+002,-2.792471e-004
5.457650e+002,-3.057788e-004
5.476935e+002,-3.182893e-004
5.496221e+002,-2.713767e-004
5.515505e+002,-2.184846e-004
5.534790e+002,-2.204413e-004
5.554075e+002,-2.408931e-004
5.573361e+002,-3.064084e-004
5.592645e+002,-3.715530e-004
5.611931e+002,-3.341367e-004
5.631215e+002,-2.690302e-004
5.650500e+002,-2.859710e-004
5.669785e+002,-2.891328e-004
5.689070e+002,-3.667502e-004
5.708355e+002,-4.435708e-004
5.727640e+002,-4.067342e-004
5.746925e+002,-3.828029e-004
5.766210e+002,-5.241432e-004
5.785495e+002,-5.319756e-004
5.804780e+002,-5.952925e-004
5.824065e+002,-5.615088e-004
5.843350e+002,-5.206917e-004
5.862635e+002,-5.362839e-004
5.881920e+002,-5.455059e-004
5.901205e+002,-5.345964e-004
5.920490e+002,-5.582706e-004
5.939775e+002,-5.354825e-004
5.959060e+002,-4.978688e-004
5.978345e+002,-4.794123e-004
5.997630e+002,-4.474083e-004
6.016915e+002,-4.166993e-004
6.036200e+002,-4.266710e-004
6.055485e+002,-3.295890e-004
6.074770e+002,-3.322829e-004
6.094055e+002,-2.810699e-004
6.113340e+002,-3.592828e-004
6.132625e+002,-4.568822e-004
6.151910e+002,-5.615219e-004
6.171195e+002,-5.824342e-004
6.190480e+002,-6.559580e-004
6.209765e+002,-6.321389e-004
6.229050e+002,-5.587605e-004
6.248335e+002,-4.475988e-004
6.267620e+002,-3.723092e-004
6.286905e+002,-3.226390e-004
6.306190e+002,-2.638237e-004
6.325475e+002,-1.725769e-004
6.344760e+002,-2.330360e-004
6.364045e+002,-1.569125e-004
6.383330e+002,-4.827837e-005
6.402615e+002,8.664280e-005
6.421899e+002,1.444528e-004
6.441185e+002,1.226473e-004
6.460470e+002,2.318481e-005
6.479755e+002,1.317635e-005
6.499039e+002,-2.746377e-005
6.518325e+002,5.972013e-005
6.537610e+002,8.989498e-005
6.556895e+002,1.782537e-004
6.576179e+002,2.810741e-004
6.595464e+002,3.440054e-004
6.614750e+002,2.425653e-004
6.634034e+002,2.248026e-004
6.653319e+002,1.966571e-004
6.672604e+002,3.472515e-004
6.691890e+002,4.610675e-004
6.711174e+002,4.948210e-004
6.730460e+002,4.681521e-004
6.749745e+002,6.261105e-004
6.769030e+002,7.489412e-004
6.788314e+002,8.660564e-004
6.807599e+002,9.961319e-004
6.826885e+002,1.196076e-003
6.846169e+002,1.255224e-003
6.865454e+002,1.381462e-003
6.884739e+002,1.564083e-003
6.904025e+002,1.875773e-003
6.923309e+002,2.179704e-003
6.942594e+002,2.591385e-003
6.961879e+002,2.982867e-003
6.981165e+002,3.708645e-003
7.000449e+002,4.622618e-003
7.019734e+002,5.835129e-003
7.039019e+002,7.365064e-003
7.058304e+002,9.508963e-003
7.077589e+002,1.239671e-002
7.096874e+002,1.676413e-002
7.116159e+002,2.381520e-002
7.135444e+002,3.741971e-002
7.154729e+002,6.229753e-002
7.174014e+002,9.666632e-002
7.193299e+002,1.121664e-001
7.212584e+002,8.505627e-002
7.231869e+002,5.715574e-002
7.251154e+002,4.773727e-002
7.270439e+002,5.293136e-002
7.289724e+002,6.849673e-002
7.309009e+002,6.406263e-002
7.328294e+002,3.648723e-002
7.347579e+002,1.876123e-002
7.366864e+002,1.243810e-002
7.386149e+002,9.718506e-003
7.405434e+002,8.119727e-003
7.424719e+002,7.104719e-003
7.444004e+002,6.243676e-003
7.463289e+002,5.685897e-003
7.482574e+002,5.167084e-003
7.501859e+002,4.748151e-003
7.521144e+002,4.411367e-003
7.540428e+002,4.172117e-003
7.559714e+002,3.878065e-003
7.578999e+002,3.718151e-003
7.598284e+002,3.617072e-003
7.617568e+002,3.566035e-003
7.636854e+002,3.477015e-003
7.656139e+002,3.393843e-003
7.675424e+002,3.309581e-003
7.694709e+002,3.212539e-003
7.713994e+002,3.158598e-003
7.733279e+002,3.158479e-003
7.752563e+002,3.080358e-003
7.771849e+002,2.943836e-003
7.791134e+002,2.791459e-003
7.810419e+002,2.704608e-003
7.829703e+002,2.589548e-003
7.848989e+002,2.451930e-003
7.868274e+002,2.368954e-003
7.887559e+002,2.393091e-003
7.906843e+002,2.393707e-003
7.926129e+002,2.354253e-003
7.945414e+002,2.417229e-003
7.964698e+002,2.449179e-003
7.983983e+002,2.387641e-003
8.003268e+002,2.330617e-003
8.022554e+002,2.301004e-003
8.041838e+002,2.231069e-003
8.061123e+002,2.197362e-003
8.080408e+002,2.167097e-003
8.099694e+002,2.082247e-003
8.118978e+002,1.938619e-003
8.138263e+002,1.896163e-003
8.157548e+002,1.841012e-003
8.176833e+002,1.815543e-003
8.196118e+002,1.836463e-003
8.215403e+002,1.791672e-003
8.234689e+002,1.719160e-003
8.253973e+002,1.608571e-003
8.273258e+002,1.474868e-003
8.292543e+002,1.441218e-003
8.311829e+002,1.442851e-003
8.331113e+002,1.365553e-003
8.350398e+002,1.292920e-003
8.369683e+002,1.365067e-003
8.388969e+002,1.412807e-003
8.408253e+002,1.445153e-003
8.427538e+002,1.402111e-003
8.446823e+002,1.430609e-003
8.466108e+002,1.463762e-003
8.485393e+002,1.463353e-003
8.504678e+002,1.482704e-003
8.523963e+002,1.513643e-003
8.543248e+002,1.456407e-003
8.562533e+002,1.440043e-003
8.581818e+002,1.425401e-003
8.601103e+002,1.421735e-003
8.620388e+002,1.482152e-003
8.639673e+002,1.606572e-003
8.658958e+002,1.598403e-003
8.678243e+002,1.630594e-003
8.697528e+002,1.641637e-003
8.716813e+002,1.601249e-003
8.736098e+002,1.626487e-003
8.755383e+002,1.822359e-003
8.774668e+002,1.907875e-003
8.793953e+002,2.006375e-003
8.813238e+002,2.208786e-003
8.832523e+002,2.429076e-003
8.851808e+002,2.650330e-003
8.871093e+002,2.808970e-003
8.890378e+002,2.771044e-003
8.909663e+002,2.662064e-003
8.928948e+002,2.519225e-003
8.948232e+002,2.422950e-003
8.967518e+002,2.333136e-003
8.986803e+002,2.282058e-003
9.006088e+002,2.235646e-003
9.025372e+002,2.242557e-003
9.044658e+002,2.339141e-003
9.063943e+002,2.563325e-003
9.083228e+002,2.687747e-003
9.102512e+002,2.610176e-003
9.121797e+002,2.323875e-003
9.141083e+002,2.125091e-003
9.160367e+002,2.041706e-003
9.179653e+002,2.054672e-003
9.198937e+002,2.007349e-003
9.218223e+002,2.011263e-003
9.237507e+002,2.013785e-003
9.256793e+002,1.977998e-003
9.276077e+002,1.853467e-003
9.295363e+002,1.873427e-003
9.314647e+002,1.989992e-003
9.333932e+002,2.029811e-003
9.353217e+002,1.989315e-003
9.372502e+002,1.936755e-003
9.391787e+002,1.874360e-003
9.411072e+002,1.917888e-003
9.430358e+002,1.943603e-003
9.449642e+002,1.896637e-003
9.468928e+002,1.894206e-003
9.488212e+002,1.953425e-003
9.507498e+002,1.900007e-003
9.526782e+002,1.924457e-003
9.546068e+002,1.914708e-003
9.565352e+002,1.985820e-003
9.584637e+002,2.056521e-003
9.603922e+002,2.159430e-003
9.623207e+002,2.208507e-003
9.642492e+002,2.277511e-003
9.661777e+002,2.297634e-003
9.681062e+002,2.284704e-003
9.700347e+002,2.249692e-003
9.719632e+002,2.201031e-003
9.738917e+002,2.174549e-003
9.758202e+002,2.234044e-003
9.777487e+002,2.161247e-003
9.796772e+002,2.105399e-003
9.816057e+002,2.115373e-003
9.835342e+002,2.171301e-003
9.854627e+002,2.210159e-003
9.873912e+002,2.296599e-003
9.893197e+002,2.366375e-003
9.912482e+002,2.452543e-003
9.931767e+002,2.499077e-003
9.951052e+002,2.533577e-003
9.970337e+002,2.530896e-003
9.989622e+002,2.604458e-003
1.000891e+003,2.650223e-003
1.002819e+003,2.709788e-003
1.004748e+003,2.753214e-003
1.006676e+003,2.876224e-003
1.008605e+003,2.974334e-003
1.010533e+003,3.042301e-003
1.012462e+003,3.081562e-003
1.014390e+003,3.128078e-003
1.016319e+003,3.194731e-003
1.018247e+003,3.277858e-003
1.020176e+003,3.348025e-003
1.022104e+003,3.410204e-003
1.024033e+003,3.355589e-003
1.025961e+003,3.369818e-003
1.027890e+003,3.420644e-003
1.029818e+003,3.464413e-003
1.031747e+003,3.472368e-003
1.033675e+003,3.573608e-003
1.035604e+003,3.595460e-003
1.037532e+003,3.625446e-003
1.039461e+003,3.665001e-003
1.041389e+003,3.723201e-003
1.043318e+003,3.731750e-003
1.045246e+003,3.755003e-003
1.047175e+003,3.860569e-003
1.049103e+003,4.057707e-003
1.051032e+003,4.090885e-003
1.052960e+003,4.025581e-003
1.054889e+003,3.991934e-003
1.056817e+003,4.140779e-003
1.058746e+003,4.264346e-003
1.060674e+003,4.378968e-003
1.062603e+003,4.459827e-003
1.064531e+003,4.544314e-003
1.066460e+003,4.517294e-003
1.068388e+003,4.514772e-003
1.070317e+003,4.558982e-003
1.072245e+003,4.727409e-003
1.074174e+003,4.830519e-003
1.076102e+003,4.968571e-003
1.078031e+003,5.031692e-003
1.079959e+003,5.077688e-003
1.081888e+003,5.040294e-003
1.083816e+003,5.008889e-003
1.085745e+003,4.901090e-003
1.087673e+003,4.805060e-003
1.089602e+003,4.649428e-003
1.091530e+003,4.576133e-003
1.093459e+003,4.447459e-003
1.095387e+003,4.328921e-003
1.097316e+003,4.216981e-003
1.099244e+003,4.184249e-003
1.101173e+003,4.065560e-003
1.103101e+003,3.960745e-003
1.105030e+003,3.841539e-003
1.106958e+003,3.823994e-003
1.108887e+003,3.718162e-003
1.110815e+003,3.644293e-003
1.112744e+003,3.532182e-003
1.114672e+003,3.476667e-003
1.116601e+003,3.370136e-003
1.118529e+003,3.346703e-003
1.120458e+003,3.339161e-003
1.122386e+003,3.353885e-003
1.124315e+003,3.346059e-003
1.126243e+003,3.416092e-003
1.128172e+003,3.465016e-003
1.130100e+003,3.544051e-003
1.132029e+003,3.489366e-003
1.133957e+003,3.459176e-003
1.135885e+003,3.399970e-003
1.137814e+003,3.318156e-003
1.139743e+003,3.227527e-003
1.141671e+003,3.309124e-003
1.143600e+003,3.346465e-003
1.145528e+003,3.432991e-003
1.147457e+003,3.514275e-003
1.149385e+003,3.702214e-003
1.151314e+003,3.903925e-003
1.153242e+003,4.100012e-003
1.155171e+003,4.174049e-003
1.157099e+003,4.179539e-003
1.159028e+003,4.165655e-003
1.160956e+003,4.197265e-003
1.162885e+003,4.146770e-003
1.164813e+003,4.086717e-003
1.166742e+003,3.944219e-003
1.168670e+003,3.864270e-003
1.170599e+003,3.731617e-003
1.172527e+003,3.617726e-003
1.174456e+003,3.551678e-003
1.176384e+003,3.614200e-003
1.178313e+003,3.511536e-003
1.180241e+003,3.341245e-003
1.182170e+003,3.231615e-003
1.184098e+003,3.267846e-003
1.186027e+003,3.274582e-003
1.187955e+003,3.345976e-003
1.189884e+003,3.403527e-003
1.191812e+003,3.515953e-003
1.193740e+003,3.550150e-003
1.195669e+003,3.653257e-003
1.197598e+003,3.713929e-003
1.199526e+003,3.858441e-003
1.201455e+003,3.988590e-003
1.203383e+003,4.144012e-003
1.205312e+003,4.262500e-003
1.207240e+003,4.450551e-003
1.209168e+003,4.588810e-003
1.211097e+003,4.784928e-003
1.213026e+003,4.912488e-003
1.214954e+003,5.089662e-003
1.216883e+003,5.220953e-003
1.218811e+003,5.363487e-003
1.220740e+003,5.438149e-003
1.222668e+003,5.560425e-003
1.224596e+003,5.669991e-003
1.226525e+003,5.845575e-003
1.228453e+003,5.958545e-003
1.230382e+003,6.101141e-003
1.232311e+003,6.190789e-003
1.234239e+003,6.297746e-003
1.236167e+003,6.324588e-003
1.238096e+003,6.385991e-003
1.240025e+003,6.351187e-003
1.241953e+003,6.365878e-003
1.243882e+003,6.317305e-003
1.245810e+003,6.286866e-003
1.247739e+003,6.230617e-003
1.249667e+003,6.253816e-003
1.251595e+003,6.200322e-003
1.253524e+003,6.213675e-003
1.255453e+003,6.256672e-003
1.257381e+003,6.407024e-003
1.259310e+003,6.458366e-003
1.261238e+003,6.503868e-003
1.263167e+003,6.402728e-003
1.265095e+003,6.305649e-003
1.267023e+003,6.137749e-003
1.268952e+003,6.072587e-003
1.270880e+003,6.032071e-003
1.272809e+003,6.071893e-003
1.274738e+003,6.047147e-003
1.276666e+003,6.159335e-003
1.278594e+003,6.250438e-003
1.280523e+003,6.403730e-003
1.282451e+003,6.512682e-003
1.284380e+003,6.749217e-003
1.286308e+003,6.995656e-003
1.288237e+003,7.321320e-003
1.290166e+003,7.561185e-003
1.292094e+003,7.931517e-003
1.294022e+003,8.295901e-003
1.295951e+003,8.735815e-003
1.297879e+003,9.032691e-003
1.299808e+003,9.284146e-003
1.301736e+003,9.367567e-003
1.303665e+003,9.430106e-003
1.305594e+003,9.345820e-003
1.307522e+003,9.263912e-003
1.309450e+003,8.991858e-003
1.311379e+003,8.740266e-003
1.313307e+003,8.319050e-003
1.315236e+003,7.921059e-003
1.317164e+003,7.528151e-003
1.319093e+003,7.201195e-003
1.321021e+003,6.743284e-003
1.322950e+003,6.457106e-003
1.324878e+003,6.224446e-003
1.326807e+003,6.190619e-003
1.328735e+003,6.138177e-003
1.330664e+003,6.254674e-003
1.332592e+003,6.453988e-003
1.334521e+003,6.971208e-003
1.336449e+003,7.696847e-003
1.338378e+003,8.707607e-003
1.340306e+003,9.361450e-003
1.342235e+003,9.682631e-003
1.344163e+003,1.001794e-002
1.346092e+003,1.066823e-002
1.348021e+003,1.135402e-002
1.349949e+003,1.206184e-002
1.351877e+003,1.241393e-002
1.353806e+003,1.249013e-002
1.355734e+003,1.226143e-002
1.357663e+003,1.232222e-002
1.359591e+003,1.268382e-002
1.361520e+003,1.364757e-002
1.363448e+003,1.488074e-002
1.365377e+003,1.595258e-002
1.367305e+003,1.685698e-002
1.369234e+003,1.735319e-002
1.371162e+003,1.711031e-002
1.373091e+003,1.753200e-002
1.375019e+003,1.952844e-002
1.376948e+003,2.099391e-002
1.378876e+003,1.923979e-002
1.380805e+003,1.473099e-002
1.382733e+003,1.044165e-002
1.384662e+003,8.098333e-003
1.386590e+003,6.828677e-003
1.388519e+003,6.071948e-003
1.390447e+003,5.454258e-003
1.392376e+003,5.328801e-003
1.394304e+003,5.267872e-003
1.396233e+003,5.389451e-003
1.398161e+003,5.236862e-003
1.400090e+003,5.268858e-003
1.402018e+003,5.036423e-003
1.403947e+003,5.307973e-003
1.405875e+003,5.306716e-003
1.407804e+003,5.495864e-003
1.409732e+003,5.586660e-003
1.411661e+003,5.882827e-003
1.413589e+003,5.855082e-003
1.415518e+003,6.258832e-003
1.417446e+003,6.580231e-003
1.419375e+003,7.458405e-003
1.421303e+003,7.685270e-003
1.423232e+003,8.796463e-003
1.425160e+003,1.013070e-002
1.427089e+003,1.202782e-002
1.429017e+003,1.454914e-002
1.430946e+003,1.829764e-002
1.432874e+003,2.129199e-002
1.434803e+003,2.433768e-002
1.436731e+003,2.766726e-002
1.438660e+003,3.056840e-002
1.440588e+003,3.224180e-002
1.442517e+003,3.480664e-002
1.444445e+003,3.682438e-002
1.446374e+003,3.978625e-002
1.448302e+003,4.381531e-002
1.450231e+003,4.983082e-002
1.452159e+003,5.875891e-002
1.454088e+003,7.022950e-002
1.456016e+003,8.168856e-002
1.457945e+003,1.070349e-001
1.459873e+003,1.503294e-001
1.461802e+003,1.960164e-001
1.463730e+003,1.983779e-001
1.465659e+003,1.555651e-001
1.467587e+003,1.413205e-001
1.469516e+003,1.396305e-001
1.471444e+003,1.588002e-001
1.473373e+003,1.386619e-001
1.475301e+003,7.534192e-002
1.477230e+003,3.406258e-002
1.479158e+003,2.185399e-002
1.481087e+003,1.596846e-002
1.483015e+003,1.314393e-002
1.484944e+003,1.093127e-002
1.486872e+003,1.048187e-002
1.488801e+003,9.301680e-003
1.490729e+003,8.864485e-003
1.492658e+003,7.421266e-003
1.494586e+003,7.430020e-003
1.496515e+003,6.802852e-003
1.498443e+003,6.762091e-003
1.500372e+003,5.868676e-003
1.502300e+003,5.776278e-003
1.504229e+003,5.359949e-003
1.506157e+003,6.432340e-003
1.508086e+003,5.820544e-003
1.510014e+003,5.601140e-003
1.511943e+003,4.791039e-003
1.513871e+003,4.828020e-003
1.515800e+003,4.678511e-003
1.517728e+003,4.863281e-003
1.519657e+003,4.552891e-003
1.521585e+003,5.143107e-003
1.523514e+003,4.526583e-003
1.525442e+003,4.713480e-003
1.527371e+003,4.208835e-003
1.529299e+003,4.050852e-003
1.531228e+003,3.800362e-003
1.533156e+003,4.196878e-003
1.535085e+003,3.677749e-003
1.537013e+003,3.762778e-003
1.538942e+003,4.042310e-003
1.540870e+003,5.148944e-003
1.542799e+003,4.450256e-003
1.544727e+003,4.230495e-003
1.546656e+003,3.369834e-003
1.548584e+003,3.451658e-003
1.550513e+003,3.296106e-003
1.552441e+003,3.269931e-003
1.554370e+003,3.166685e-003
1.556298e+003,3.449866e-003
1.558227e+003,3.882390e-003
1.560155e+003,3.939221e-003
1.562084e+003,3.017393e-003
1.564012e+003,2.956594e-003
1.565941e+003,2.789875e-003
1.567869e+003,3.005992e-003
1.569798e+003,2.973978e-003
1.571726e+003,2.721050e-003
1.573655e+003,2.568890e-003
1.575583e+003,3.073923e-003
1.577512e+003,2.957495e-003
1.579440e+003,2.680600e-003
1.581369e+003,2.463527e-003
1.583297e+003,2.489548e-003
1.585226e+003,2.407337e-003
1.587154e+003,2.479865e-003
1.589083e+003,2.387080e-003
1.591011e+003,2.464787e-003
1.592940e+003,2.478923e-003
1.594868e+003,2.578604e-003
1.596797e+003,2.369910e-003
1.598725e+003,2.315650e-003
1.600654e+003,2.272734e-003
1.602582e+003,2.380507e-003
1.604511e+003,2.252029e-003
1.606439e+003,2.377574e-003
1.608368e+003,2.392893e-003
1.610296e+003,2.382553e-003
1.612225e+003,2.214292e-003
1.614153e+003,2.347494e-003
1.616082e+003,2.547842e-003
1.618010e+003,2.605730e-003
1.619939e+003,2.361309e-003
1.621867e+003,2.599216e-003
1.623796e+003,2.636481e-003
1.625724e+003,2.505206e-003
1.627653e+003,2.434198e-003
1.629581e+003,2.391638e-003
1.631510e+003,2.205151e-003
1.633438e+003,2.338316e-003
1.635367e+003,2.832091e-003
1.637295e+003,3.165955e-003
1.639224e+003,2.777926e-003
1.641152e+003,2.654997e-003
1.643081e+003,2.602440e-003
1.645009e+003,2.926835e-003
1.646938e+003,3.131544e-003
1.648866e+003,2.703417e-003
1.650795e+003,2.515746e-003
1.652723e+003,3.381697e-003
1.654652e+003,2.851831e-003
1.656580e+003,2.317501e-003
1.658509e+003,1.941440e-003
1.660437e+003,1.930980e-003
1.662366e+003,1.946375e-003
1.664294e+003,1.839096e-003
1.666223e+003,1.688161e-003
1.668151e+003,1.974432e-003
1.670080e+003,2.050261e-003
1.672008e+003,1.879700e-003
1.673937e+003,1.781158e-003
1.675865e+003,1.761210e-003
1.677794e+003,1.455735e-003
1.679722e+003,1.622413e-003
1.681651e+003,1.653668e-003
1.683579e+003,1.947696e-003
1.685508e+003,1.625753e-003
1.687436e+003,1.620239e-003
1.689365e+003,1.508683e-003
1.691293e+003,1.337048e-003
1.693222e+003,1.162905e-003
1.695150e+003,1.564922e-003
1.697079e+003,1.796648e-003
1.699007e+003,2.049580e-003
1.700936e+003,1.993561e-003
1.702864e+003,1.874195e-003
1.704793e+003,1.919767e-003
1.706721e+003,1.946270e-003
1.708650e+003,1.697043e-003
1.710578e+003,1.679650e-003
1.712507e+003,1.741523e-003
1.714435e+003,2.241865e-003
1.716364e+003,2.697996e-003
1.718292e+003,3.043899e-003
1.720221e+003,2.554300e-003
1.722149e+003,2.369673e-003
1.724078e+003,1.927748e-003
1.726006e+003,1.376178e-003
1.727935e+003,9.305310e-004
1.729863e+003,8.361898e-004
1.731792e+003,6.246772e-004
1.733720e+003,4.875213e-004
1.735649e+003,-7.792711e-004
1.737577e+003,-1.346290e-003
1.739506e+003,-2.021166e-003
1.741434e+003,-2.514083e-003
1.743363e+003,-2.837878e-003
1.745291e+003,-2.805354e-003
1.747220e+003,-2.430202e-003
1.749148e+003,-1.785111e-003
1.751077e+003,-1.449700e-003
1.753005e+003,-1.183873e-003
1.754934e+003,-1.078397e-003
1.756862e+003,-6.117430e-004
1.758791e+003,-4.972592e-004
1.760719e+003,-2.664439e-004
1.762648e+003,-1.334473e-004
1.764576e+003,-1.048110e-004
1.766505e+003,-6.514601e-005
1.768433e+003,1.611840e-004
1.770362e+003,2.808832e-004
1.772290e+003,5.427133e-004
1.774219e+003,1.903847e-004
1.776147e+003,3.331341e-005
1.778076e+003,-6.331876e-005
1.780004e+003,8.372217e-005
1.781933e+003,-4.873425e-005
1.783861e+003,1.716614e-005
1.785790e+003,-1.015551e-004
1.787718e+003,-1.463145e-004
1.789646e+003,-1.088902e-004
1.791575e+003,2.219435e-004
1.793504e+003,1.974218e-005
1.795432e+003,4.129112e-005
1.797361e+003,-1.104493e-004
1.799289e+003,-3.026798e-005
1.801218e+003,-9.844080e-006
1.803146e+003,-8.309260e-005
1.805074e+003,-3.494956e-004
1.807003e+003,-3.265720e-004
1.808932e+003,-3.845915e-004
1.810860e+003,-2.688877e-004
1.812789e+003,-3.721453e-004
1.814717e+003,-5.613007e-004
1.816646e+003,-7.785987e-004
1.818574e+003,-5.198345e-004
1.820502e+003,-4.574768e-004
1.822431e+003,-3.239568e-004
1.824360e+003,-3.814735e-004
1.826288e+003,-3.993567e-004
1.828217e+003,-3.374014e-004
1.830145e+003,-2.899989e-004
1.832073e+003,-7.903911e-004
1.834002e+003,-8.050129e-004
1.835931e+003,-8.175354e-004
1.837859e+003,-8.009188e-004
1.839788e+003,-1.114622e-003
1.841716e+003,-1.006162e-003
1.843645e+003,-8.361377e-004
1.845573e+003,-6.507523e-004
1.847501e+003,-9.331554e-004
1.849430e+003,-9.276010e-004
1.851359e+003,-1.000371e-003
1.853287e+003,-9.694882e-004
1.855216e+003,-1.223346e-003
1.857144e+003,-1.133658e-003
1.859073e+003,-1.234174e-003
1.861001e+003,-1.106076e-003
1.862929e+003,-1.171926e-003
1.864858e+003,-1.000166e-003
1.866787e+003,-7.990468e-004
1.868715e+003,-4.508514e-004
1.870644e+003,-8.725151e-004
1.872572e+003,-8.273777e-004
1.874500e+003,-9.265561e-004
1.876429e+003,-8.708443e-004
1.878357e+003,-9.443518e-004
1.880286e+003,-8.105673e-004
1.882215e+003,-1.020044e-003
1.884143e+003,-6.872583e-004
1.886072e+003,-5.436204e-004
1.888000e+003,-1.841988e-004
1.889928e+003,-1.094602e-004
1.891857e+003,7.183664e-005
1.893785e+003,1.105256e-004
1.895714e+003,2.590027e-004
1.897643e+003,-7.474609e-005
1.899571e+003,-7.066689e-005
1.901500e+003,-6.855838e-005
1.903428e+003,-6.646104e-005
1.905356e+003,-6.436929e-005
1.907285e+003,-6.229058e-005
1.909213e+003,-6.021746e-005
1.911142e+003,-5.815551e-005
1.913071e+003,-5.610101e-005
1.914999e+003,-5.405769e-005
1.916927e+003,-5.202368e-005
1.918856e+003,-4.999712e-005
1.920784e+003,-4.798174e-005
1.922713e+003,-4.597008e-005
1.924641e+003,-4.397333e-005
1.926570e+003,-4.198216e-005
1.928499e+003,-4.000217e-005
1.930427e+003,-3.803149e-005
1.932355e+003,-3.606826e-005
1.934284e+003,-3.411435e-005
1.936212e+003,-3.216788e-005
1.938141e+003,-3.023259e-005
1.940070e+003,-2.830662e-005
1.941998e+003,-2.638996e-005
1.943927e+003,-2.448075e-005
1.945855e+003,-2.258085e-005
1.947783e+003,-2.069212e-005
1.949712e+003,-1.880899e-005
1.951640e+003,-1.693703e-005
1.953569e+003,-1.507625e-005
1.955498e+003,-1.321919e-005
1.957426e+003,-1.137704e-005
1.959354e+003,-9.540468e-006
1.961283e+003,-7.713214e-006
1.963211e+003,-5.895272e-006
1.965140e+003,-4.086643e-006
1.967068e+003,-2.287328e-006
1.968997e+003,-4.973263e-007
1.970926e+003,1.285225e-006
1.972854e+003,3.056601e-006
1.974782e+003,4.820526e-006
1.976711e+003,6.577000e-006
1.978639e+003,8.322299e-006
1.980568e+003,1.005828e-005
1.982496e+003,1.178496e-005
1.984425e+003,1.350231e-005
1.986354e+003,1.521036e-005
1.988282e+003,1.691282e-005
1.990210e+003,1.860224e-005
1.992139e+003,2.028421e-005
1.994067e+003,2.195686e-005
1.995996e+003,2.362020e-005
1.997924e+003,2.527423e-005
1.999853e+003,2.692081e-005
2.001781e+003,2.855621e-005
2.003710e+003,3.018416e-005
2.005638e+003,3.180280e-005
2.007567e+003,3.341399e-005
2.009495e+003,3.501400e-005
2.011424e+003,3.660470e-005
2.013352e+003,3.818609e-005
2.015281e+003,3.976002e-005
2.017209e+003,4.132278e-005
2.019138e+003,4.287995e-005
2.021066e+003,4.442409e-005
2.022995e+003,4.595891e-005
2.024923e+003,4.749000e-005
2.026852e+003,4.900806e-005
2.028781e+003,5.051680e-005
2.030709e+003,5.201809e-005
2.032637e+003,5.350821e-005
2.034566e+003,5.499274e-005
2.036494e+003,5.646423e-005
2.038423e+003,5.792826e-005
2.040351e+003,5.938485e-005
2.042280e+003,6.083213e-005
2.044208e+003,6.226823e-005
2.046137e+003,6.369874e-005
2.048065e+003,6.511807e-005
2.049994e+003,6.652810e-005
2.051922e+003,6.792881e-005
2.053851e+003,6.931834e-005
2.055779e+003,7.069856e-005
2.057708e+003,7.207692e-005
2.059636e+003,7.343851e-005
2.061565e+003,7.479638e-005
2.063493e+003,7.614307e-005
2.065422e+003,7.748045e-005
2.067350e+003,7.881038e-005
2.069279e+003,8.012541e-005
2.071207e+003,8.143857e-005
2.073136e+003,8.273870e-005
2.075064e+003,8.403137e-005
2.076993e+003,8.531660e-005
2.078921e+003,8.659065e-005
2.080850e+003,8.785538e-005
2.082778e+003,8.911081e-005
2.084707e+003,9.035878e-005
2.086635e+003,9.159558e-005
2.088564e+003,9.282306e-005
2.090492e+003,9.404309e-005
2.092421e+003,9.525195e-005
2.094349e+003,9.645708e-005
2.096278e+003,9.764917e-005
2.098206e+003,9.883009e-005
2.100135e+003,1.000036e-004
2.102063e+003,1.011714e-004
2.103992e+003,1.023300e-004
2.105920e+003,1.034755e-004
2.107849e+003,1.046136e-004
2.109777e+003,1.057442e-004
2.111706e+003,1.068637e-004
2.113634e+003,1.079738e-004
2.115563e+003,1.090765e-004
2.117491e+003,1.101680e-004
2.119420e+003,1.112521e-004
2.121348e+003,1.123268e-004
2.123277e+003,1.133941e-004
2.125205e+003,1.144502e-004
2.127134e+003,1.155008e-004
2.129062e+003,1.165327e-004
2.130991e+003,1.175664e-004
2.132919e+003,1.185853e-004
2.134848e+003,1.195967e-004
2.136776e+003,1.205988e-004
2.138705e+003,1.215935e-004
2.140633e+003,1.225770e-004
2.142562e+003,1.235511e-004
2.144490e+003,1.245178e-004
2.146419e+003,1.254752e-004
2.148347e+003,1.264215e-004
2.150276e+003,1.273602e-004
2.152204e+003,1.282915e-004
2.154133e+003,1.292136e-004
2.156061e+003,1.301225e-004
2.157990e+003,1.310240e-004
2.159918e+003,1.319200e-004
2.161847e+003,1.328047e-004
2.163775e+003,1.336820e-004
2.165704e+003,1.345463e-004
2.167632e+003,1.354031e-004
2.169561e+003,1.362525e-004
2.171489e+003,1.370907e-004
2.173418e+003,1.379214e-004
2.175346e+003,1.387410e-004
2.177275e+003,1.395531e-004
2.179203e+003,1.403559e-004
2.181132e+003,1.411494e-004
2.183060e+003,1.419391e-004
2.184989e+003,1.427140e-004
2.186917e+003,1.434758e-004
2.188846e+003,1.442358e-004
2.190774e+003,1.449864e-004
2.192703e+003,1.457259e-004
2.194631e+003,1.464542e-004
2.196560e+003,1.471769e-004
2.198488e+003,1.478866e-004
2.200417e+003,1.485888e-004
2.202345e+003,1.492854e-004
2.204274e+003,1.499690e-004
2.206202e+003,1.506452e-004
2.208131e+003,1.513120e-004
2.210059e+003,1.519714e-004
2.211988e+003,1.526214e-004
2.213916e+003,1.532622e-004
2.215845e+003,1.538936e-004
2.217773e+003,1.545157e-004
2.219702e+003,1.551267e-004
2.221630e+003,1.557283e-004
2.223559e+003,1.563244e-004
2.225487e+003,1.569111e-004
2.227416e+003,1.574848e-004
2.229344e+003,1.580548e-004
2.231273e+003,1.586098e-004
2.233201e+003,1.591612e-004
2.235130e+003,1.596995e-004
2.237058e+003,1.602303e-004
2.238987e+003,1.607537e-004
2.240915e+003,1.612660e-004
2.242844e+003,1.617726e-004
2.244772e+003,1.622662e-004
2.246701e+003,1.627505e-004
2.248629e+003,1.632273e-004
2.250558e+003,1.636948e-004
2.252486e+003,1.641549e-004
2.254415e+003,1.646057e-004
2.256343e+003,1.650453e-004
2.258272e+003,1.654793e-004
2.260200e+003,1.658984e-004
2.262129e+003,1.663119e-004
2.264057e+003,1.667142e-004
2.265986e+003,1.671128e-004
2.267914e+003,1.674965e-004
2.269843e+003,1.678765e-004
2.271771e+003,1.682434e-004
2.273700e+003,1.686029e-004
2.275628e+003,1.689512e-004
2.277557e+003,1.692921e-004
2.279485e+003,1.696236e-004
2.281414e+003,1.699477e-004
2.283342e+003,1.702607e-004
2.285271e+003,1.705643e-004
2.287199e+003,1.708604e-004
2.289128e+003,1.711473e-004
2.291056e+003,1.714248e-004
2.292985e+003,1.716930e-004
2.294913e+003,1.719519e-004
2.296842e+003,1.722034e-004
2.298770e+003,1.724456e-004
2.300699e+003,1.726747e-004
2.302627e+003,1.728982e-004
2.304556e+003,1.731087e-004
2.306484e+003,1.733135e-004
2.308413e+003,1.735110e-004
2.310341e+003,1.737010e-004
2.312270e+003,1.738779e-004
2.314198e+003,1.740456e-004
2.316127e+003,1.742076e-004
2.318055e+003,1.743585e-004
2.319984e+003,1.744982e-004
2.321912e+003,1.746304e-004
2.323841e+003,1.747552e-004
2.325769e+003,1.748689e-004
2.327698e+003,1.749750e-004
2.329626e+003,1.750682e-004
2.331555e+003,1.751594e-004
2.333483e+003,1.752339e-004
2.335412e+003,1.753047e-004
2.337340e+003,1.753643e-004
2.339269e+003,1.754146e-004
2.341197e+003,1.754556e-004
2.343126e+003,1.754910e-004
2.345054e+003,1.755133e-004
2.346983e+003,1.755264e-004
2.348911e+003,1.755320e-004
2.350840e+003,1.755301e-004
2.352768e+003,1.755171e-004
2.354697e+003,1.754966e-004
2.356625e+003,1.754668e-004
2.358554e+003,1.754276e-004
2.360482e+003,1.753774e-004
2.362411e+003,1.753196e-004
2.364339e+003,1.752507e-004
2.366268e+003,1.751725e-004
2.368196e+003,1.750924e-004
2.370125e+003,1.749955e-004
2.372053e+003,1.748931e-004
2.373982e+003,1.747794e-004
2.375910e+003,1.746584e-004
2.377839e+003,1.745261e-004
2.379767e+003,1.743883e-004
2.381696e+003,1.742411e-004
2.383624e+003,1.740847e-004
2.385553e+003,1.739170e-004
2.387481e+003,1.737420e-004
2.389410e+003,1.735575e-004
2.391338e+003,1.733620e-004
2.393267e+003,1.731608e-004
2.395195e+003,1.729503e-004
2.397124e+003,1.727287e-004
2.399052e+003,1.724958e-004
2.400981e+003,2.233163e-004
2.402909e+003,2.441742e-004
2.404838e+003,2.385098e-004
2.406766e+003,4.534870e-004
2.408695e+003,7.923003e-004
2.410623e+003,8.679572e-004
2.412552e+003,8.516479e-004
2.414480e+003,6.486643e-004
2.416409e+003,6.333925e-004
2.418337e+003,6.744247e-004
2.420266e+003,6.039403e-004
2.422194e+003,5.419701e-004
2.424123e+003,5.796310e-004
2.426051e+003,5.169120e-004
2.427979e+003,4.989877e-004
2.429908e+003,5.521923e-004
2.431837e+003,6.944984e-004
2.433765e+003,4.908293e-004
2.435694e+003,2.606083e-004
2.437622e+003,1.979526e-004
2.439551e+003,4.118588e-004
2.441479e+003,5.113930e-004
2.443407e+003,6.202646e-004
2.445336e+003,6.714072e-004
2.447265e+003,6.935261e-004
2.449193e+003,5.930066e-004
2.451122e+003,5.736351e-004
2.453050e+003,6.659571e-004
2.454979e+003,8.888077e-004
2.456907e+003,8.448455e-004
2.458836e+003,7.616095e-004
2.460764e+003,6.894097e-004
2.462693e+003,8.001272e-004
2.464621e+003,8.253288e-004
2.466550e+003,8.361749e-004
2.468478e+003,8.086450e-004
2.470406e+003,8.034818e-004
2.472335e+003,8.427612e-004
2.474264e+003,8.360818e-004
2.476192e+003,8.117277e-004
2.478121e+003,1.009533e-003
2.480049e+003,1.109604e-003
2.481978e+003,1.164064e-003
2.483906e+003,1.109267e-003
2.485835e+003,1.112875e-003
2.487763e+003,9.817537e-004
2.489692e+003,9.900145e-004
2.491620e+003,1.155434e-003
2.493549e+003,1.271416e-003
2.495477e+003,1.204433e-003
2.497406e+003,1.231894e-003
2.499334e+003,1.346577e-003
2.501263e+003,1.499144e-003
2.503191e+003,1.469508e-003
2.505120e+003,1.467271e-003
2.507048e+003,1.424139e-003
2.508977e+003,1.588130e-003
2.510905e+003,1.665425e-003
2.512833e+003,1.658659e-003
2.514762e+003,1.786523e-003
2.516691e+003,1.873618e-003
2.518619e+003,1.796478e-003
2.520548e+003,1.810204e-003
2.522476e+003,1.919342e-003
2.524405e+003,2.036760e-003
2.526333e+003,2.165256e-003
2.528261e+003,2.417848e-003
2.530190e+003,2.439793e-003
2.532119e+003,2.377866e-003
2.534047e+003,2.445437e-003
2.535976e+003,2.576320e-003
2.537904e+003,2.323002e-003
2.539833e+003,2.347311e-003
2.541761e+003,2.660697e-003
2.543689e+003,2.747960e-003
2.545618e+003,2.821388e-003
2.547547e+003,3.210995e-003
2.549475e+003,3.394200e-003
2.551404e+003,3.456704e-003
2.553332e+003,3.512081e-003
2.555260e+003,3.586460e-003
2.557189e+003,3.486248e-003
2.559117e+003,3.639018e-003
2.561046e+003,3.898794e-003
2.562975e+003,4.072886e-003
2.564903e+003,4.147716e-003
2.566832e+003,4.154073e-003
2.568760e+003,4.239578e-003
2.570688e+003,4.359053e-003
2.572617e+003,4.406709e-003
2.574546e+003,4.612457e-003
2.576474e+003,4.813859e-003
2.578403e+003,5.042087e-003
2.580331e+003,5.259447e-003
2.582260e+003,5.468002e-003
2.584188e+003,5.585812e-003
2.586116e+003,5.688481e-003
2.588045e+003,5.964177e-003
2.589974e+003,6.311441e-003
2.591902e+003,6.541455e-003
2.593831e+003,6.742947e-003
2.595759e+003,6.982317e-003
2.597688e+003,7.138437e-003
2.599616e+003,7.237015e-003
2.601544e+003,7.521708e-003
2.603473e+003,7.781409e-003
2.605402e+003,7.922329e-003
2.607330e+003,8.194003e-003
2.609259e+003,8.494146e-003
2.611187e+003,8.815411e-003
2.613115e+003,9.183127e-003
2.615044e+003,9.462761e-003
2.616972e+003,9.799192e-003
2.618901e+003,1.020945e-002
2.620830e+003,1.056459e-002
2.622758e+003,1.089024e-002
2.624687e+003,1.133586e-002
2.626615e+003,1.183222e-002
2.628543e+003,1.226833e-002
2.630472e+003,1.272615e-002
2.632400e+003,1.303683e-002
2.634329e+003,1.324316e-002
2.636258e+003,1.344740e-002
2.638186e+003,1.348638e-002
2.640115e+003,1.346563e-002
2.642043e+003,1.345850e-002
2.643971e+003,1.339694e-002
2.645900e+003,1.334412e-002
2.647828e+003,1.339366e-002
2.649757e+003,1.351879e-002
2.651686e+003,1.368399e-002
2.653614e+003,1.381638e-002
2.655542e+003,1.391579e-002
2.657471e+003,1.402971e-002
2.659399e+003,1.407334e-002
2.661328e+003,1.397847e-002
2.663256e+003,1.376963e-002
2.665185e+003,1.355789e-002
2.667114e+003,1.341183e-002
2.669042e+003,1.322369e-002
2.670970e+003,1.302015e-002
2.672899e+003,1.280820e-002
2.674827e+003,1.261121e-002
2.676756e+003,1.249657e-002
2.678685e+003,1.235994e-002
2.680613e+003,1.222750e-002
2.682542e+003,1.211532e-002
2.684470e+003,1.199621e-002
2.686398e+003,1.188932e-002
2.688327e+003,1.174762e-002
2.690255e+003,1.159163e-002
2.692184e+003,1.152604e-002
2.694113e+003,1.148069e-002
2.696041e+003,1.148720e-002
2.697969e+003,1.148895e-002
2.699898e+003,1.151619e-002
2.701826e+003,1.162946e-002
2.703755e+003,1.177206e-002
2.705683e+003,1.201412e-002
2.707612e+003,1.222783e-002
2.709541e+003,1.237979e-002
2.711469e+003,1.255692e-002
2.713397e+003,1.278396e-002
2.715326e+003,1.297036e-002
2.717254e+003,1.308753e-002
2.719183e+003,1.329535e-002
2.721111e+003,1.353888e-002
2.723040e+003,1.376806e-002
2.724969e+003,1.410440e-002
2.726897e+003,1.445113e-002
2.728825e+003,1.474537e-002
2.730754e+003,1.492971e-002
2.732682e+003,1.508170e-002
2.734611e+003,1.526978e-002
2.736539e+003,1.534895e-002
2.738468e+003,1.536820e-002
2.740396e+003,1.540741e-002
2.742325e+003,1.542623e-002
2.744253e+003,1.544354e-002
2.746182e+003,1.543678e-002
2.748110e+003,1.541738e-002
2.750039e+003,1.544124e-002
2.751967e+003,1.556535e-002
2.753896e+003,1.578860e-002
2.755824e+003,1.604918e-002
2.757753e+003,1.635299e-002
2.759681e+003,1.670849e-002
2.761610e+003,1.707555e-002
2.763538e+003,1.751596e-002
2.765467e+003,1.801250e-002
2.767395e+003,1.848151e-002
2.769324e+003,1.900472e-002
2.771252e+003,1.959428e-002
2.773181e+003,2.029729e-002
2.775109e+003,2.110564e-002
2.777038e+003,2.196877e-002
2.778966e+003,2.288540e-002
2.780895e+003,2.390678e-002
2.782823e+003,2.505223e-002
2.784752e+003,2.631803e-002
2.786680e+003,2.775770e-002
2.788609e+003,2.929116e-002
2.790537e+003,3.094183e-002
2.792466e+003,3.276330e-002
2.794394e+003,3.456349e-002
2.796323e+003,3.637668e-002
2.798251e+003,3.824363e-002
2.800180e+003,4.016861e-002
2.802108e+003,4.226448e-002
2.804037e+003,4.456759e-002
2.805965e+003,4.709670e-002
2.807894e+003,4.979657e-002
2.809822e+003,5.279214e-002
2.811751e+003,5.622190e-002
2.813679e+003,6.013237e-002
2.815608e+003,6.461316e-002
2.817536e+003,6.981944e-002
2.819465e+003,7.593596e-002
2.821393e+003,8.322927e-002
2.823322e+003,9.216587e-002
2.825250e+003,1.031782e-001
2.827179e+003,1.171527e-001
2.829107e+003,1.353035e-001
2.831036e+003,1.595141e-001
2.832964e+003,1.927697e-001
2.834893e+003,2.398673e-001
2.836821e+003,3.071896e-001
2.838750e+003,4.045777e-001
2.840678e+003,5.484339e-001
2.842607e+003,7.604086e-001
2.844535e+003,1.051561e+000
2.846464e+003,1.349236e+000
2.848392e+003,1.398919e+000
2.850321e+003,1.132289e+000
2.852249e+003,8.303419e-001
2.854178e+003,6.187989e-001
2.856106e+003,4.773771e-001
2.858035e+003,3.784989e-001
2.859963e+003,3.082005e-001
2.861892e+003,2.590261e-001
2.863820e+003,2.260957e-001
2.865749e+003,2.062396e-001
2.867677e+003,1.967928e-001
2.869606e+003,1.942573e-001
2.871534e+003,1.956548e-001
2.873463e+003,2.003701e-001
2.875391e+003,2.098170e-001
2.877320e+003,2.253549e-001
2.879248e+003,2.469162e-001
2.881177e+003,2.735108e-001
2.883105e+003,3.040218e-001
2.885034e+003,3.377279e-001
2.886962e+003,3.741196e-001
2.888891e+003,4.123254e-001
2.890819e+003,4.512663e-001
2.892748e+003,4.902333e-001
2.894676e+003,5.289975e-001
2.896605e+003,5.682647e-001
2.898533e+003,6.096480e-001
2.900462e+003,6.560310e-001
2.902390e+003,7.119146e-001
2.904319e+003,7.841330e-001
2.906247e+003,8.819944e-001
2.908176e+003,1.016365e+000
2.910104e+003,1.194678e+000
2.912033e+003,1.402889e+000
2.913961e+003,1.570873e+000
2.915890e+003,1.587122e+000
2.917818e+003,1.432504e+000
2.919747e+003,1.211365e+000
2.921675e+003,1.005775e+000
2.923604e+003,8.379785e-001
2.925532e+003,7.049691e-001
2.927461e+003,5.973686e-001
2.929389e+003,5.075194e-001
2.931318e+003,4.311665e-001
2.933246e+003,3.657638e-001
2.935175e+003,3.099100e-001
2.937103e+003,2.623048e-001
2.939032e+003,2.218956e-001
2.940960e+003,1.881818e-001
2.942889e+003,1.607944e-001
2.944817e+003,1.396507e-001
2.946746e+003,1.246951e-001
2.948674e+003,1.153367e-001
2.950603e+003,1.100933e-001
2.952531e+003,1.068319e-001
2.954460e+003,1.035304e-001
2.956388e+003,9.945571e-002
2.958317e+003,9.438238e-002
2.960245e+003,8.825956e-002
2.962174e+003,8.126724e-002
2.964102e+003,7.361813e-002
2.966031e+003,6.570487e-002
2.967959e+003,5.804319e-002
2.969888e+003,5.105934e-002
2.971816e+003,4.488460e-002
2.973745e+003,3.958101e-002
2.975673e+003,3.520890e-002
2.977602e+003,3.161714e-002
2.979530e+003,2.862127e-002
2.981459e+003,2.623416e-002
2.983387e+003,2.420548e-002
2.985316e+003,2.241877e-002
2.987244e+003,2.091844e-002
2.989173e+003,1.965499e-002
2.991101e+003,1.854134e-002
2.993030e+003,1.754114e-002
2.994958e+003,1.659507e-002
2.996887e+003,1.568718e-002
2.998815e+003,1.491664e-002
3.000744e+003,1.427414e-002
3.002672e+003,1.365452e-002
3.004601e+003,1.302102e-002
3.006529e+003,1.248300e-002
3.008458e+003,1.206659e-002
3.010386e+003,1.184369e-002
3.012315e+003,1.171527e-002
3.014243e+003,1.152855e-002
3.016172e+003,1.126451e-002
3.018100e+003,1.106359e-002
3.020029e+003,1.094413e-002
3.021957e+003,1.078899e-002
3.023886e+003,1.061666e-002
3.025814e+003,1.048544e-002
3.027743e+003,1.029431e-002
3.029671e+003,1.002847e-002
3.031600e+003,9.709183e-003
3.033528e+003,9.412134e-003
3.035457e+003,9.130906e-003
3.037385e+003,8.788528e-003
3.039314e+003,8.418636e-003
3.041242e+003,7.998390e-003
3.043171e+003,7.633485e-003
3.045099e+003,7.431639e-003
3.047028e+003,7.164728e-003
3.048956e+003,6.938647e-003
3.050885e+003,6.757522e-003
3.052813e+003,6.573301e-003
3.054742e+003,6.329384e-003
3.056670e+003,6.129077e-003
3.058599e+003,5.936807e-003
3.060527e+003,5.727574e-003
3.062456e+003,5.524183e-003
3.064384e+003,5.385572e-003
3.066313e+003,5.306058e-003
3.068241e+003,5.146679e-003
3.070170e+003,4.925489e-003
3.072098e+003,4.819956e-003
3.074027e+003,4.747886e-003
3.075955e+003,4.644711e-003
3.077884e+003,4.513884e-003
3.079812e+003,4.399320e-003
3.081741e+003,4.259765e-003
3.083669e+003,4.116837e-003
3.085598e+003,4.007041e-003
3.087526e+003,3.847931e-003
3.089455e+003,3.549384e-003
3.091383e+003,3.334193e-003
3.093312e+003,3.134329e-003
3.095240e+003,2.949120e-003
3.097169e+003,2.658492e-003
3.099097e+003,2.322076e-003
3.101026e+003,2.126951e-003
3.102954e+003,1.927678e-003
3.104883e+003,1.695937e-003
3.106811e+003,1.546901e-003
3.108740e+003,1.433199e-003
3.110668e+003,1.385771e-003
3.112597e+003,1.286168e-003
3.114525e+003,1.102390e-003
3.116454e+003,9.648986e-004
3.118382e+003,9.665117e-004
3.120311e+003,9.120628e-004
3.122239e+003,8.615833e-004
3.124168e+003,8.822773e-004
3.126096e+003,8.585807e-004
3.128025e+003,6.806683e-004
3.129953e+003,5.495343e-004
3.131882e+003,5.664136e-004
3.133810e+003,5.127843e-004
3.135739e+003,3.542658e-004
3.137667e+003,3.179424e-004
3.139596e+003,3.504753e-004
3.141524e+003,4.375409e-004
3.143453e+003,4.044455e-004
3.145381e+003,3.159363e-004
3.147310e+003,2.726186e-004
3.149238e+003,2.866294e-004
3.151167e+003,3.499892e-004
3.153095e+003,3.665127e-004
3.155024e+003,2.967156e-004
3.156952e+003,1.602080e-004
3.158881e+003,1.292210e-004
3.160809e+003,2.368279e-004
3.162738e+003,1.909696e-004
3.164666e+003,1.284424e-004
3.166594e+003,1.368579e-004
3.168523e+003,1.219753e-004
3.170452e+003,7.592700e-005
3.172380e+003,1.952909e-004
3.174309e+003,2.626292e-004
3.176237e+003,2.710447e-004
3.178166e+003,2.919361e-004
3.180094e+003,1.859237e-004
3.182022e+003,7.206015e-005
3.183951e+003,1.195874e-004
3.185880e+003,1.949538e-004
3.187808e+003,1.156963e-004
3.189737e+003,1.325160e-004
3.191665e+003,1.389980e-004
3.193594e+003,1.349859e-005
3.195522e+003,-2.929382e-005
3.197450e+003,-1.549721e-006
3.199379e+003,6.480515e-005
3.201308e+003,5.413778e-005
3.203236e+003,-6.257556e-005
3.205165e+003,-8.175522e-005
3.207093e+003,-1.078248e-004
3.209021e+003,-1.120847e-004
3.210950e+003,-1.058411e-004
3.212878e+003,-1.624934e-004
3.214807e+003,-2.366174e-004
3.216736e+003,-2.145991e-004
3.218664e+003,-1.236983e-004
3.220593e+003,-1.532640e-004
3.222521e+003,-2.890937e-004
3.224449e+003,-2.787709e-004
3.226378e+003,-2.168808e-004
3.228307e+003,-3.047604e-004
3.230235e+003,-4.500002e-004
3.232164e+003,-3.951397e-004
3.234092e+003,-2.428275e-004
3.236021e+003,-2.667531e-004
3.237949e+003,-2.494678e-004
3.239877e+003,-2.156738e-004
3.241806e+003,-2.229232e-004
3.243735e+003,-2.751872e-004
3.245663e+003,-3.441367e-004
3.247592e+003,-4.067477e-004
3.249520e+003,-3.673807e-004
3.251448e+003,-2.492424e-004
3.253377e+003,-6.567314e-005
3.255305e+003,-1.737848e-005
3.257234e+003,-9.215064e-005
3.259163e+003,-2.346206e-004
3.261091e+003,-2.429076e-004
3.263020e+003,-3.241822e-004
3.264948e+003,-2.817400e-004
3.266876e+003,-1.422409e-004
3.268805e+003,-1.991391e-004
3.270733e+003,-2.749786e-004
3.272662e+003,-1.457408e-004
3.274591e+003,-4.468113e-005
3.276519e+003,-1.348145e-004
3.278448e+003,-2.429038e-004
3.280376e+003,-2.525412e-004
3.282304e+003,-2.418794e-004
3.284233e+003,-2.209842e-004
3.286161e+003,-2.291463e-004
3.288090e+003,-2.027843e-004
3.290019e+003,-1.217891e-004
3.291947e+003,-1.629926e-004
3.293875e+003,-3.348403e-004
3.295804e+003,-3.248341e-004
3.297732e+003,-2.614819e-004
3.299661e+003,-1.826473e-004
3.301589e+003,-2.147183e-004
3.303518e+003,-2.157688e-004
3.305447e+003,-2.769344e-004
3.307375e+003,-2.971143e-004
3.309303e+003,-2.420060e-004
3.311232e+003,-2.665967e-004
3.313160e+003,-2.719872e-004
3.315089e+003,-2.718009e-004
3.317018e+003,-2.977438e-004
3.318946e+003,-2.722926e-004
3.320875e+003,-2.221614e-004
3.322803e+003,-2.519041e-004
3.324731e+003,-3.031231e-004
3.326660e+003,-2.891682e-004
3.328588e+003,-3.541782e-004
3.330517e+003,-4.010275e-004
3.332446e+003,-4.008263e-004
3.334374e+003,-2.840012e-004
3.336302e+003,-1.394451e-004
3.338231e+003,-1.381300e-004
3.340159e+003,-1.639947e-004
3.342088e+003,-2.035424e-004
3.344016e+003,-2.310053e-004
3.345945e+003,-2.248660e-004
3.347874e+003,-1.769289e-004
3.349802e+003,-2.386346e-004
3.351730e+003,-3.084540e-004
3.353659e+003,-3.356226e-004
3.355587e+003,-2.210774e-004
3.357516e+003,-9.376928e-005
3.359444e+003,-8.558109e-005
3.361373e+003,-7.814914e-005
3.363302e+003,-1.665689e-004
3.365230e+003,-2.490841e-004
3.367158e+003,-2.367198e-004
3.369087e+003,-2.003163e-004
3.371015e+003,-1.784079e-004
3.372944e+003,-2.478957e-004
3.374872e+003,-2.846494e-004
3.376801e+003,-2.544373e-004
3.378729e+003,-3.030635e-004
3.380658e+003,-2.503656e-004
3.382586e+003,-2.422407e-004
3.384515e+003,-2.662651e-004
3.386443e+003,-3.702417e-004
3.388372e+003,-4.310608e-004
3.390300e+003,-3.842339e-004
3.392229e+003,-3.474802e-004
3.394157e+003,-4.272051e-004
3.396086e+003,-4.582554e-004
3.398014e+003,-4.879050e-004
3.399943e+003,-5.647726e-004
3.401871e+003,-5.199686e-004
3.403800e+003,-3.636740e-004
3.405728e+003,-3.367066e-004
3.407657e+003,-4.602931e-004
3.409585e+003,-5.751736e-004
3.411514e+003,-5.782656e-004
3.413442e+003,-5.428530e-004
3.415371e+003,-5.531237e-004
3.417299e+003,-6.038509e-004
3.419228e+003,-4.790612e-004
3.421156e+003,-3.940426e-004
3.423085e+003,-4.240274e-004
3.425013e+003,-5.242191e-004
3.426942e+003,-6.487332e-004
3.428870e+003,-6.261133e-004
3.430799e+003,-4.732236e-004
3.432727e+003,-4.464760e-004
3.434656e+003,-4.591160e-004
3.436584e+003,-5.196854e-004
3.438513e+003,-5.453154e-004
3.440441e+003,-4.414767e-004
3.442370e+003,-4.685484e-004
3.444298e+003,-4.598089e-004
3.446227e+003,-2.129376e-004
3.448155e+003,-3.258102e-004
3.450084e+003,-4.943907e-004
3.452012e+003,-5.848110e-004
3.453941e+003,-6.845146e-004
3.455869e+003,-7.926114e-004
3.457798e+003,-8.827783e-004
3.459726e+003,-8.221082e-004
3.461655e+003,-7.305071e-004
3.463583e+003,-7.980093e-004
3.465512e+003,-8.545853e-004
3.467440e+003,-9.299852e-004
3.469369e+003,-1.023915e-003
3.471297e+003,-1.010381e-003
3.473226e+003,-9.897500e-004
3.475154e+003,-1.029126e-003
3.477083e+003,-1.089070e-003
3.479011e+003,-1.015570e-003
3.480940e+003,-8.465201e-004
3.482868e+003,-7.952601e-004
3.484797e+003,-8.299164e-004
3.486725e+003,-8.538663e-004
3.488654e+003,-9.332560e-004
3.490582e+003,-1.098163e-003
3.492511e+003,-1.109630e-003
3.494439e+003,-1.045231e-003
3.496368e+003,-1.054302e-003
3.498296e+003,-1.064412e-003
3.500225e+003,-9.625442e-004
3.502153e+003,-7.051378e-004
3.504082e+003,-7.601716e-004
3.506010e+003,-1.002464e-003
3.507939e+003,-9.720922e-004
3.509867e+003,-9.898283e-004
3.511796e+003,-1.151562e-003
3.513724e+003,-1.137417e-003
3.515653e+003,-1.048494e-003
3.517581e+003,-1.093447e-003
3.519510e+003,-1.273394e-003
3.521438e+003,-1.216490e-003
3.523367e+003,-9.571388e-004
3.525295e+003,-7.615834e-004
3.527224e+003,-6.285794e-004
3.529152e+003,-8.592866e-004
3.531081e+003,-1.075916e-003
3.533009e+003,-1.253128e-003
3.534938e+003,-1.202192e-003
3.536866e+003,-1.176521e-003
3.538795e+003,-1.392275e-003
3.540723e+003,-1.498308e-003
3.542652e+003,-1.154840e-003
3.544580e+003,-6.986335e-004
3.546509e+003,-7.885396e-004
3.548437e+003,-1.159552e-003
3.550366e+003,-1.055062e-003
3.552294e+003,-8.599311e-004
3.554223e+003,-1.195289e-003
3.556151e+003,-1.329143e-003
3.558080e+003,-1.269393e-003
3.560008e+003,-1.295194e-003
3.561937e+003,-1.366518e-003
3.563865e+003,-9.798817e-004
3.565794e+003,4.106387e-005
3.567722e+003,2.412461e-004
3.569651e+003,-7.239841e-004
3.571579e+003,-1.258250e-003
3.573508e+003,-1.349252e-003
3.575436e+003,-1.253083e-003
3.577365e+003,-1.038503e-003
3.579293e+003,-1.013406e-003
3.581222e+003,-1.223955e-003
3.583150e+003,-1.233201e-003
3.585079e+003,-8.472800e-004
3.587007e+003,-1.442432e-005
3.588936e+003,-2.330653e-004
3.590864e+003,-5.173571e-004
3.592793e+003,-1.802780e-004
3.594721e+003,2.717711e-004
3.596650e+003,7.123016e-004
3.598578e+003,1.423564e-003
3.600507e+003,1.738735e-003
3.602435e+003,1.700126e-003
3.604364e+003,1.499347e-003
3.606292e+003,1.473207e-003
3.608221e+003,1.729671e-003
3.610149e+003,1.417205e-003
3.612078e+003,1.370560e-003
3.614006e+003,1.310606e-003
3.615935e+003,1.014970e-003
3.617863e+003,1.285184e-003
3.619792e+003,1.424424e-003
3.621720e+003,5.116090e-004
3.623649e+003,-1.445971e-004
3.625577e+003,-3.341772e-004
3.627506e+003,7.207692e-005
3.629434e+003,1.012079e-003
3.631363e+003,7.801093e-004
3.633291e+003,5.533509e-004
3.635220e+003,2.697594e-004
3.637148e+003,1.779087e-004
3.639077e+003,2.101921e-004
3.641005e+003,2.396666e-004
3.642934e+003,-2.538413e-004
3.644862e+003,-3.169365e-004
3.646791e+003,6.671436e-004
3.648719e+003,1.954868e-003
3.650648e+003,1.727447e-003
3.652576e+003,3.826693e-004
3.654505e+003,1.892447e-006
3.656433e+003,-1.076758e-004
3.658362e+003,-2.781190e-004
3.660290e+003,-3.502965e-004
3.662219e+003,-5.226918e-004
3.664147e+003,-9.038001e-004
3.666076e+003,-1.034651e-003
3.668004e+003,-5.558990e-004
3.669933e+003,1.821592e-004
3.671861e+003,-1.413040e-004
3.673790e+003,3.766268e-004
3.675718e+003,1.255233e-003
3.677647e+003,6.521046e-004
3.679575e+003,2.686307e-004
3.681504e+003,-2.512075e-004
3.683432e+003,-7.390492e-004
3.685361e+003,-8.824989e-004
3.687289e+003,-3.904440e-004
3.689218e+003,4.740395e-004
3.691146e+003,6.261058e-004
3.693075e+003,1.642443e-004
3.695003e+003,-6.371737e-005
3.696932e+003,-2.729408e-004
3.698860e+003,-4.906394e-004
3.700789e+003,-3.744476e-004
3.702717e+003,-3.347658e-004
3.704646e+003,-4.282072e-004
3.706574e+003,-3.710911e-004
3.708503e+003,-1.494214e-004
3.710431e+003,5.607083e-004
3.712360e+003,6.264299e-004
3.714288e+003,-9.171665e-006
3.716217e+003,-4.228912e-004
3.718145e+003,-4.371293e-004
3.720074e+003,-2.300292e-004
3.722002e+003,1.564361e-004
3.723931e+003,1.973398e-004
3.725859e+003,1.249872e-004
3.727788e+003,-2.851747e-004
3.729716e+003,-5.132109e-004
3.731645e+003,-5.591474e-004
3.733573e+003,6.616078e-004
3.735502e+003,2.130456e-003
3.737430e+003,1.283690e-003
3.739359e+003,3.903583e-004
3.741287e+003,-8.425117e-005
3.743216e+003,2.436489e-004
3.745144e+003,9.029396e-004
3.747073e+003,1.093779e-003
3.749001e+003,1.520459e-003
3.750930e+003,2.165612e-003
3.752858e+003,1.162220e-003
3.754787e+003,6.883554e-004
3.756715e+003,6.074198e-004
3.758644e+003,4.647821e-004
3.760572e+003,1.754127e-004
3.762501e+003,-2.004057e-004
3.764429e+003,-1.800582e-004
3.766358e+003,-2.115183e-004
3.768286e+003,1.249686e-004
3.770215e+003,6.222129e-004
3.772143e+003,1.091361e-004
3.774072e+003,-4.857220e-004
3.776000e+003,-5.659349e-004
3.777929e+003,-2.169535e-004
3.779857e+003,-2.960488e-005
3.781786e+003,-1.180694e-004
3.783714e+003,6.879121e-005
3.785643e+003,2.299473e-004
3.787571e+003,-8.039176e-006
3.789500e+003,-2.286471e-004
3.791428e+003,-1.415610e-005
3.793357e+003,-3.374107e-004
3.795285e+003,-2.034456e-004
3.797214e+003,3.532991e-004
3.799142e+003,5.086474e-004
3.801071e+003,1.085330e-003
3.802999e+003,6.683469e-004
3.804927e+003,7.210746e-004
3.806856e+003,1.412954e-003
3.808785e+003,8.147061e-004
3.810713e+003,2.896637e-004
3.812642e+003,1.849830e-004
3.814570e+003,4.208535e-004
3.816499e+003,6.193146e-004
3.818427e+003,9.867810e-004
3.820355e+003,2.091393e-003
3.822284e+003,2.131697e-003
3.824213e+003,1.376793e-003
3.826141e+003,1.172159e-003
3.828070e+003,7.295310e-004
3.829998e+003,2.563521e-004
3.831927e+003,2.777278e-004
3.833855e+003,5.544201e-004
3.835783e+003,1.106132e-003
3.837712e+003,2.096184e-003
3.839641e+003,2.225004e-003
3.841569e+003,1.655962e-003
3.843498e+003,1.420263e-003
3.845426e+003,8.150339e-004
3.847354e+003,3.483146e-004
3.849283e+003,1.854934e-004
3.851211e+003,6.281845e-004
3.853140e+003,2.576318e-003
3.855069e+003,2.794284e-003
3.856997e+003,1.778267e-003
3.858926e+003,8.634850e-004
3.860854e+003,6.452054e-004
3.862782e+003,9.997413e-004
3.864711e+003,1.591396e-003
3.866640e+003,8.665174e-004
3.868568e+003,1.398943e-003
3.870497e+003,2.289716e-003
3.872425e+003,2.088286e-003
3.874354e+003,1.908701e-003
3.876282e+003,1.200143e-003
3.878210e+003,7.226355e-004
3.880139e+003,1.153432e-003
3.882068e+003,1.196936e-003
3.883996e+003,1.217782e-003
3.885925e+003,1.343798e-003
3.887853e+003,8.730702e-004
3.889781e+003,9.691864e-004
3.891710e+003,1.330901e-003
3.893638e+003,9.245835e-004
3.895567e+003,3.953911e-004
3.897496e+003,4.565008e-004
3.899424e+003,7.990487e-004
3.901353e+003,1.263056e-003
3.903281e+003,1.997974e-003
3.905209e+003,1.922455e-003
3.907138e+003,1.132261e-003
3.909066e+003,5.706437e-004
3.910995e+003,2.786033e-004
3.912924e+003,2.913177e-005
3.914852e+003,4.046448e-004
3.916781e+003,8.038990e-004
3.918709e+003,7.204339e-004
3.920637e+003,6.728023e-004
3.922566e+003,8.386411e-004
3.924494e+003,8.196980e-004
3.926423e+003,3.786460e-004
3.928352e+003,3.024340e-004
3.930280e+003,5.824789e-004
3.932208e+003,9.516217e-004
3.934137e+003,6.175637e-004
3.936065e+003,2.445020e-004
3.937994e+003,1.950078e-004
3.939922e+003,1.998395e-004
3.941851e+003,5.835630e-004
3.943780e+003,6.141961e-004
3.945708e+003,4.477836e-004
3.947636e+003,4.533716e-004
3.949565e+003,2.874844e-004
3.951493e+003,1.034923e-004
3.953422e+003,-5.114451e-005
3.955351e+003,-1.005009e-004
3.957279e+003,-7.718801e-005
3.959208e+003,1.915544e-005
3.961136e+003,1.862086e-004
3.963064e+003,-5.666539e-005
3.964993e+003,-2.853312e-004
3.966921e+003,-2.155788e-004
3.968850e+003,-9.459630e-005
3.970779e+003,-2.019331e-004
3.972707e+003,-2.341792e-004
3.974635e+003,-1.108423e-004
3.976564e+003,-7.918105e-005
3.978492e+003,-5.704165e-005
3.980421e+003,-2.584606e-005
3.982349e+003,-6.365031e-005
3.984278e+003,-2.854690e-005
3.986207e+003,-5.488470e-005
3.988135e+003,-9.044632e-005
3.990063e+003,-9.066239e-005
3.991992e+003,-1.213588e-004
3.993920e+003,-1.059845e-005
3.995849e+003,-7.060170e-005
3.997777e+003,-2.454072e-004
3.999706e+003,-3.183037e-004
4.001635e+003,0.000000e+000
