3.991992e+002,0.000000e+000
4.011277e+002,0.000000e+000
4.030562e+002,0.000000e+000
4.049846e+002,0.000000e+000
4.069131e+002,0.000000e+000
4.088416e+002,0.000000e+000
4.107701e+002,0.000000e+000
4.126986e+002,0.000000e+000
4.146271e+002,0.000000e+000
4.165556e+002,0.000000e+000
4.184841e+002,0.000000e+000
4.204126e+002,0.000000e+000
4.223411e+002,0.000000e+000
4.242697e+002,0.000000e+000
4.261982e+002,0.000000e+000
4.281266e+002,0.000000e+000
4.300551e+002,0.000000e+000
4.319836e+002,0.000000e+000
4.339121e+002,0.000000e+000
4.358406e+002,0.000000e+000
4.377691e+002,0.000000e+000
4.396976e+002,0.000000e+000
4.416261e+002,0.000000e+000
4.435546e+002,0.000000e+000
4.454831e+002,0.000000e+000
4.474116e+002,0.000000e+000
4.493401e+002,0.000000e+000
4.512686e+002,0.000000e+000
4.531971e+002,0.000000e+000
4.551256e+002,0.000000e+000
4.570541e+002,0.000000e+000
4.589826e+002,0.000000e+000
4.609111e+002,0.000000e+000
4.628396e+002,0.000000e+000
4.647681e+002,0.000000e+000
4.666966e+002,0.000000e+000
4.686251e+002,0.000000e+000
4.705536e+002,0.000000e+000
4.724821e+002,0.000000e+000
4.744106e+002,0.000000e+000
4.763391e+002,0.000000e+000
4.782676e+002,0.000000e+000
4.801961e+002,0.000000e+000
4.821246e+002,0.000000e+000
4.840531e+002,0.000000e+000
4.859816e+002,0.000000e+000
4.879101e+002,0.000000e+000
4.898386e+002,0.000000e+000
4.917671e+002,0.000000e+000
4.936956e+002,0.000000e+000
4.956241e+002,0.000000e+000
4.975526e+002,0.000000e+000
4.994811e+002,0.000000e+000
5.014096e+002,0.000000e+000
5.033381e+002,0.000000e+000
5.052666e+002,0.000000e+000
5.071951e+002,0.000000e+000
5.091236e+002,0.000000e+000
5.110521e+002,0.000000e+000
5.129806e+002,0.000000e+000
5.149091e+002,0.000000e+000
5.168376e+002,0.000000e+000
5.187661e+002,0.000000e+000
5.206946e+002,0.000000e+000
5.226230e+002,0.000000e+000
5.245516e+002,2.994039e-004
5.264800e+002,4.565646e-005
5.284086e+002,-2.393650e-004
5.303370e+002,-2.305217e-004
5.322656e+002,-9.831064e-005
5.341940e+002,-8.003204e-005
5.361226e+002,-4.551047e-005
5.380510e+002,1.142484e-004
5.399796e+002,1.678797e-004
5.419081e+002,5.752896e-005
5.438365e+002,-9.493390e-005
5.457650e+002,-1.291495e-004
5.476935e+002,1.590699e-006
5.496221e+002,4.769792e-005
5.515505e+002,8.104835e-006
5.534790e+002,9.353319e-005
5.554075e+002,2.646435e-004
5.573361e+002,1.762791e-004
5.592645e+002,8.784118e-005
5.611931e+002,4.682876e-005
5.631215e+002,3.397232e-006
5.650500e+002,-1.818873e-005
5.669785e+002,2.664351e-005
5.689070e+002,4.571793e-005
5.708355e+002,1.000636e-005
5.727640e+002,-9.333203e-005
5.746925e+002,-4.167878e-005
5.766210e+002,-6.277370e-005
5.785495e+002,-2.101513e-004
5.804780e+002,-3.226453e-004
5.824065e+002,-3.430373e-004
5.843350e+002,-2.256967e-004
5.862635e+002,-5.421182e-005
5.881920e+002,-9.872438e-005
5.901205e+002,-1.690981e-004
5.920490e+002,-2.069932e-004
5.939775e+002,-1.402283e-004
5.959060e+002,-1.121033e-004
5.978345e+002,-7.052510e-005
5.997630e+002,-4.176982e-006
6.016915e+002,7.861969e-005
6.036200e+002,3.176043e-005
6.055485e+002,5.446048e-005
6.074770e+002,6.676232e-005
6.094055e+002,5.175662e-005
6.113340e+002,-7.297145e-005
6.132625e+002,-1.375808e-004
6.151910e+002,-1.788693e-004
6.171195e+002,-2.070435e-004
6.190480e+002,-1.849011e-004
6.209765e+002,1.639756e-005
6.229050e+002,1.299025e-004
6.248335e+002,1.844629e-004
6.267620e+002,2.336372e-004
6.286905e+002,3.354731e-004
6.306190e+002,3.336268e-004
6.325475e+002,3.473540e-004
6.344760e+002,3.029145e-004
6.364045e+002,3.209310e-004
6.383330e+002,3.359462e-004
6.402615e+002,4.305521e-004
6.421899e+002,4.470721e-004
6.441185e+002,4.568053e-004
6.460470e+002,4.543466e-004
6.479755e+002,5.532920e-004
6.499039e+002,5.693794e-004
6.518325e+002,5.350099e-004
6.537610e+002,5.600250e-004
6.556895e+002,7.072845e-004
6.576179e+002,8.084374e-004
6.595464e+002,8.628301e-004
6.614750e+002,7.755200e-004
6.634034e+002,8.111496e-004
6.653319e+002,8.623793e-004
6.672604e+002,1.022965e-003
6.691890e+002,1.024337e-003
6.711174e+002,1.026782e-003
6.730460e+002,1.029855e-003
6.749745e+002,1.115804e-003
6.769030e+002,1.234988e-003
6.788314e+002,1.492114e-003
6.807599e+002,1.589391e-003
6.826885e+002,1.720044e-003
6.846169e+002,1.798054e-003
6.865454e+002,1.984833e-003
6.884739e+002,2.200699e-003
6.904025e+002,2.443351e-003
6.923309e+002,2.736970e-003
6.942594e+002,3.255772e-003
6.961879e+002,3.797882e-003
6.981165e+002,4.510504e-003
7.000449e+002,5.283592e-003
7.019734e+002,6.412628e-003
7.039019e+002,7.969289e-003
7.058304e+002,1.019426e-002
7.077589e+002,1.300982e-002
7.096874e+002,1.733369e-002
7.116159e+002,2.442420e-002
7.135444e+002,3.800344e-002
7.154729e+002,6.246528e-002
7.174014e+002,9.531307e-002
7.193299e+002,1.096564e-001
7.212584e+002,8.390842e-002
7.231869e+002,5.701455e-002
7.251154e+002,4.762865e-002
7.270439e+002,5.230696e-002
7.289724e+002,6.620085e-002
7.309009e+002,6.101020e-002
7.328294e+002,3.504493e-002
7.347579e+002,1.859482e-002
7.366864e+002,1.261042e-002
7.386149e+002,9.998914e-003
7.405434e+002,8.446264e-003
7.424719e+002,7.504010e-003
7.444004e+002,6.706335e-003
7.463289e+002,6.091391e-003
7.482574e+002,5.620686e-003
7.501859e+002,5.290220e-003
7.521144e+002,4.951721e-003
7.540428e+002,4.687016e-003
7.559714e+002,4.417309e-003
7.578999e+002,4.333783e-003
7.598284e+002,4.224039e-003
7.617568e+002,4.135440e-003
7.636854e+002,4.036319e-003
7.656139e+002,4.000389e-003
7.675424e+002,3.939800e-003
7.694709e+002,3.840429e-003
7.713994e+002,3.763051e-003
7.733279e+002,3.708762e-003
7.752563e+002,3.626206e-003
7.771849e+002,3.495286e-003
7.791134e+002,3.357726e-003
7.810419e+002,3.308254e-003
7.829703e+002,3.212325e-003
7.848989e+002,3.077819e-003
7.868274e+002,2.932312e-003
7.887559e+002,2.867438e-003
7.906843e+002,2.836735e-003
7.926129e+002,2.831258e-003
7.945414e+002,2.830044e-003
7.964698e+002,2.794286e-003
7.983983e+002,2.733459e-003
8.003268e+002,2.611819e-003
8.022554e+002,2.546344e-003
8.041838e+002,2.522296e-003
8.061123e+002,2.515895e-003
8.080408e+002,2.423954e-003
8.099694e+002,2.329175e-003
8.118978e+002,2.367346e-003
8.138263e+002,2.371876e-003
8.157548e+002,2.312583e-003
8.176833e+002,2.254988e-003
8.196118e+002,2.200073e-003
8.215403e+002,2.206146e-003
8.234689e+002,2.152582e-003
8.253973e+002,2.042782e-003
8.273258e+002,1.967367e-003
8.292543e+002,1.938334e-003
8.311829e+002,2.025729e-003
8.331113e+002,2.097345e-003
8.350398e+002,2.099830e-003
8.369683e+002,2.043723e-003
8.388969e+002,1.955510e-003
8.408253e+002,1.947861e-003
8.427538e+002,1.948794e-003
8.446823e+002,2.020884e-003
8.466108e+002,2.004612e-003
8.485393e+002,2.020508e-003
8.504678e+002,2.114711e-003
8.523963e+002,2.150370e-003
8.543248e+002,2.058825e-003
8.562533e+002,2.043110e-003
8.581818e+002,2.066715e-003
8.601103e+002,2.117549e-003
8.620388e+002,2.148032e-003
8.639673e+002,2.216519e-003
8.658958e+002,2.256830e-003
8.678243e+002,2.286500e-003
8.697528e+002,2.282794e-003
8.716813e+002,2.337328e-003
8.736098e+002,2.392309e-003
8.755383e+002,2.423822e-003
8.774668e+002,2.415718e-003
8.793953e+002,2.521228e-003
8.813238e+002,2.667341e-003
8.832523e+002,2.935194e-003
8.851808e+002,3.222272e-003
8.871093e+002,3.465228e-003
8.890378e+002,3.468416e-003
8.909663e+002,3.383531e-003
8.928948e+002,3.240861e-003
8.948232e+002,3.138436e-003
8.967518e+002,3.104280e-003
8.986803e+002,3.084549e-003
9.006088e+002,2.948515e-003
9.025372e+002,2.936003e-003
9.044658e+002,3.043673e-003
9.063943e+002,3.180892e-003
9.083228e+002,3.180042e-003
9.102512e+002,2.824010e-003
9.121797e+002,2.570126e-003
9.141083e+002,2.568356e-003
9.160367e+002,2.448454e-003
9.179653e+002,2.641670e-003
9.198937e+002,2.890213e-003
9.218223e+002,2.899092e-003
9.237507e+002,2.748445e-003
9.256793e+002,2.735523e-003
9.276077e+002,2.715113e-003
9.295363e+002,2.731497e-003
9.314647e+002,2.661126e-003
9.333932e+002,2.701708e-003
9.353217e+002,2.766464e-003
9.372502e+002,2.770887e-003
9.391787e+002,2.738609e-003
9.411072e+002,2.694674e-003
9.430358e+002,2.695653e-003
9.449642e+002,2.853756e-003
9.468928e+002,2.810233e-003
9.488212e+002,2.734084e-003
9.507498e+002,2.792033e-003
9.526782e+002,2.826133e-003
9.546068e+002,2.830097e-003
9.565352e+002,2.953280e-003
9.584637e+002,3.045837e-003
9.603922e+002,3.120500e-003
9.623207e+002,3.156045e-003
9.642492e+002,3.263623e-003
9.661777e+002,3.313748e-003
9.681062e+002,3.301780e-003
9.700347e+002,3.251845e-003
9.719632e+002,3.187481e-003
9.738917e+002,3.081274e-003
9.758202e+002,3.062906e-003
9.777487e+002,3.072104e-003
9.796772e+002,3.105538e-003
9.816057e+002,3.109583e-003
9.835342e+002,3.193475e-003
9.854627e+002,3.230765e-003
9.873912e+002,3.321178e-003
9.893197e+002,3.424444e-003
9.912482e+002,3.489476e-003
9.931767e+002,3.507294e-003
9.951052e+002,3.555214e-003
9.970337e+002,3.625521e-003
9.989622e+002,3.711616e-003
1.000891e+003,3.717277e-003
1.002819e+003,3.746648e-003
1.004748e+003,3.795250e-003
1.006676e+003,3.903717e-003
1.008605e+003,3.972946e-003
1.010533e+003,4.079288e-003
1.012462e+003,4.108422e-003
1.014390e+003,4.198961e-003
1.016319e+003,4.279162e-003
1.018247e+003,4.329704e-003
1.020176e+003,4.351068e-003
1.022104e+003,4.420456e-003
1.024033e+003,4.493961e-003
1.025961e+003,4.590974e-003
1.027890e+003,4.618094e-003
1.029818e+003,4.673817e-003
1.031747e+003,4.752031e-003
1.033675e+003,4.857840e-003
1.035604e+003,4.868932e-003
1.037532e+003,4.880914e-003
1.039461e+003,4.838538e-003
1.041389e+003,4.908375e-003
1.043318e+003,4.972562e-003
1.045246e+003,5.028733e-003
1.047175e+003,5.124632e-003
1.049103e+003,5.346931e-003
1.051032e+003,5.413006e-003
1.052960e+003,5.431036e-003
1.054889e+003,5.441251e-003
1.056817e+003,5.532597e-003
1.058746e+003,5.661986e-003
1.060674e+003,5.814578e-003
1.062603e+003,5.848825e-003
1.064531e+003,5.910923e-003
1.066460e+003,5.961264e-003
1.068388e+003,6.073413e-003
1.070317e+003,6.102429e-003
1.072245e+003,6.199724e-003
1.074174e+003,6.274756e-003
1.076102e+003,6.428862e-003
1.078031e+003,6.507461e-003
1.079959e+003,6.592283e-003
1.081888e+003,6.530142e-003
1.083816e+003,6.490715e-003
1.085745e+003,6.414408e-003
1.087673e+003,6.335089e-003
1.089602e+003,6.189024e-003
1.091530e+003,6.130193e-003
1.093459e+003,6.005364e-003
1.095387e+003,5.858720e-003
1.097316e+003,5.658663e-003
1.099244e+003,5.550513e-003
1.101173e+003,5.434023e-003
1.103101e+003,5.365341e-003
1.105030e+003,5.227896e-003
1.106958e+003,5.159729e-003
1.108887e+003,5.115145e-003
1.110815e+003,5.115034e-003
1.112744e+003,5.045228e-003
1.114672e+003,4.979844e-003
1.116601e+003,4.897565e-003
1.118529e+003,4.893688e-003
1.120458e+003,4.877146e-003
1.122386e+003,4.931155e-003
1.124315e+003,4.921380e-003
1.126243e+003,4.966001e-003
1.128172e+003,4.979145e-003
1.130100e+003,5.050085e-003
1.132029e+003,5.060328e-003
1.133957e+003,5.062436e-003
1.135885e+003,5.046630e-003
1.137814e+003,5.094019e-003
1.139743e+003,5.143557e-003
1.141671e+003,5.223053e-003
1.143600e+003,5.258007e-003
1.145528e+003,5.377956e-003
1.147457e+003,5.503394e-003
1.149385e+003,5.731663e-003
1.151314e+003,5.927915e-003
1.153242e+003,6.159557e-003
1.155171e+003,6.381693e-003
1.157099e+003,6.610590e-003
1.159028e+003,6.659495e-003
1.160956e+003,6.712161e-003
1.162885e+003,6.688630e-003
1.164813e+003,6.633689e-003
1.166742e+003,6.435967e-003
1.168670e+003,6.272681e-003
1.170599e+003,6.073629e-003
1.172527e+003,5.921990e-003
1.174456e+003,5.730442e-003
1.176384e+003,5.677576e-003
1.178313e+003,5.555991e-003
1.180241e+003,5.389276e-003
1.182170e+003,5.238427e-003
1.184098e+003,5.219236e-003
1.186027e+003,5.203576e-003
1.187955e+003,5.239697e-003
1.189884e+003,5.238817e-003
1.191812e+003,5.321800e-003
1.193740e+003,5.368703e-003
1.195669e+003,5.493578e-003
1.197598e+003,5.602332e-003
1.199526e+003,5.771452e-003
1.201455e+003,5.867956e-003
1.203383e+003,5.992674e-003
1.205312e+003,6.121263e-003
1.207240e+003,6.379440e-003
1.209168e+003,6.589001e-003
1.211097e+003,6.816632e-003
1.213026e+003,6.999763e-003
1.214954e+003,7.230172e-003
1.216883e+003,7.404863e-003
1.218811e+003,7.619918e-003
1.220740e+003,7.805414e-003
1.222668e+003,8.044034e-003
1.224596e+003,8.192409e-003
1.226525e+003,8.332105e-003
1.228453e+003,8.405078e-003
1.230382e+003,8.579422e-003
1.232311e+003,8.712161e-003
1.234239e+003,8.845987e-003
1.236167e+003,8.876987e-003
1.238096e+003,8.911888e-003
1.240025e+003,8.821668e-003
1.241953e+003,8.783336e-003
1.243882e+003,8.660365e-003
1.245810e+003,8.505529e-003
1.247739e+003,8.310208e-003
1.249667e+003,8.171173e-003
1.251595e+003,8.020705e-003
1.253524e+003,7.958986e-003
1.255453e+003,7.859546e-003
1.257381e+003,7.833177e-003
1.259310e+003,7.739596e-003
1.261238e+003,7.667057e-003
1.263167e+003,7.558699e-003
1.265095e+003,7.558927e-003
1.267023e+003,7.542410e-003
1.268952e+003,7.650293e-003
1.270880e+003,7.667544e-003
1.272809e+003,7.703931e-003
1.274738e+003,7.693396e-003
1.276666e+003,7.746300e-003
1.278594e+003,7.794026e-003
1.280523e+003,7.969750e-003
1.282451e+003,8.093096e-003
1.284380e+003,8.338654e-003
1.286308e+003,8.554190e-003
1.288237e+003,8.867698e-003
1.290166e+003,9.118642e-003
1.292094e+003,9.476416e-003
1.294022e+003,9.835273e-003
1.295951e+003,1.028224e-002
1.297879e+003,1.056989e-002
1.299808e+003,1.081046e-002
1.301736e+003,1.088351e-002
1.303665e+003,1.095441e-002
1.305594e+003,1.088002e-002
1.307522e+003,1.081351e-002
1.309450e+003,1.057424e-002
1.311379e+003,1.033583e-002
1.313307e+003,9.933054e-003
1.315236e+003,9.550117e-003
1.317164e+003,9.180357e-003
1.319093e+003,8.835308e-003
1.321021e+003,8.319408e-003
1.322950e+003,8.059064e-003
1.324878e+003,7.814053e-003
1.326807e+003,7.740309e-003
1.328735e+003,7.684388e-003
1.330664e+003,7.844525e-003
1.332592e+003,8.085313e-003
1.334521e+003,8.626852e-003
1.336449e+003,9.346051e-003
1.338378e+003,1.037782e-002
1.340306e+003,1.096351e-002
1.342235e+003,1.119393e-002
1.344163e+003,1.154998e-002
1.346092e+003,1.222466e-002
1.348021e+003,1.291180e-002
1.349949e+003,1.360705e-002
1.351877e+003,1.391167e-002
1.353806e+003,1.400867e-002
1.355734e+003,1.378715e-002
1.357663e+003,1.386473e-002
1.359591e+003,1.431569e-002
1.361520e+003,1.533166e-002
1.363448e+003,1.638413e-002
1.365377e+003,1.739382e-002
1.367305e+003,1.838145e-002
1.369234e+003,1.888889e-002
1.371162e+003,1.870680e-002
1.373091e+003,1.919271e-002
1.375019e+003,2.101229e-002
1.376948e+003,2.240453e-002
1.378876e+003,2.075798e-002
1.380805e+003,1.633312e-002
1.382733e+003,1.207536e-002
1.384662e+003,9.758392e-003
1.386590e+003,8.461914e-003
1.388519e+003,7.528113e-003
1.390447e+003,6.982717e-003
1.392376e+003,7.068348e-003
1.394304e+003,7.042656e-003
1.396233e+003,7.049403e-003
1.398161e+003,6.941103e-003
1.400090e+003,6.827611e-003
1.402018e+003,6.645146e-003
1.403947e+003,7.002907e-003
1.405875e+003,6.881208e-003
1.407804e+003,7.025633e-003
1.409732e+003,7.183210e-003
1.411661e+003,7.533193e-003
1.413589e+003,7.549049e-003
1.415518e+003,8.168585e-003
1.417446e+003,8.624423e-003
1.419375e+003,9.176273e-003
1.421303e+003,9.406459e-003
1.423232e+003,1.066090e-002
1.425160e+003,1.188154e-002
1.427089e+003,1.378959e-002
1.429017e+003,1.632006e-002
1.430946e+003,1.997760e-002
1.432874e+003,2.302821e-002
1.434803e+003,2.621415e-002
1.436731e+003,2.923463e-002
1.438660e+003,3.199232e-002
1.440588e+003,3.385099e-002
1.442517e+003,3.640826e-002
1.444445e+003,3.844588e-002
1.446374e+003,4.140262e-002
1.448302e+003,4.527546e-002
1.450231e+003,5.128810e-002
1.452159e+003,6.025519e-002
1.454088e+003,7.163760e-002
1.456016e+003,8.285539e-002
1.457945e+003,1.068401e-001
1.459873e+003,1.474776e-001
1.461802e+003,1.910693e-001
1.463730e+003,1.956948e-001
1.465659e+003,1.559630e-001
1.467587e+003,1.422203e-001
1.469516e+003,1.401264e-001
1.471444e+003,1.566009e-001
1.473373e+003,1.339555e-001
1.475301e+003,7.348640e-002
1.477230e+003,3.403404e-002
1.479158e+003,2.240643e-002
1.481087e+003,1.678081e-002
1.483015e+003,1.411733e-002
1.484944e+003,1.211006e-002
1.486872e+003,1.171752e-002
1.488801e+003,1.034434e-002
1.490729e+003,9.609269e-003
1.492658e+003,8.341586e-003
1.494586e+003,8.537969e-003
1.496515e+003,7.772233e-003
1.498443e+003,7.667442e-003
1.500372e+003,6.885367e-003
1.502300e+003,6.955843e-003
1.504229e+003,6.777141e-003
1.506157e+003,7.545983e-003
1.508086e+003,6.291781e-003
1.510014e+003,6.469663e-003
1.511943e+003,5.838872e-003
1.513871e+003,6.061495e-003
1.515800e+003,6.013651e-003
1.517728e+003,6.125258e-003
1.519657e+003,5.911982e-003
1.521585e+003,6.077454e-003
1.523514e+003,5.405396e-003
1.525442e+003,5.834929e-003
1.527371e+003,5.312779e-003
1.529299e+003,5.281055e-003
1.531228e+003,5.277625e-003
1.533156e+003,5.505866e-003
1.535085e+003,4.925458e-003
1.537013e+003,5.507874e-003
1.538942e+003,5.768141e-003
1.540870e+003,5.883908e-003
1.542799e+003,5.409119e-003
1.544727e+003,5.356043e-003
1.546656e+003,4.629106e-003
1.548584e+003,4.868465e-003
1.550513e+003,4.721864e-003
1.552441e+003,4.860905e-003
1.554370e+003,4.846768e-003
1.556298e+003,5.225811e-003
1.558227e+003,5.109718e-003
1.560155e+003,4.187638e-003
1.562084e+003,4.144687e-003
1.564012e+003,4.352889e-003
1.565941e+003,4.100278e-003
1.567869e+003,4.511612e-003
1.569798e+003,4.415269e-003
1.571726e+003,4.110639e-003
1.573655e+003,4.258272e-003
1.575583e+003,4.676041e-003
1.577512e+003,4.118249e-003
1.579440e+003,4.083906e-003
1.581369e+003,3.939814e-003
1.583297e+003,3.945917e-003
1.585226e+003,3.891738e-003
1.587154e+003,4.057095e-003
1.589083e+003,4.062437e-003
1.591011e+003,4.107530e-003
1.592940e+003,4.030700e-003
1.594868e+003,4.134268e-003
1.596797e+003,3.978009e-003
1.598725e+003,3.974197e-003
1.600654e+003,3.966532e-003
1.602582e+003,4.133781e-003
1.604511e+003,3.986211e-003
1.606439e+003,4.085950e-003
1.608368e+003,4.029664e-003
1.610296e+003,3.968190e-003
1.612225e+003,3.863996e-003
1.614153e+003,4.255950e-003
1.616082e+003,4.415776e-003
1.618010e+003,4.077479e-003
1.619939e+003,4.077440e-003
1.621867e+003,4.493939e-003
1.623796e+003,4.315688e-003
1.625724e+003,4.313619e-003
1.627653e+003,4.294513e-003
1.629581e+003,4.147995e-003
1.631510e+003,4.229838e-003
1.633438e+003,4.742941e-003
1.635367e+003,4.824046e-003
1.637295e+003,4.556228e-003
1.639224e+003,4.551942e-003
1.641152e+003,4.573104e-003
1.643081e+003,4.562922e-003
1.645009e+003,5.068288e-003
1.646938e+003,4.998450e-003
1.648866e+003,4.538961e-003
1.650795e+003,4.764484e-003
1.652723e+003,4.790458e-003
1.654652e+003,3.940905e-003
1.656580e+003,4.083185e-003
1.658509e+003,4.001080e-003
1.660437e+003,4.242006e-003
1.662366e+003,4.227398e-003
1.664294e+003,3.846966e-003
1.666223e+003,3.918102e-003
1.668151e+003,4.346319e-003
1.670080e+003,3.992954e-003
1.672008e+003,3.818705e-003
1.673937e+003,3.846655e-003
1.675865e+003,3.599551e-003
1.677794e+003,3.541839e-003
1.679722e+003,3.874653e-003
1.681651e+003,3.977249e-003
1.683579e+003,4.014658e-003
1.685508e+003,3.105349e-003
1.687436e+003,3.371190e-003
1.689365e+003,3.147181e-003
1.691293e+003,2.884888e-003
1.693222e+003,3.071799e-003
1.695150e+003,3.281969e-003
1.697079e+003,3.000502e-003
1.699007e+003,3.225770e-003
1.700936e+003,2.423665e-003
1.702864e+003,2.801328e-003
1.704793e+003,2.958361e-003
1.706721e+003,2.681025e-003
1.708650e+003,2.636713e-003
1.710578e+003,2.866087e-003
1.712507e+003,3.043311e-003
1.714435e+003,3.574021e-003
1.716364e+003,3.654056e-003
1.718292e+003,3.294375e-003
1.720221e+003,3.139699e-003
1.722149e+003,3.445250e-003
1.724078e+003,3.280552e-003
1.726006e+003,3.105894e-003
1.727935e+003,3.095023e-003
1.729863e+003,3.307144e-003
1.731792e+003,3.453358e-003
1.733720e+003,3.332320e-003
1.735649e+003,2.564214e-003
1.737577e+003,2.913010e-003
1.739506e+003,2.829079e-003
1.741434e+003,2.784299e-003
1.743363e+003,2.927716e-003
1.745291e+003,2.963892e-003
1.747220e+003,2.984781e-003
1.749148e+003,2.956843e-003
1.751077e+003,2.342418e-003
1.753005e+003,1.972686e-003
1.754934e+003,1.945824e-003
1.756862e+003,1.865416e-003
1.758791e+003,1.695389e-003
1.760719e+003,1.869921e-003
1.762648e+003,1.509354e-003
1.764576e+003,1.435127e-003
1.766505e+003,1.565739e-003
1.768433e+003,1.672552e-003
1.770362e+003,1.837446e-003
1.772290e+003,1.778653e-003
1.774219e+003,1.246749e-003
1.776147e+003,1.305208e-003
1.778076e+003,1.369139e-003
1.780004e+003,1.553767e-003
1.781933e+003,1.340577e-003
1.783861e+003,1.467396e-003
1.785790e+003,1.278023e-003
1.787718e+003,1.298361e-003
1.789646e+003,1.519763e-003
1.791575e+003,1.688979e-003
1.793504e+003,1.194736e-003
1.795432e+003,1.274602e-003
1.797361e+003,1.216511e-003
1.799289e+003,1.347478e-003
1.801218e+003,1.165602e-003
1.803146e+003,1.043430e-003
1.805074e+003,9.161122e-004
1.807003e+003,9.904713e-004
1.808932e+003,8.999491e-004
1.810860e+003,8.898862e-004
1.812789e+003,5.017477e-004
1.814717e+003,2.194238e-004
1.816646e+003,-1.286669e-005
1.818574e+003,2.419353e-004
1.820502e+003,3.360612e-004
1.822431e+003,6.410298e-004
1.824360e+003,4.808921e-004
1.826288e+003,2.419618e-004
1.828217e+003,2.695546e-004
1.830145e+003,2.345792e-004
1.832073e+003,-9.050732e-005
1.834002e+003,3.510155e-005
1.835931e+003,-7.512746e-005
1.837859e+003,-1.158584e-004
1.839788e+003,-3.152466e-004
1.841716e+003,-2.225065e-004
1.843645e+003,-4.863045e-004
1.845573e+003,-3.905050e-004
1.847501e+003,-2.899361e-004
1.849430e+003,-2.249121e-004
1.851359e+003,-4.209415e-004
1.853287e+003,-3.487072e-004
1.855216e+003,-4.144590e-004
1.857144e+003,-4.203347e-004
1.859073e+003,-6.627305e-004
1.861001e+003,-4.565008e-004
1.862929e+003,-4.078564e-004
1.864858e+003,-1.224093e-004
1.866787e+003,-2.017487e-004
1.868715e+003,-4.925141e-004
1.870644e+003,-9.217993e-004
1.872572e+003,-8.445843e-004
1.874500e+003,-8.832435e-004
1.876429e+003,-6.593610e-004
1.878357e+003,-7.534139e-004
1.880286e+003,-6.863866e-004
1.882215e+003,-8.106348e-004
1.884143e+003,-7.164464e-004
1.886072e+003,-8.567893e-004
1.888000e+003,-7.697199e-004
1.889928e+003,-1.095731e-003
1.891857e+003,-8.364324e-004
1.893785e+003,-7.348103e-004
1.895714e+003,-6.961240e-004
1.897643e+003,-8.599651e-004
1.899571e+003,-6.589838e-004
1.901500e+003,-6.516404e-004
1.903428e+003,-6.443094e-004
1.905356e+003,-6.369925e-004
1.907285e+003,-6.296895e-004
1.909213e+003,-6.223992e-004
1.911142e+003,-6.151218e-004
1.913071e+003,-6.078584e-004
1.914999e+003,-6.006090e-004
1.916927e+003,-5.933726e-004
1.918856e+003,-5.861484e-004
1.920784e+003,-5.789385e-004
1.922713e+003,-5.717422e-004
1.924641e+003,-5.645594e-004
1.926570e+003,-5.573896e-004
1.928499e+003,-5.502338e-004
1.930427e+003,-5.430910e-004
1.932355e+003,-5.359617e-004
1.934284e+003,-5.288450e-004
1.936212e+003,-5.217427e-004
1.938141e+003,-5.146540e-004
1.940070e+003,-5.075778e-004
1.941998e+003,-5.005156e-004
1.943927e+003,-4.934669e-004
1.945855e+003,-4.864312e-004
1.947783e+003,-4.794081e-004
1.949712e+003,-4.723994e-004
1.951640e+003,-4.654042e-004
1.953569e+003,-4.584230e-004
1.955498e+003,-4.514535e-004
1.957426e+003,-4.444988e-004
1.959354e+003,-4.375572e-004
1.961283e+003,-4.306291e-004
1.963211e+003,-4.237131e-004
1.965140e+003,-4.168120e-004
1.967068e+003,-4.099244e-004
1.968997e+003,-4.030503e-004
1.970926e+003,-3.961883e-004
1.972854e+003,-3.893403e-004
1.974782e+003,-3.825058e-004
1.976711e+003,-3.756848e-004
1.978639e+003,-3.688764e-004
1.980568e+003,-3.620824e-004
1.982496e+003,-3.553019e-004
1.984425e+003,-3.485335e-004
1.986354e+003,-3.417796e-004
1.988282e+003,-3.350386e-004
1.990210e+003,-3.283126e-004
1.992139e+003,-3.215983e-004
1.994067e+003,-3.148974e-004
1.995996e+003,-3.082105e-004
1.997924e+003,-3.015371e-004
1.999853e+003,-2.948763e-004
2.001781e+003,-2.882294e-004
2.003710e+003,-2.815966e-004
2.005638e+003,-2.749767e-004
2.007567e+003,-2.683690e-004
2.009495e+003,-2.617766e-004
2.011424e+003,-2.551964e-004
2.013352e+003,-2.486291e-004
2.015281e+003,-2.420763e-004
2.017209e+003,-2.355371e-004
2.019138e+003,-2.290122e-004
2.021066e+003,-2.224986e-004
2.022995e+003,-2.159989e-004
2.024923e+003,-2.095127e-004
2.026852e+003,-2.030400e-004
2.028781e+003,-1.965803e-004
2.030709e+003,-1.901351e-004
2.032637e+003,-1.837034e-004
2.034566e+003,-1.772842e-004
2.036494e+003,-1.708777e-004
2.038423e+003,-1.644855e-004
2.040351e+003,-1.581069e-004
2.042280e+003,-1.517413e-004
2.044208e+003,-1.453892e-004
2.046137e+003,-1.390511e-004
2.048065e+003,-1.327256e-004
2.049994e+003,-1.264140e-004
2.051922e+003,-1.201169e-004
2.053851e+003,-1.138295e-004
2.055779e+003,-1.075589e-004
2.057708e+003,-1.013004e-004
2.059636e+003,-9.505590e-005
2.061565e+003,-8.882489e-005
2.063493e+003,-8.260738e-005
2.065422e+003,-7.640291e-005
2.067350e+003,-7.021241e-005
2.069279e+003,-6.403308e-005
2.071207e+003,-5.786866e-005
2.073136e+003,-5.171774e-005
2.075064e+003,-4.558032e-005
2.076993e+003,-3.945641e-005
2.078921e+003,-3.334600e-005
2.080850e+003,-2.725003e-005
2.082778e+003,-2.116617e-005
2.084707e+003,-1.509394e-005
2.086635e+003,-9.036157e-006
2.088564e+003,-2.992805e-006
2.090492e+003,3.037043e-006
2.092421e+003,9.053387e-006
2.094349e+003,1.505669e-005
2.096278e+003,2.104649e-005
2.098206e+003,2.702512e-005
2.100135e+003,3.298838e-005
2.102063e+003,3.893767e-005
2.103992e+003,4.487438e-005
2.105920e+003,5.079573e-005
2.107849e+003,5.670544e-005
2.109777e+003,6.260164e-005
2.111706e+003,6.848434e-005
2.113634e+003,7.435586e-005
2.115563e+003,8.021109e-005
2.117491e+003,8.605327e-005
2.119420e+003,9.188242e-005
2.121348e+003,9.769853e-005
2.123277e+003,1.035007e-004
2.125205e+003,1.092898e-004
2.127134e+003,1.150649e-004
2.129062e+003,1.208289e-004
2.130991e+003,1.265779e-004
2.132919e+003,1.323130e-004
2.134848e+003,1.380350e-004
2.136776e+003,1.437441e-004
2.138705e+003,1.494382e-004
2.140633e+003,1.551192e-004
2.142562e+003,1.607891e-004
2.144490e+003,1.664432e-004
2.146419e+003,1.720851e-004
2.148347e+003,1.777131e-004
2.150276e+003,1.833290e-004
2.152204e+003,1.889300e-004
2.154133e+003,1.945179e-004
2.156061e+003,2.000937e-004
2.157990e+003,2.056537e-004
2.159918e+003,2.112016e-004
2.161847e+003,2.167365e-004
2.163775e+003,2.222555e-004
2.165704e+003,2.277624e-004
2.167632e+003,2.332563e-004
2.169561e+003,2.387371e-004
2.171489e+003,2.442040e-004
2.173418e+003,2.496596e-004
2.175346e+003,2.551004e-004
2.177275e+003,2.605282e-004
2.179203e+003,2.659420e-004
2.181132e+003,2.713427e-004
2.183060e+003,2.767285e-004
2.184989e+003,2.821013e-004
2.186917e+003,2.874639e-004
2.188846e+003,2.928097e-004
2.190774e+003,2.981424e-004
2.192703e+003,3.034621e-004
2.194631e+003,3.087688e-004
2.196560e+003,3.140615e-004
2.198488e+003,3.193412e-004
2.200417e+003,3.246088e-004
2.202345e+003,3.298614e-004
2.204274e+003,3.351010e-004
2.206202e+003,3.403276e-004
2.208131e+003,3.455393e-004
2.210059e+003,3.507379e-004
2.211988e+003,3.559245e-004
2.213916e+003,3.610952e-004
2.215845e+003,3.662538e-004
2.217773e+003,3.714012e-004
2.219702e+003,3.765337e-004
2.221630e+003,3.816523e-004
2.223559e+003,3.867578e-004
2.225487e+003,3.918493e-004
2.227416e+003,3.969287e-004
2.229344e+003,4.019933e-004
2.231273e+003,4.070466e-004
2.233201e+003,4.120851e-004
2.235130e+003,4.171096e-004
2.237058e+003,4.221210e-004
2.238987e+003,4.271176e-004
2.240915e+003,4.321020e-004
2.242844e+003,4.370734e-004
2.244772e+003,4.420336e-004
2.246701e+003,4.469780e-004
2.248629e+003,4.519094e-004
2.250558e+003,4.568268e-004
2.252486e+003,4.617311e-004
2.254415e+003,4.666224e-004
2.256343e+003,4.714997e-004
2.258272e+003,4.763631e-004
2.260200e+003,4.812134e-004
2.262129e+003,4.860535e-004
2.264057e+003,4.908778e-004
2.265986e+003,4.956862e-004
2.267914e+003,5.004825e-004
2.269843e+003,5.052667e-004
2.271771e+003,5.100369e-004
2.273700e+003,5.147932e-004
2.275628e+003,5.195392e-004
2.277557e+003,5.242685e-004
2.279485e+003,5.289856e-004
2.281414e+003,5.336888e-004
2.283342e+003,5.383780e-004
2.285271e+003,5.430542e-004
2.287199e+003,5.477183e-004
2.289128e+003,5.523702e-004
2.291056e+003,5.570045e-004
2.292985e+003,5.616266e-004
2.294913e+003,5.662367e-004
2.296842e+003,5.708318e-004
2.298770e+003,5.754149e-004
2.300699e+003,5.799839e-004
2.302627e+003,5.845418e-004
2.304556e+003,5.890839e-004
2.306484e+003,5.936138e-004
2.308413e+003,5.981289e-004
2.310341e+003,6.026309e-004
2.312270e+003,6.071199e-004
2.314198e+003,6.115949e-004
2.316127e+003,6.160550e-004
2.318055e+003,6.205048e-004
2.319984e+003,6.249407e-004
2.321912e+003,6.293636e-004
2.323841e+003,6.337706e-004
2.325769e+003,6.381664e-004
2.327698e+003,6.425465e-004
2.329626e+003,6.469162e-004
2.331555e+003,6.512692e-004
2.333483e+003,6.556138e-004
2.335412e+003,6.599408e-004
2.337340e+003,6.642556e-004
2.339269e+003,6.685564e-004
2.341197e+003,6.728442e-004
2.343126e+003,6.771171e-004
2.345054e+003,6.813779e-004
2.346983e+003,6.856276e-004
2.348911e+003,6.898604e-004
2.350840e+003,6.940821e-004
2.352768e+003,6.982889e-004
2.354697e+003,7.024845e-004
2.356625e+003,7.066634e-004
2.358554e+003,7.108301e-004
2.360482e+003,7.149838e-004
2.362411e+003,7.191245e-004
2.364339e+003,7.232530e-004
2.366268e+003,7.273676e-004
2.368196e+003,7.314654e-004
2.370125e+003,7.355530e-004
2.372053e+003,7.396257e-004
2.373982e+003,7.436853e-004
2.375910e+003,7.477319e-004
2.377839e+003,7.517673e-004
2.379767e+003,7.557869e-004
2.381696e+003,7.597925e-004
2.383624e+003,7.637842e-004
2.385553e+003,7.677656e-004
2.387481e+003,7.717302e-004
2.389410e+003,7.756837e-004
2.391338e+003,7.796250e-004
2.393267e+003,7.835487e-004
2.395195e+003,7.874612e-004
2.397124e+003,7.913597e-004
2.399052e+003,7.952461e-004
2.400981e+003,7.725265e-004
2.402909e+003,7.794360e-004
2.404838e+003,6.987173e-004
2.406766e+003,8.996679e-004
2.408695e+003,1.095898e-003
2.410623e+003,9.650895e-004
2.412552e+003,1.177837e-003
2.414480e+003,1.418693e-003
2.416409e+003,1.415197e-003
2.418337e+003,1.151699e-003
2.420266e+003,1.047832e-003
2.422194e+003,1.056092e-003
2.424123e+003,1.083585e-003
2.426051e+003,1.072868e-003
2.427979e+003,1.058065e-003
2.429908e+003,9.479877e-004
2.431837e+003,1.026410e-003
2.433765e+003,1.106589e-003
2.435694e+003,1.105107e-003
2.437622e+003,9.999070e-004
2.439551e+003,1.005758e-003
2.441479e+003,1.021987e-003
2.443407e+003,9.941533e-004
2.445336e+003,1.016690e-003
2.447265e+003,1.129212e-003
2.449193e+003,1.127857e-003
2.451122e+003,1.210689e-003
2.453050e+003,1.345811e-003
2.454979e+003,1.349455e-003
2.456907e+003,1.168002e-003
2.458836e+003,1.153634e-003
2.460764e+003,1.118802e-003
2.462693e+003,1.009633e-003
2.464621e+003,9.818869e-004
2.466550e+003,1.151357e-003
2.468478e+003,1.249366e-003
2.470406e+003,1.486602e-003
2.472335e+003,1.712494e-003
2.474264e+003,1.822562e-003
2.476192e+003,1.552567e-003
2.478121e+003,1.504617e-003
2.480049e+003,1.604522e-003
2.481978e+003,1.730939e-003
2.483906e+003,1.778261e-003
2.485835e+003,1.769854e-003
2.487763e+003,1.693838e-003
2.489692e+003,1.704686e-003
2.491620e+003,1.711956e-003
2.493549e+003,1.834591e-003
2.495477e+003,1.892376e-003
2.497406e+003,1.958361e-003
2.499334e+003,2.003005e-003
2.501263e+003,2.071102e-003
2.503191e+003,2.092822e-003
2.505120e+003,2.131194e-003
2.507048e+003,2.142312e-003
2.508977e+003,2.247115e-003
2.510905e+003,2.227440e-003
2.512833e+003,2.149791e-003
2.514762e+003,2.252963e-003
2.516691e+003,2.468756e-003
2.518619e+003,2.522444e-003
2.520548e+003,2.661144e-003
2.522476e+003,2.794823e-003
2.524405e+003,2.954027e-003
2.526333e+003,3.113920e-003
2.528261e+003,3.197477e-003
2.530190e+003,3.088148e-003
2.532119e+003,2.961244e-003
2.534047e+003,3.020618e-003
2.535976e+003,3.163952e-003
2.537904e+003,3.103948e-003
2.539833e+003,3.084655e-003
2.541761e+003,3.236366e-003
2.543689e+003,3.403428e-003
2.545618e+003,3.510705e-003
2.547547e+003,3.698688e-003
2.549475e+003,3.885612e-003
2.551404e+003,4.084662e-003
2.553332e+003,4.050929e-003
2.555260e+003,4.079937e-003
2.557189e+003,4.149161e-003
2.559117e+003,4.249595e-003
2.561046e+003,4.557991e-003
2.562975e+003,4.879675e-003
2.564903e+003,4.921025e-003
2.566832e+003,4.962945e-003
2.568760e+003,4.986018e-003
2.570688e+003,5.173689e-003
2.572617e+003,5.406886e-003
2.574546e+003,5.817772e-003
2.576474e+003,6.141701e-003
2.578403e+003,6.343792e-003
2.580331e+003,6.498285e-003
2.582260e+003,6.602093e-003
2.584188e+003,6.665008e-003
2.586116e+003,6.826103e-003
2.588045e+003,6.881515e-003
2.589974e+003,7.165524e-003
2.591902e+003,7.654725e-003
2.593831e+003,7.998809e-003
2.595759e+003,8.218221e-003
2.597688e+003,8.322419e-003
2.599616e+003,8.411258e-003
2.601544e+003,8.637207e-003
2.603473e+003,8.966325e-003
2.605402e+003,9.344351e-003
2.607330e+003,9.561347e-003
2.609259e+003,9.881184e-003
2.611187e+003,1.020492e-002
2.613115e+003,1.060828e-002
2.615044e+003,1.100104e-002
2.616972e+003,1.133933e-002
2.618901e+003,1.170228e-002
2.620830e+003,1.210671e-002
2.622758e+003,1.254105e-002
2.624687e+003,1.303089e-002
2.626615e+003,1.345894e-002
2.628543e+003,1.388581e-002
2.630472e+003,1.429098e-002
2.632400e+003,1.455842e-002
2.634329e+003,1.476985e-002
2.636258e+003,1.495498e-002
2.638186e+003,1.501223e-002
2.640115e+003,1.502586e-002
2.642043e+003,1.493148e-002
2.643971e+003,1.494602e-002
2.645900e+003,1.507438e-002
2.647828e+003,1.519403e-002
2.649757e+003,1.526093e-002
2.651686e+003,1.538995e-002
2.653614e+003,1.556982e-002
2.655542e+003,1.572672e-002
2.657471e+003,1.587167e-002
2.659399e+003,1.587771e-002
2.661328e+003,1.577810e-002
2.663256e+003,1.559949e-002
2.665185e+003,1.536125e-002
2.667114e+003,1.521999e-002
2.669042e+003,1.508974e-002
2.670970e+003,1.494526e-002
2.672899e+003,1.475293e-002
2.674827e+003,1.453577e-002
2.676756e+003,1.437055e-002
2.678685e+003,1.425983e-002
2.680613e+003,1.421929e-002
2.682542e+003,1.415533e-002
2.684470e+003,1.397971e-002
2.686398e+003,1.382040e-002
2.688327e+003,1.376882e-002
2.690255e+003,1.370603e-002
2.692184e+003,1.353223e-002
2.694113e+003,1.340842e-002
2.696041e+003,1.333079e-002
2.697969e+003,1.333303e-002
2.699898e+003,1.343770e-002
2.701826e+003,1.361011e-002
2.703755e+003,1.377242e-002
2.705683e+003,1.391838e-002
2.707612e+003,1.415773e-002
2.709541e+003,1.434438e-002
2.711469e+003,1.444010e-002
2.713397e+003,1.462162e-002
2.715326e+003,1.483211e-002
2.717254e+003,1.499144e-002
2.719183e+003,1.520566e-002
2.721111e+003,1.551136e-002
2.723040e+003,1.580296e-002
2.724969e+003,1.610629e-002
2.726897e+003,1.638976e-002
2.728825e+003,1.662412e-002
2.730754e+003,1.687097e-002
2.732682e+003,1.705224e-002
2.734611e+003,1.718818e-002
2.736539e+003,1.732021e-002
2.738468e+003,1.743168e-002
2.740396e+003,1.753259e-002
2.742325e+003,1.754216e-002
2.744253e+003,1.750380e-002
2.746182e+003,1.743255e-002
2.748110e+003,1.741494e-002
2.750039e+003,1.746079e-002
2.751967e+003,1.754117e-002
2.753896e+003,1.775130e-002
2.755824e+003,1.803946e-002
2.757753e+003,1.837924e-002
2.759681e+003,1.875682e-002
2.761610e+003,1.913661e-002
2.763538e+003,1.955398e-002
2.765467e+003,2.003613e-002
2.767395e+003,2.049962e-002
2.769324e+003,2.104994e-002
2.771252e+003,2.167962e-002
2.773181e+003,2.235984e-002
2.775109e+003,2.308992e-002
2.777038e+003,2.400916e-002
2.778966e+003,2.502577e-002
2.780895e+003,2.601531e-002
2.782823e+003,2.718904e-002
2.784752e+003,2.845079e-002
2.786680e+003,2.982683e-002
2.788609e+003,3.140726e-002
2.790537e+003,3.302881e-002
2.792466e+003,3.473618e-002
2.794394e+003,3.653835e-002
2.796323e+003,3.832157e-002
2.798251e+003,4.022409e-002
2.800180e+003,4.225509e-002
2.802108e+003,4.432641e-002
2.804037e+003,4.655554e-002
2.805965e+003,4.896387e-002
2.807894e+003,5.165692e-002
2.809822e+003,5.465257e-002
2.811751e+003,5.806809e-002
2.813679e+003,6.198173e-002
2.815608e+003,6.648374e-002
2.817536e+003,7.170513e-002
2.819465e+003,7.783059e-002
2.821393e+003,8.510465e-002
2.823322e+003,9.386546e-002
2.825250e+003,1.046464e-001
2.827179e+003,1.182579e-001
2.829107e+003,1.358867e-001
2.831036e+003,1.593979e-001
2.832964e+003,1.916131e-001
2.834893e+003,2.372458e-001
2.836821e+003,3.024948e-001
2.838750e+003,3.969534e-001
2.840678e+003,5.363180e-001
2.842607e+003,7.403899e-001
2.844535e+003,1.017913e+000
2.846464e+003,1.297766e+000
2.848392e+003,1.345530e+000
2.850321e+003,1.099633e+000
2.852249e+003,8.145664e-001
2.854178e+003,6.104144e-001
2.856106e+003,4.720888e-001
2.858035e+003,3.747143e-001
2.859963e+003,3.052967e-001
2.861892e+003,2.566516e-001
2.863820e+003,2.241943e-001
2.865749e+003,2.047054e-001
2.867677e+003,1.953106e-001
2.869606e+003,1.927799e-001
2.871534e+003,1.941272e-001
2.873463e+003,1.986099e-001
2.875391e+003,2.076885e-001
2.877320e+003,2.226982e-001
2.879248e+003,2.435097e-001
2.881177e+003,2.691717e-001
2.883105e+003,2.987363e-001
2.885034e+003,3.316412e-001
2.886962e+003,3.671125e-001
2.888891e+003,4.043007e-001
2.890819e+003,4.422021e-001
2.892748e+003,4.800577e-001
2.894676e+003,5.176353e-001
2.896605e+003,5.556411e-001
2.898533e+003,5.957569e-001
2.900462e+003,6.407627e-001
2.902390e+003,6.948928e-001
2.904319e+003,7.649206e-001
2.906247e+003,8.597574e-001
2.908176e+003,9.895447e-001
2.910104e+003,1.161438e+000
2.912033e+003,1.361926e+000
2.913961e+003,1.521808e+000
2.915890e+003,1.533652e+000
2.917818e+003,1.384937e+000
2.919747e+003,1.176262e+000
2.921675e+003,9.824033e-001
2.923604e+003,8.229958e-001
2.925532e+003,6.952938e-001
2.927461e+003,5.911633e-001
2.929389e+003,5.037910e-001
2.931318e+003,4.289353e-001
2.933246e+003,3.645679e-001
2.935175e+003,3.093831e-001
2.937103e+003,2.622488e-001
2.939032e+003,2.221891e-001
2.940960e+003,1.886641e-001
2.942889e+003,1.615583e-001
2.944817e+003,1.407484e-001
2.946746e+003,1.259557e-001
2.948674e+003,1.168035e-001
2.950603e+003,1.118426e-001
2.952531e+003,1.086852e-001
2.954460e+003,1.054735e-001
2.956388e+003,1.014775e-001
2.958317e+003,9.636807e-002
2.960245e+003,9.008755e-002
2.962174e+003,8.271071e-002
2.964102e+003,7.467163e-002
2.966031e+003,6.646584e-002
2.967959e+003,5.859043e-002
2.969888e+003,5.148537e-002
2.971816e+003,4.522141e-002
2.973745e+003,3.980933e-002
2.975673e+003,3.540019e-002
2.977602e+003,3.171830e-002
2.979530e+003,2.867383e-002
2.981459e+003,2.615419e-002
2.983387e+003,2.408515e-002
2.985316e+003,2.235502e-002
2.987244e+003,2.095182e-002
2.989173e+003,1.971522e-002
2.991101e+003,1.863570e-002
2.993030e+003,1.768046e-002
2.994958e+003,1.682263e-002
2.996887e+003,1.606180e-002
2.998815e+003,1.549160e-002
3.000744e+003,1.502003e-002
3.002672e+003,1.447408e-002
3.004601e+003,1.386763e-002
3.006529e+003,1.340656e-002
3.008458e+003,1.304234e-002
3.010386e+003,1.272508e-002
3.012315e+003,1.233740e-002
3.014243e+003,1.206885e-002
3.016172e+003,1.177717e-002
3.018100e+003,1.141490e-002
3.020029e+003,1.114090e-002
3.021957e+003,1.096847e-002
3.023886e+003,1.074966e-002
3.025814e+003,1.052682e-002
3.027743e+003,1.026723e-002
3.029671e+003,1.005827e-002
3.031600e+003,9.812443e-003
3.033528e+003,9.530921e-003
3.035457e+003,9.223901e-003
3.037385e+003,8.905898e-003
3.039314e+003,8.607126e-003
3.041242e+003,8.332741e-003
3.043171e+003,7.968719e-003
3.045099e+003,7.615611e-003
3.047028e+003,7.394341e-003
3.048956e+003,7.192840e-003
3.050885e+003,6.979596e-003
3.052813e+003,6.788924e-003
3.054742e+003,6.638037e-003
3.056670e+003,6.495918e-003
3.058599e+003,6.341478e-003
3.060527e+003,6.242475e-003
3.062456e+003,6.075328e-003
3.064384e+003,5.917155e-003
3.066313e+003,5.768286e-003
3.068241e+003,5.650304e-003
3.070170e+003,5.539617e-003
3.072098e+003,5.377221e-003
3.074027e+003,5.233970e-003
3.075955e+003,5.203716e-003
3.077884e+003,5.200642e-003
3.079812e+003,5.138204e-003
3.081741e+003,4.956298e-003
3.083669e+003,4.759460e-003
3.085598e+003,4.571417e-003
3.087526e+003,4.421143e-003
3.089455e+003,4.230507e-003
3.091383e+003,4.052117e-003
3.093312e+003,3.777385e-003
3.095240e+003,3.517429e-003
3.097169e+003,3.224324e-003
3.099097e+003,3.012287e-003
3.101026e+003,2.779084e-003
3.102954e+003,2.567394e-003
3.104883e+003,2.485836e-003
3.106811e+003,2.294692e-003
3.108740e+003,2.111985e-003
3.110668e+003,2.087206e-003
3.112597e+003,2.082339e-003
3.114525e+003,2.031477e-003
3.116454e+003,1.925544e-003
3.118382e+003,1.801172e-003
3.120311e+003,1.727529e-003
3.122239e+003,1.761685e-003
3.124168e+003,1.746299e-003
3.126096e+003,1.609338e-003
3.128025e+003,1.459520e-003
3.129953e+003,1.511207e-003
3.131882e+003,1.561380e-003
3.133810e+003,1.482934e-003
3.135739e+003,1.431848e-003
3.137667e+003,1.493203e-003
3.139596e+003,1.467323e-003
3.141524e+003,1.487776e-003
3.143453e+003,1.432542e-003
3.145381e+003,1.359298e-003
3.147310e+003,1.312568e-003
3.149238e+003,1.274014e-003
3.151167e+003,1.253061e-003
3.153095e+003,1.214099e-003
3.155024e+003,1.222705e-003
3.156952e+003,1.258849e-003
3.158881e+003,1.329997e-003
3.160809e+003,1.383104e-003
3.162738e+003,1.425025e-003
3.164666e+003,1.446825e-003
3.166594e+003,1.410969e-003
3.168523e+003,1.390263e-003
3.170452e+003,1.446634e-003
3.172380e+003,1.445923e-003
3.174309e+003,1.447232e-003
3.176237e+003,1.616476e-003
3.178166e+003,1.615211e-003
3.180094e+003,1.507789e-003
3.182022e+003,1.457557e-003
3.183951e+003,1.529887e-003
3.185880e+003,1.579111e-003
3.187808e+003,1.588501e-003
3.189737e+003,1.633318e-003
3.191665e+003,1.620682e-003
3.193594e+003,1.560125e-003
3.195522e+003,1.570150e-003
3.197450e+003,1.492536e-003
3.199379e+003,1.405166e-003
3.201308e+003,1.453442e-003
3.203236e+003,1.512952e-003
3.205165e+003,1.513494e-003
3.207093e+003,1.560949e-003
3.209021e+003,1.511225e-003
3.210950e+003,1.509707e-003
3.212878e+003,1.552597e-003
3.214807e+003,1.552494e-003
3.216736e+003,1.533397e-003
3.218664e+003,1.557464e-003
3.220593e+003,1.541143e-003
3.222521e+003,1.532260e-003
3.224449e+003,1.581354e-003
3.226378e+003,1.595534e-003
3.228307e+003,1.615038e-003
3.230235e+003,1.687458e-003
3.232164e+003,1.637615e-003
3.234092e+003,1.627211e-003
3.236021e+003,1.602022e-003
3.237949e+003,1.595706e-003
3.239877e+003,1.657875e-003
3.241806e+003,1.774188e-003
3.243735e+003,1.869742e-003
3.245663e+003,1.788175e-003
3.247592e+003,1.705635e-003
3.249520e+003,1.665525e-003
3.251448e+003,1.769403e-003
3.253377e+003,1.963831e-003
3.255305e+003,2.047809e-003
3.257234e+003,1.977714e-003
3.259163e+003,1.882046e-003
3.261091e+003,1.951439e-003
3.263020e+003,2.004158e-003
3.264948e+003,2.043452e-003
3.266876e+003,2.097597e-003
3.268805e+003,2.132382e-003
3.270733e+003,2.163030e-003
3.272662e+003,2.233490e-003
3.274591e+003,2.189573e-003
3.276519e+003,2.176074e-003
3.278448e+003,2.251167e-003
3.280376e+003,2.342317e-003
3.282304e+003,2.354993e-003
3.284233e+003,2.202155e-003
3.286161e+003,2.194447e-003
3.288090e+003,2.377069e-003
3.290019e+003,2.388451e-003
3.291947e+003,2.370767e-003
3.293875e+003,2.379384e-003
3.295804e+003,2.343738e-003
3.297732e+003,2.336945e-003
3.299661e+003,2.306430e-003
3.301589e+003,2.223108e-003
3.303518e+003,2.212558e-003
3.305447e+003,2.308991e-003
3.307375e+003,2.365999e-003
3.309303e+003,2.418185e-003
3.311232e+003,2.430502e-003
3.313160e+003,2.461081e-003
3.315089e+003,2.461964e-003
3.317018e+003,2.459500e-003
3.318946e+003,2.495265e-003
3.320875e+003,2.470614e-003
3.322803e+003,2.434770e-003
3.324731e+003,2.508979e-003
3.326660e+003,2.615234e-003
3.328588e+003,2.545858e-003
3.330517e+003,2.589714e-003
3.332446e+003,2.784854e-003
3.334374e+003,2.782973e-003
3.336302e+003,2.828721e-003
3.338231e+003,2.775716e-003
3.340159e+003,2.683487e-003
3.342088e+003,2.707571e-003
3.344016e+003,2.729323e-003
3.345945e+003,2.723441e-003
3.347874e+003,2.724184e-003
3.349802e+003,2.651328e-003
3.351730e+003,2.646729e-003
3.353659e+003,2.678733e-003
3.355587e+003,2.711559e-003
3.357516e+003,2.827216e-003
3.359444e+003,2.942782e-003
3.361373e+003,2.906354e-003
3.363302e+003,2.830889e-003
3.365230e+003,2.887173e-003
3.367158e+003,2.870543e-003
3.369087e+003,2.822090e-003
3.371015e+003,2.879355e-003
3.372944e+003,2.938950e-003
3.374872e+003,2.877509e-003
3.376801e+003,2.850140e-003
3.378729e+003,2.885399e-003
3.380658e+003,2.833914e-003
3.382586e+003,2.769750e-003
3.384515e+003,2.773736e-003
3.386443e+003,2.732215e-003
3.388372e+003,2.729574e-003
3.390300e+003,2.825685e-003
3.392229e+003,2.822287e-003
3.394157e+003,2.686596e-003
3.396086e+003,2.732625e-003
3.398014e+003,2.668301e-003
3.399943e+003,2.728418e-003
3.401871e+003,2.748705e-003
3.403800e+003,2.658198e-003
3.405728e+003,2.636923e-003
3.407657e+003,2.575895e-003
3.409585e+003,2.507808e-003
3.411514e+003,2.521584e-003
3.413442e+003,2.493741e-003
3.415371e+003,2.524270e-003
3.417299e+003,2.577331e-003
3.419228e+003,2.602538e-003
3.421156e+003,2.438465e-003
3.423085e+003,2.256053e-003
3.425013e+003,2.214370e-003
3.426942e+003,2.192095e-003
3.428870e+003,2.250409e-003
3.430799e+003,2.321927e-003
3.432727e+003,2.288701e-003
3.434656e+003,2.263745e-003
3.436584e+003,2.168804e-003
3.438513e+003,2.179662e-003
3.440441e+003,2.287721e-003
3.442370e+003,2.203142e-003
3.444298e+003,2.309365e-003
3.446227e+003,2.517253e-003
3.448155e+003,2.117453e-003
3.450084e+003,1.862125e-003
3.452012e+003,1.727100e-003
3.453941e+003,1.679501e-003
3.455869e+003,1.725495e-003
3.457798e+003,1.709880e-003
3.459726e+003,1.668455e-003
3.461655e+003,1.678940e-003
3.463583e+003,1.539398e-003
3.465512e+003,1.484180e-003
3.467440e+003,1.356721e-003
3.469369e+003,1.253702e-003
3.471297e+003,1.442280e-003
3.473226e+003,1.505012e-003
3.475154e+003,1.348909e-003
3.477083e+003,1.285100e-003
3.479011e+003,1.466982e-003
3.480940e+003,1.654580e-003
3.482868e+003,1.384392e-003
3.484797e+003,1.177592e-003
3.486725e+003,1.208430e-003
3.488654e+003,1.058698e-003
3.490582e+003,8.270349e-004
3.492511e+003,8.098800e-004
3.494439e+003,9.468347e-004
3.496368e+003,1.028545e-003
3.498296e+003,9.070691e-004
3.500225e+003,1.164982e-003
3.502153e+003,1.460036e-003
3.504082e+003,9.398609e-004
3.506010e+003,7.587466e-004
3.507939e+003,1.122402e-003
3.509867e+003,9.762701e-004
3.511796e+003,6.687343e-004
3.513724e+003,5.521774e-004
3.515653e+003,3.906637e-004
3.517581e+003,2.533030e-004
3.519510e+003,3.282502e-004
3.521438e+003,6.239358e-004
3.523367e+003,6.308332e-004
3.525295e+003,5.321931e-004
3.527224e+003,6.889217e-004
3.529152e+003,4.488844e-004
3.531081e+003,1.139510e-004
3.533009e+003,-8.841045e-005
3.534938e+003,1.416635e-004
3.536866e+003,-1.333468e-005
3.538795e+003,-1.851097e-004
3.540723e+003,-1.496263e-005
3.542652e+003,4.087389e-004
3.544580e+003,8.815695e-004
3.546509e+003,3.767293e-004
3.548437e+003,-2.293363e-004
3.550366e+003,-3.127381e-006
3.552294e+003,-2.707727e-005
3.554223e+003,-3.737193e-004
3.556151e+003,-5.453359e-004
3.558080e+003,-4.377402e-004
3.560008e+003,-3.651362e-004
3.561937e+003,-2.246927e-004
3.563865e+003,6.707590e-004
3.565794e+003,1.448296e-003
3.567722e+003,-7.809140e-005
3.569651e+003,-9.304713e-004
3.571579e+003,-6.725006e-004
3.573508e+003,-4.719887e-004
3.575436e+003,-6.524045e-004
3.577365e+003,-8.567628e-004
3.579293e+003,-9.148736e-004
3.581222e+003,-1.023008e-003
3.583150e+003,-6.331429e-004
3.585079e+003,4.510842e-004
3.587007e+003,6.367285e-004
3.588936e+003,-6.784648e-004
3.590864e+003,-1.959205e-004
3.592793e+003,6.061681e-004
3.594721e+003,7.736031e-004
3.596650e+003,1.013216e-003
3.598578e+003,1.578027e-003
3.600507e+003,1.644026e-003
3.602435e+003,1.255704e-003
3.604364e+003,1.578614e-003
3.606292e+003,2.148665e-003
3.608221e+003,1.458388e-003
3.610149e+003,1.158154e-003
3.612078e+003,1.666119e-003
3.614006e+003,9.182319e-004
3.615935e+003,8.918215e-004
3.617863e+003,1.281155e-003
3.619792e+003,1.711342e-004
3.621720e+003,-4.925672e-004
3.623649e+003,-2.051126e-004
3.625577e+003,8.195657e-004
3.627506e+003,2.183802e-003
3.629434e+003,2.530441e-004
3.631363e+003,-4.024543e-004
3.633291e+003,-6.064400e-005
3.635220e+003,-3.126916e-004
3.637148e+003,-2.149474e-004
3.639077e+003,-2.428852e-004
3.641005e+003,-6.789528e-005
3.642934e+003,1.600068e-004
3.644862e+003,1.259908e-003
3.646791e+003,2.500895e-003
3.648719e+003,1.841610e-003
3.650648e+003,-5.096644e-004
3.652576e+003,-7.469449e-004
3.654505e+003,5.915910e-004
3.656433e+003,-1.017414e-004
3.658362e+003,-9.264667e-004
3.660290e+003,-7.010177e-004
3.662219e+003,-6.774366e-004
3.664147e+003,-8.512661e-004
3.666076e+003,-3.210623e-004
3.668004e+003,1.004454e-003
3.669933e+003,3.836676e-005
3.671861e+003,-5.817376e-004
3.673790e+003,1.046969e-003
3.675718e+003,-5.482342e-004
3.677647e+003,-9.437781e-004
3.679575e+003,-7.269066e-004
3.681504e+003,-1.052285e-003
3.683432e+003,-7.802658e-004
3.685361e+003,6.652810e-005
3.687289e+003,8.543525e-004
3.689218e+003,-4.592910e-005
3.691146e+003,-9.938385e-004
3.693075e+003,-1.152743e-003
3.695003e+003,-7.744338e-004
3.696932e+003,-9.272136e-004
3.698860e+003,-6.774236e-004
3.700789e+003,-4.432350e-004
3.702717e+003,-1.139646e-003
3.704646e+003,-8.472279e-004
3.706574e+003,-2.179332e-004
3.708503e+003,4.437733e-004
3.710431e+003,7.767789e-004
3.712360e+003,-7.631872e-004
3.714288e+003,-1.335017e-003
3.716217e+003,-8.757338e-004
3.718145e+003,-3.021508e-004
3.720074e+003,4.878268e-005
3.722002e+003,2.734233e-004
3.723931e+003,3.071241e-004
3.725859e+003,-5.070679e-005
3.727788e+003,-7.009674e-004
3.729716e+003,3.409199e-004
3.731645e+003,1.168406e-003
3.733573e+003,1.597114e-003
3.735502e+003,1.262823e-003
3.737430e+003,-1.196675e-004
3.739359e+003,6.246381e-005
3.741287e+003,9.354278e-004
3.743216e+003,2.019275e-003
3.745144e+003,6.740149e-004
3.747073e+003,1.579339e-003
3.749001e+003,2.820473e-003
3.750930e+003,1.978036e-003
3.752858e+003,1.002438e-004
3.754787e+003,3.725383e-004
3.756715e+003,1.048254e-003
3.758644e+003,9.351522e-004
3.760572e+003,-1.073610e-004
3.762501e+003,1.096278e-004
3.764429e+003,8.335356e-004
3.766358e+003,3.608074e-004
3.768286e+003,8.065403e-004
3.770215e+003,1.742747e-004
3.772143e+003,-5.274080e-004
3.774072e+003,-3.172513e-004
3.776000e+003,2.249796e-004
3.777929e+003,8.635260e-004
3.779857e+003,1.804922e-004
3.781786e+003,3.807060e-005
3.783714e+003,5.556606e-004
3.785643e+003,-3.897399e-005
3.787571e+003,-1.758672e-004
3.789500e+003,-2.902467e-004
3.791428e+003,-5.406756e-004
3.793357e+003,1.609474e-004
3.795285e+003,1.025802e-003
3.797214e+003,5.351212e-004
3.799142e+003,1.499703e-003
3.801071e+003,1.286441e-003
3.802999e+003,-6.789323e-004
3.804927e+003,5.851313e-004
3.806856e+003,3.362708e-004
3.808785e+003,-7.182304e-004
3.810713e+003,-2.868660e-004
3.812642e+003,4.671328e-004
3.814570e+003,1.366224e-003
3.816499e+003,3.821086e-004
3.818427e+003,1.480190e-003
3.820355e+003,2.053857e-003
3.822284e+003,-3.881007e-004
3.824213e+003,6.447118e-004
3.826141e+003,6.870050e-004
3.828070e+003,-2.831221e-004
3.829998e+003,6.525572e-004
3.831927e+003,8.745324e-004
3.833855e+003,1.055274e-003
3.835783e+003,1.912426e-003
3.837712e+003,1.997842e-003
3.839641e+003,1.159221e-003
3.841569e+003,6.536692e-004
3.843498e+003,2.981629e-004
3.845426e+003,-5.181879e-005
3.847354e+003,6.949808e-004
3.849283e+003,1.985790e-003
3.851211e+003,3.499513e-003
3.853140e+003,2.032567e-003
3.855069e+003,-2.473779e-005
3.856997e+003,2.213046e-004
3.858926e+003,4.678890e-004
3.860854e+003,1.400949e-003
3.862782e+003,1.875203e-003
3.864711e+003,1.178304e-003
3.866640e+003,1.028026e-003
3.868568e+003,2.163401e-003
3.870497e+003,6.465334e-004
3.872425e+003,1.413219e-003
3.874354e+003,8.974429e-004
3.876282e+003,2.859719e-004
3.878210e+003,1.871901e-003
3.880139e+003,1.935476e-003
3.882068e+003,9.922851e-004
3.883996e+003,2.184700e-003
3.885925e+003,8.277930e-004
3.887853e+003,4.163962e-004
3.889781e+003,1.990814e-003
3.891710e+003,1.405923e-003
3.893638e+003,3.857203e-004
3.895567e+003,1.030536e-003
3.897496e+003,2.041286e-003
3.899424e+003,2.107866e-003
3.901353e+003,2.220707e-003
3.903281e+003,2.186080e-003
3.905209e+003,5.820170e-004
3.907138e+003,1.895968e-004
3.909066e+003,5.213190e-004
3.910995e+003,6.715152e-004
3.912924e+003,8.417312e-004
3.914852e+003,1.542028e-003
3.916781e+003,1.494290e-003
3.918709e+003,8.823872e-004
3.920637e+003,5.521681e-004
3.922566e+003,1.138726e-003
3.924494e+003,1.237012e-003
3.926423e+003,5.669668e-004
3.928352e+003,1.086924e-003
3.930280e+003,1.318786e-003
3.932208e+003,9.260923e-004
3.934137e+003,3.712717e-004
3.936065e+003,3.014300e-004
3.937994e+003,2.874900e-004
3.939922e+003,7.744599e-004
3.941851e+003,1.274377e-003
3.943780e+003,5.196594e-004
3.945708e+003,5.075131e-004
3.947636e+003,8.465778e-004
3.949565e+003,3.546942e-004
3.951493e+003,6.611831e-005
3.953422e+003,1.481697e-004
3.955351e+003,2.588816e-004
3.957279e+003,2.432372e-004
3.959208e+003,2.730750e-004
3.961136e+003,3.358256e-004
3.963064e+003,1.192167e-004
3.964993e+003,5.909614e-005
3.966921e+003,1.584794e-004
3.968850e+003,2.917051e-004
3.970779e+003,3.486015e-004
3.972707e+003,4.063565e-004
3.974635e+003,3.343150e-004
3.976564e+003,4.919618e-005
3.978492e+003,-6.157532e-005
3.980421e+003,8.367933e-005
3.982349e+003,8.735806e-005
3.984278e+003,-3.910065e-005
3.986207e+003,-3.507547e-005
3.988135e+003,1.492053e-004
3.990063e+003,9.364635e-005
3.991992e+003,-6.928295e-005
3.993920e+003,-6.491318e-006
3.995849e+003,-2.688915e-005
3.997777e+003,-4.476123e-005
3.999706e+003,-8.563511e-005
4.001635e+003,0.000000e+000
