3.991992e+002,0.000000e+000
4.011277e+002,0.000000e+000
4.030562e+002,0.000000e+000
4.049846e+002,0.000000e+000
4.069131e+002,0.000000e+000
4.088416e+002,0.000000e+000
4.107701e+002,0.000000e+000
4.126986e+002,0.000000e+000
4.146271e+002,0.000000e+000
4.165556e+002,0.000000e+000
4.184841e+002,0.000000e+000
4.204126e+002,0.000000e+000
4.223411e+002,0.000000e+000
4.242697e+002,0.000000e+000
4.261982e+002,0.000000e+000
4.281266e+002,0.000000e+000
4.300551e+002,0.000000e+000
4.319836e+002,0.000000e+000
4.339121e+002,0.000000e+000
4.358406e+002,0.000000e+000
4.377691e+002,0.000000e+000
4.396976e+002,0.000000e+000
4.416261e+002,0.000000e+000
4.435546e+002,0.000000e+000
4.454831e+002,0.000000e+000
4.474116e+002,0.000000e+000
4.493401e+002,0.000000e+000
4.512686e+002,0.000000e+000
4.531971e+002,0.000000e+000
4.551256e+002,0.000000e+000
4.570541e+002,0.000000e+000
4.589826e+002,0.000000e+000
4.609111e+002,0.000000e+000
4.628396e+002,0.000000e+000
4.647681e+002,0.000000e+000
4.666966e+002,0.000000e+000
4.686251e+002,0.000000e+000
4.705536e+002,0.000000e+000
4.724821e+002,0.000000e+000
4.744106e+002,0.000000e+000
4.763391e+002,0.000000e+000
4.782676e+002,0.000000e+000
4.801961e+002,0.000000e+000
4.821246e+002,0.000000e+000
4.840531e+002,0.000000e+000
4.859816e+002,0.000000e+000
4.879101e+002,0.000000e+000
4.898386e+002,0.000000e+000
4.917671e+002,0.000000e+000
4.936956e+002,0.000000e+000
4.956241e+002,0.000000e+000
4.975526e+002,0.000000e+000
4.994811e+002,0.000000e+000
5.014096e+002,0.000000e+000
5.033381e+002,0.000000e+000
5.052666e+002,0.000000e+000
5.071951e+002,0.000000e+000
5.091236e+002,0.000000e+000
5.110521e+002,0.000000e+000
5.129806e+002,0.000000e+000
5.149091e+002,0.000000e+000
5.168376e+002,0.000000e+000
5.187661e+002,0.000000e+000
5.206946e+002,0.000000e+000
5.226230e+002,0.000000e+000
5.245516e+002,-5.146682e-004
5.264800e+002,-6.821331e-004
5.284086e+002,-6.263242e-004
5.303370e+002,-6.380696e-004
5.322656e+002,-6.474834e-004
5.341940e+002,-7.308956e-004
5.361226e+002,-5.471869e-004
5.380510e+002,-4.463512e-004
5.399796e+002,-5.037097e-004
5.419081e+002,-5.050317e-004
5.438365e+002,-5.219514e-004
5.457650e+002,-5.909507e-004
5.476935e+002,-5.352756e-004
5.496221e+002,-5.631843e-004
5.515505e+002,-6.279732e-004
5.534790e+002,-5.539916e-004
5.554075e+002,-3.719768e-004
5.573361e+002,-3.767000e-004
5.592645e+002,-5.447933e-004
5.611931e+002,-5.397997e-004
5.631215e+002,-4.466029e-004
5.650500e+002,-5.104431e-004
5.669785e+002,-5.113042e-004
5.689070e+002,-4.004753e-004
5.708355e+002,-3.306759e-004
5.727640e+002,-4.846482e-004
5.746925e+002,-7.829987e-004
5.766210e+002,-9.188247e-004
5.785495e+002,-8.330191e-004
5.804780e+002,-7.286259e-004
5.824065e+002,-6.568910e-004
5.843350e+002,-6.766520e-004
5.862635e+002,-5.493423e-004
5.881920e+002,-5.326847e-004
5.901205e+002,-6.350524e-004
5.920490e+002,-7.811217e-004
5.939775e+002,-7.210642e-004
5.959060e+002,-6.375676e-004
5.978345e+002,-6.577884e-004
5.997630e+002,-6.313007e-004
6.016915e+002,-3.835133e-004
6.036200e+002,-3.255996e-004
6.055485e+002,-2.521491e-004
6.074770e+002,-2.709586e-004
6.094055e+002,-4.518259e-004
6.113340e+002,-6.012334e-004
6.132625e+002,-5.356645e-004
6.151910e+002,-6.387851e-004
6.171195e+002,-7.613336e-004
6.190480e+002,-7.766249e-004
6.209765e+002,-7.201771e-004
6.229050e+002,-6.196959e-004
6.248335e+002,-5.151022e-004
6.267620e+002,-4.941236e-004
6.286905e+002,-4.316769e-004
6.306190e+002,-3.795261e-004
6.325475e+002,-3.048325e-004
6.344760e+002,-3.441697e-004
6.364045e+002,-3.069019e-004
6.383330e+002,-2.194959e-004
6.402615e+002,-2.312928e-005
6.421899e+002,-5.026045e-005
6.441185e+002,-1.292330e-004
6.460470e+002,-1.883076e-005
6.479755e+002,7.910666e-005
6.499039e+002,5.106814e-005
6.518325e+002,1.067850e-004
6.537610e+002,1.047400e-005
6.556895e+002,7.230358e-005
6.576179e+002,2.567340e-004
6.595464e+002,3.350431e-004
6.614750e+002,3.371898e-004
6.634034e+002,3.129388e-004
6.653319e+002,3.201712e-004
6.672604e+002,5.093080e-004
6.691890e+002,5.188980e-004
6.711174e+002,4.655635e-004
6.730460e+002,4.723498e-004
6.749745e+002,6.508271e-004
6.769030e+002,7.990927e-004
6.788314e+002,9.723937e-004
6.807599e+002,1.037457e-003
6.826885e+002,1.148223e-003
6.846169e+002,1.334724e-003
6.865454e+002,1.592550e-003
6.884739e+002,1.786502e-003
6.904025e+002,2.065397e-003
6.923309e+002,2.339775e-003
6.942594e+002,2.813688e-003
6.961879e+002,3.340733e-003
6.981165e+002,4.000442e-003
7.000449e+002,4.854318e-003
7.019734e+002,6.095651e-003
7.039019e+002,7.628155e-003
7.058304e+002,9.779656e-003
7.077589e+002,1.269021e-002
7.096874e+002,1.719930e-002
7.116159e+002,2.460597e-002
7.135444e+002,3.891338e-002
7.154729e+002,6.424172e-002
7.174014e+002,9.650942e-002
7.193299e+002,1.098858e-001
7.212584e+002,8.421195e-002
7.231869e+002,5.742936e-002
7.251154e+002,4.819860e-002
7.270439e+002,5.329913e-002
7.289724e+002,6.758316e-002
7.309009e+002,6.184969e-002
7.328294e+002,3.515676e-002
7.347579e+002,1.842282e-002
7.366864e+002,1.237671e-002
7.386149e+002,9.663553e-003
7.405434e+002,8.059753e-003
7.424719e+002,7.092312e-003
7.444004e+002,6.294426e-003
7.463289e+002,5.694325e-003
7.482574e+002,5.093101e-003
7.501859e+002,4.633651e-003
7.521144e+002,4.353950e-003
7.540428e+002,4.240691e-003
7.559714e+002,3.959526e-003
7.578999e+002,3.699762e-003
7.598284e+002,3.568934e-003
7.617568e+002,3.520747e-003
7.636854e+002,3.496257e-003
7.656139e+002,3.456665e-003
7.675424e+002,3.348451e-003
7.694709e+002,3.244317e-003
7.713994e+002,3.165663e-003
7.733279e+002,3.036675e-003
7.752563e+002,2.924152e-003
7.771849e+002,2.854534e-003
7.791134e+002,2.757404e-003
7.810419e+002,2.687339e-003
7.829703e+002,2.570202e-003
7.848989e+002,2.361934e-003
7.868274e+002,2.297332e-003
7.887559e+002,2.249720e-003
7.906843e+002,2.198418e-003
7.926129e+002,2.198174e-003
7.945414e+002,2.161660e-003
7.964698e+002,2.208232e-003
7.983983e+002,2.233125e-003
8.003268e+002,2.145602e-003
8.022554e+002,2.129206e-003
8.041838e+002,2.125889e-003
8.061123e+002,2.057635e-003
8.080408e+002,2.002398e-003
8.099694e+002,1.890650e-003
8.118978e+002,1.806066e-003
8.138263e+002,1.733540e-003
8.157548e+002,1.603733e-003
8.176833e+002,1.555356e-003
8.196118e+002,1.473998e-003
8.215403e+002,1.448502e-003
8.234689e+002,1.401330e-003
8.253973e+002,1.417311e-003
8.273258e+002,1.383496e-003
8.292543e+002,1.332559e-003
8.311829e+002,1.294777e-003
8.331113e+002,1.277545e-003
8.350398e+002,1.223914e-003
8.369683e+002,1.215445e-003
8.388969e+002,1.201701e-003
8.408253e+002,1.237258e-003
8.427538e+002,1.368229e-003
8.446823e+002,1.407653e-003
8.466108e+002,1.275007e-003
8.485393e+002,1.258495e-003
8.504678e+002,1.273550e-003
8.523963e+002,1.317375e-003
8.543248e+002,1.392139e-003
8.562533e+002,1.435432e-003
8.581818e+002,1.411279e-003
8.601103e+002,1.388651e-003
8.620388e+002,1.402945e-003
8.639673e+002,1.462134e-003
8.658958e+002,1.473243e-003
8.678243e+002,1.450303e-003
8.697528e+002,1.406961e-003
8.716813e+002,1.511120e-003
8.736098e+002,1.614653e-003
8.755383e+002,1.690384e-003
8.774668e+002,1.685617e-003
8.793953e+002,1.807005e-003
8.813238e+002,2.050513e-003
8.832523e+002,2.374622e-003
8.851808e+002,2.548328e-003
8.871093e+002,2.633251e-003
8.890378e+002,2.600096e-003
8.909663e+002,2.496680e-003
8.928948e+002,2.362650e-003
8.948232e+002,2.230600e-003
8.967518e+002,2.243215e-003
8.986803e+002,2.155604e-003
9.006088e+002,1.974026e-003
9.025372e+002,2.005078e-003
9.044658e+002,2.239317e-003
9.063943e+002,2.493668e-003
9.083228e+002,2.518094e-003
9.102512e+002,2.463356e-003
9.121797e+002,2.219355e-003
9.141083e+002,2.049044e-003
9.160367e+002,1.907557e-003
9.179653e+002,1.843668e-003
9.198937e+002,1.923095e-003
9.218223e+002,1.928197e-003
9.237507e+002,1.852346e-003
9.256793e+002,1.798983e-003
9.276077e+002,1.852967e-003
9.295363e+002,1.890845e-003
9.314647e+002,1.807208e-003
9.333932e+002,1.838620e-003
9.353217e+002,1.908413e-003
9.372502e+002,2.012712e-003
9.391787e+002,1.965633e-003
9.411072e+002,1.930869e-003
9.430358e+002,1.815727e-003
9.449642e+002,1.836436e-003
9.468928e+002,1.830845e-003
9.488212e+002,1.861904e-003
9.507498e+002,1.877883e-003
9.526782e+002,1.922812e-003
9.546068e+002,1.960487e-003
9.565352e+002,2.042538e-003
9.584637e+002,2.095371e-003
9.603922e+002,2.203055e-003
9.623207e+002,2.243771e-003
9.642492e+002,2.271405e-003
9.661777e+002,2.286328e-003
9.681062e+002,2.329165e-003
9.700347e+002,2.257863e-003
9.719632e+002,2.172590e-003
9.738917e+002,2.164702e-003
9.758202e+002,2.205160e-003
9.777487e+002,2.154282e-003
9.796772e+002,2.155953e-003
9.816057e+002,2.203115e-003
9.835342e+002,2.294016e-003
9.854627e+002,2.383754e-003
9.873912e+002,2.509984e-003
9.893197e+002,2.602768e-003
9.912482e+002,2.692797e-003
9.931767e+002,2.723541e-003
9.951052e+002,2.804888e-003
9.970337e+002,2.857770e-003
9.989622e+002,2.959286e-003
1.000891e+003,3.050554e-003
1.002819e+003,3.162339e-003
1.004748e+003,3.317807e-003
1.006676e+003,3.509813e-003
1.008605e+003,3.640014e-003
1.010533e+003,3.857959e-003
1.012462e+003,4.109313e-003
1.014390e+003,4.369336e-003
1.016319e+003,4.552379e-003
1.018247e+003,4.675351e-003
1.020176e+003,4.644161e-003
1.022104e+003,4.636461e-003
1.024033e+003,4.614286e-003
1.025961e+003,4.610977e-003
1.027890e+003,4.578003e-003
1.029818e+003,4.665492e-003
1.031747e+003,4.713343e-003
1.033675e+003,4.815089e-003
1.035604e+003,4.898136e-003
1.037532e+003,4.974965e-003
1.039461e+003,5.019186e-003
1.041389e+003,5.129447e-003
1.043318e+003,5.224459e-003
1.045246e+003,5.338358e-003
1.047175e+003,5.418786e-003
1.049103e+003,5.498115e-003
1.051032e+003,5.503974e-003
1.052960e+003,5.451374e-003
1.054889e+003,5.367022e-003
1.056817e+003,5.395874e-003
1.058746e+003,5.459084e-003
1.060674e+003,5.562544e-003
1.062603e+003,5.623490e-003
1.064531e+003,5.694208e-003
1.066460e+003,5.654606e-003
1.068388e+003,5.661595e-003
1.070317e+003,5.699435e-003
1.072245e+003,5.854659e-003
1.074174e+003,6.033939e-003
1.076102e+003,6.252248e-003
1.078031e+003,6.398091e-003
1.079959e+003,6.511052e-003
1.081888e+003,6.509278e-003
1.083816e+003,6.548270e-003
1.085745e+003,6.487727e-003
1.087673e+003,6.417006e-003
1.089602e+003,6.321453e-003
1.091530e+003,6.270802e-003
1.093459e+003,6.185718e-003
1.095387e+003,6.124015e-003
1.097316e+003,5.997092e-003
1.099244e+003,5.868001e-003
1.101173e+003,5.724288e-003
1.103101e+003,5.646729e-003
1.105030e+003,5.504416e-003
1.106958e+003,5.412987e-003
1.108887e+003,5.326705e-003
1.110815e+003,5.330540e-003
1.112744e+003,5.286073e-003
1.114672e+003,5.324023e-003
1.116601e+003,5.326945e-003
1.118529e+003,5.310666e-003
1.120458e+003,5.260482e-003
1.122386e+003,5.271745e-003
1.124315e+003,5.163363e-003
1.126243e+003,5.114479e-003
1.128172e+003,5.118157e-003
1.130100e+003,5.197381e-003
1.132029e+003,5.177741e-003
1.133957e+003,5.266342e-003
1.135885e+003,5.370117e-003
1.137814e+003,5.476986e-003
1.139743e+003,5.589218e-003
1.141671e+003,5.693830e-003
1.143600e+003,5.747602e-003
1.145528e+003,5.881744e-003
1.147457e+003,6.009107e-003
1.149385e+003,6.239947e-003
1.151314e+003,6.467651e-003
1.153242e+003,6.717913e-003
1.155171e+003,6.902730e-003
1.157099e+003,7.088233e-003
1.159028e+003,7.194315e-003
1.160956e+003,7.271741e-003
1.162885e+003,7.205776e-003
1.164813e+003,7.150266e-003
1.166742e+003,7.013881e-003
1.168670e+003,6.882597e-003
1.170599e+003,6.635745e-003
1.172527e+003,6.397715e-003
1.174456e+003,6.209860e-003
1.176384e+003,6.137850e-003
1.178313e+003,5.910398e-003
1.180241e+003,5.672970e-003
1.182170e+003,5.450311e-003
1.184098e+003,5.369876e-003
1.186027e+003,5.314115e-003
1.187955e+003,5.327478e-003
1.189884e+003,5.268462e-003
1.191812e+003,5.270880e-003
1.193740e+003,5.265703e-003
1.195669e+003,5.369070e-003
1.197598e+003,5.428713e-003
1.199526e+003,5.488096e-003
1.201455e+003,5.526865e-003
1.203383e+003,5.639290e-003
1.205312e+003,5.738273e-003
1.207240e+003,5.933671e-003
1.209168e+003,6.075235e-003
1.211097e+003,6.254743e-003
1.213026e+003,6.393127e-003
1.214954e+003,6.588893e-003
1.216883e+003,6.725266e-003
1.218811e+003,6.911862e-003
1.220740e+003,7.089211e-003
1.222668e+003,7.303861e-003
1.224596e+003,7.443343e-003
1.226525e+003,7.634748e-003
1.228453e+003,7.763866e-003
1.230382e+003,7.944355e-003
1.232311e+003,8.095974e-003
1.234239e+003,8.233757e-003
1.236167e+003,8.285727e-003
1.238096e+003,8.367704e-003
1.240025e+003,8.325896e-003
1.241953e+003,8.298274e-003
1.243882e+003,8.161535e-003
1.245810e+003,8.075658e-003
1.247739e+003,7.901534e-003
1.249667e+003,7.812276e-003
1.251595e+003,7.692856e-003
1.253524e+003,7.675096e-003
1.255453e+003,7.640655e-003
1.257381e+003,7.710493e-003
1.259310e+003,7.731549e-003
1.261238e+003,7.738078e-003
1.263167e+003,7.611019e-003
1.265095e+003,7.496079e-003
1.267023e+003,7.351337e-003
1.268952e+003,7.291009e-003
1.270880e+003,7.205805e-003
1.272809e+003,7.270752e-003
1.274738e+003,7.300469e-003
1.276666e+003,7.400016e-003
1.278594e+003,7.413132e-003
1.280523e+003,7.515846e-003
1.282451e+003,7.645050e-003
1.284380e+003,7.821534e-003
1.286308e+003,7.937012e-003
1.288237e+003,8.192561e-003
1.290166e+003,8.487350e-003
1.292094e+003,8.888115e-003
1.294022e+003,9.218401e-003
1.295951e+003,9.612687e-003
1.297879e+003,9.915728e-003
1.299808e+003,1.021187e-002
1.301736e+003,1.029759e-002
1.303665e+003,1.032328e-002
1.305594e+003,1.023523e-002
1.307522e+003,1.014307e-002
1.309450e+003,9.875653e-003
1.311379e+003,9.574007e-003
1.313307e+003,9.095136e-003
1.315236e+003,8.720109e-003
1.317164e+003,8.268126e-003
1.319093e+003,7.931031e-003
1.321021e+003,7.547772e-003
1.322950e+003,7.305032e-003
1.324878e+003,7.048327e-003
1.326807e+003,6.938592e-003
1.328735e+003,6.832477e-003
1.330664e+003,6.955761e-003
1.332592e+003,7.220752e-003
1.334521e+003,7.749496e-003
1.336449e+003,8.289106e-003
1.338378e+003,8.979768e-003
1.340306e+003,9.665028e-003
1.342235e+003,1.031733e-002
1.344163e+003,1.081956e-002
1.346092e+003,1.150149e-002
1.348021e+003,1.214751e-002
1.349949e+003,1.284249e-002
1.351877e+003,1.317638e-002
1.353806e+003,1.322380e-002
1.355734e+003,1.301046e-002
1.357663e+003,1.310772e-002
1.359591e+003,1.343938e-002
1.361520e+003,1.415789e-002
1.363448e+003,1.531641e-002
1.365377e+003,1.665021e-002
1.367305e+003,1.762897e-002
1.369234e+003,1.816514e-002
1.371162e+003,1.793241e-002
1.373091e+003,1.817116e-002
1.375019e+003,2.014860e-002
1.376948e+003,2.181868e-002
1.378876e+003,2.017083e-002
1.380805e+003,1.579917e-002
1.382733e+003,1.149792e-002
1.384662e+003,8.902215e-003
1.386590e+003,7.228935e-003
1.388519e+003,6.490202e-003
1.390447e+003,6.054137e-003
1.392376e+003,5.917700e-003
1.394304e+003,5.566252e-003
1.396233e+003,5.589897e-003
1.398161e+003,5.465982e-003
1.400090e+003,5.759829e-003
1.402018e+003,5.781428e-003
1.403947e+003,5.963988e-003
1.405875e+003,5.908553e-003
1.407804e+003,6.185967e-003
1.409732e+003,6.227867e-003
1.411661e+003,6.653457e-003
1.413589e+003,6.874215e-003
1.415518e+003,7.266063e-003
1.417446e+003,7.265019e-003
1.419375e+003,7.969673e-003
1.421303e+003,8.460985e-003
1.423232e+003,9.516405e-003
1.425160e+003,1.093757e-002
1.427089e+003,1.297098e-002
1.429017e+003,1.537319e-002
1.430946e+003,1.918412e-002
1.432874e+003,2.229006e-002
1.434803e+003,2.525222e-002
1.436731e+003,2.833161e-002
1.438660e+003,3.154274e-002
1.440588e+003,3.345968e-002
1.442517e+003,3.608342e-002
1.444445e+003,3.811581e-002
1.446374e+003,4.091974e-002
1.448302e+003,4.479102e-002
1.450231e+003,5.102111e-002
1.452159e+003,5.999289e-002
1.454088e+003,7.127200e-002
1.456016e+003,8.178778e-002
1.457945e+003,1.054455e-001
1.459873e+003,1.465560e-001
1.461802e+003,1.916503e-001
1.463730e+003,1.980642e-001
1.465659e+003,1.590084e-001
1.467587e+003,1.458665e-001
1.469516e+003,1.445585e-001
1.471444e+003,1.615754e-001
1.473373e+003,1.365234e-001
1.475301e+003,7.405812e-002
1.477230e+003,3.398082e-002
1.479158e+003,2.219051e-002
1.481087e+003,1.620090e-002
1.483015e+003,1.347173e-002
1.484944e+003,1.120786e-002
1.486872e+003,1.026366e-002
1.488801e+003,8.280950e-003
1.490729e+003,8.067742e-003
1.492658e+003,7.289864e-003
1.494586e+003,7.296330e-003
1.496515e+003,6.214886e-003
1.498443e+003,6.261917e-003
1.500372e+003,5.670479e-003
1.502300e+003,5.814274e-003
1.504229e+003,5.243031e-003
1.506157e+003,4.943526e-003
1.508086e+003,3.643712e-003
1.510014e+003,4.511633e-003
1.511943e+003,4.351961e-003
1.513871e+003,4.646326e-003
1.515800e+003,4.195313e-003
1.517728e+003,4.401159e-003
1.519657e+003,3.986599e-003
1.521585e+003,4.094342e-003
1.523514e+003,3.798084e-003
1.525442e+003,4.110724e-003
1.527371e+003,3.930191e-003
1.529299e+003,4.222144e-003
1.531228e+003,3.977142e-003
1.533156e+003,4.011459e-003
1.535085e+003,3.838602e-003
1.537013e+003,4.144595e-003
1.538942e+003,3.887845e-003
1.540870e+003,3.858675e-003
1.542799e+003,3.334631e-003
1.544727e+003,3.671296e-003
1.546656e+003,3.686083e-003
1.548584e+003,3.827735e-003
1.550513e+003,3.643838e-003
1.552441e+003,3.822815e-003
1.554370e+003,3.591304e-003
1.556298e+003,3.659896e-003
1.558227e+003,2.862536e-003
1.560155e+003,3.004728e-003
1.562084e+003,3.202938e-003
1.564012e+003,3.415866e-003
1.565941e+003,3.242049e-003
1.567869e+003,3.282437e-003
1.569798e+003,3.100662e-003
1.571726e+003,3.380586e-003
1.573655e+003,3.315592e-003
1.575583e+003,3.320189e-003
1.577512e+003,3.204162e-003
1.579440e+003,3.461575e-003
1.581369e+003,3.428594e-003
1.583297e+003,3.519123e-003
1.585226e+003,3.487662e-003
1.587154e+003,3.545082e-003
1.589083e+003,3.459897e-003
1.591011e+003,3.553295e-003
1.592940e+003,3.459973e-003
1.594868e+003,3.504227e-003
1.596797e+003,3.492710e-003
1.598725e+003,3.583954e-003
1.600654e+003,3.448237e-003
1.602582e+003,3.492114e-003
1.604511e+003,3.409593e-003
1.606439e+003,3.432330e-003
1.608368e+003,3.320470e-003
1.610296e+003,3.423027e-003
1.612225e+003,3.406773e-003
1.614153e+003,3.488874e-003
1.616082e+003,3.301134e-003
1.618010e+003,3.417991e-003
1.619939e+003,3.474962e-003
1.621867e+003,3.547741e-003
1.623796e+003,3.478311e-003
1.625724e+003,3.698255e-003
1.627653e+003,3.685715e-003
1.629581e+003,3.982169e-003
1.631510e+003,4.178377e-003
1.633438e+003,4.365018e-003
1.635367e+003,3.968427e-003
1.637295e+003,3.981278e-003
1.639224e+003,4.197018e-003
1.641152e+003,4.440780e-003
1.643081e+003,4.430699e-003
1.645009e+003,4.329248e-003
1.646938e+003,3.857399e-003
1.648866e+003,4.145300e-003
1.650795e+003,4.082176e-003
1.652723e+003,3.741085e-003
1.654652e+003,3.684707e-003
1.656580e+003,4.046318e-003
1.658509e+003,3.984410e-003
1.660437e+003,3.961165e-003
1.662366e+003,3.723851e-003
1.664294e+003,3.658825e-003
1.666223e+003,3.445812e-003
1.668151e+003,3.301969e-003
1.670080e+003,2.960695e-003
1.672008e+003,2.857494e-003
1.673937e+003,2.562881e-003
1.675865e+003,2.575819e-003
1.677794e+003,2.690083e-003
1.679722e+003,2.695743e-003
1.681651e+003,2.371065e-003
1.683579e+003,2.175566e-003
1.685508e+003,1.802801e-003
1.687436e+003,1.906437e-003
1.689365e+003,1.808954e-003
1.691293e+003,1.944098e-003
1.693222e+003,1.942639e-003
1.695150e+003,1.849025e-003
1.697079e+003,1.435496e-003
1.699007e+003,1.433407e-003
1.700936e+003,1.283399e-003
1.702864e+003,1.644096e-003
1.704793e+003,1.607829e-003
1.706721e+003,1.757946e-003
1.708650e+003,1.862013e-003
1.710578e+003,2.103946e-003
1.712507e+003,2.176326e-003
1.714435e+003,2.181177e-003
1.716364e+003,1.912891e-003
1.718292e+003,2.325390e-003
1.720221e+003,2.743304e-003
1.722149e+003,3.020578e-003
1.724078e+003,3.049789e-003
1.726006e+003,3.130753e-003
1.727935e+003,3.030882e-003
1.729863e+003,3.042852e-003
1.731792e+003,2.936768e-003
1.733720e+003,2.928186e-003
1.735649e+003,3.450105e-003
1.737577e+003,4.007838e-003
1.739506e+003,4.446461e-003
1.741434e+003,5.023163e-003
1.743363e+003,5.495022e-003
1.745291e+003,6.122670e-003
1.747220e+003,6.279839e-003
1.749148e+003,6.136718e-003
1.751077e+003,5.470037e-003
1.753005e+003,4.858474e-003
1.754934e+003,4.176827e-003
1.756862e+003,3.270224e-003
1.758791e+003,2.477542e-003
1.760719e+003,1.884316e-003
1.762648e+003,1.100892e-003
1.764576e+003,9.661115e-004
1.766505e+003,7.356027e-004
1.768433e+003,5.466123e-004
1.770362e+003,3.954386e-004
1.772290e+003,2.998322e-004
1.774219e+003,1.124627e-004
1.776147e+003,1.972449e-004
1.778076e+003,2.106782e-004
1.780004e+003,2.715935e-004
1.781933e+003,1.379782e-004
1.783861e+003,1.567255e-004
1.785790e+003,9.428069e-005
1.787718e+003,2.046576e-004
1.789646e+003,2.468703e-006
1.791575e+003,-1.371448e-004
1.793504e+003,-1.720870e-004
1.795432e+003,-7.988967e-005
1.797361e+003,-1.767962e-004
1.799289e+003,-1.276821e-004
1.801218e+003,-2.074731e-004
1.803146e+003,-7.227308e-005
1.805074e+003,-6.905652e-005
1.807003e+003,-7.020659e-005
1.808932e+003,-1.922522e-004
1.810860e+003,-3.087422e-004
1.812789e+003,-5.503928e-004
1.814717e+003,-7.122094e-004
1.816646e+003,-9.003903e-004
1.818574e+003,-4.767587e-004
1.820502e+003,-4.156027e-004
1.822431e+003,-3.899847e-004
1.824360e+003,-4.753948e-004
1.826288e+003,-4.848763e-004
1.828217e+003,-8.009702e-004
1.830145e+003,-8.309630e-004
1.832073e+003,-8.274361e-004
1.834002e+003,-8.420264e-004
1.835931e+003,-1.029729e-003
1.837859e+003,-8.908117e-004
1.839788e+003,-1.071006e-003
1.841716e+003,-1.237619e-003
1.843645e+003,-1.644011e-003
1.845573e+003,-1.422378e-003
1.847501e+003,-1.418657e-003
1.849430e+003,-1.269007e-003
1.851359e+003,-1.102943e-003
1.853287e+003,-9.152652e-004
1.855216e+003,-1.145517e-003
1.857144e+003,-1.188374e-003
1.859073e+003,-1.439456e-003
1.861001e+003,-1.269398e-003
1.862929e+003,-1.275384e-003
1.864858e+003,-1.135945e-003
1.866787e+003,-1.298202e-003
1.868715e+003,-1.372615e-003
1.870644e+003,-1.518440e-003
1.872572e+003,-1.187517e-003
1.874500e+003,-1.276562e-003
1.876429e+003,-1.231848e-003
1.878357e+003,-1.481360e-003
1.880286e+003,-1.503697e-003
1.882215e+003,-1.553979e-003
1.884143e+003,-1.401624e-003
1.886072e+003,-1.600649e-003
1.888000e+003,-1.407478e-003
1.889928e+003,-1.232659e-003
1.891857e+003,-9.589144e-004
1.893785e+003,-9.921363e-004
1.895714e+003,-5.588587e-004
1.897643e+003,-5.588529e-004
1.899571e+003,-5.157290e-004
1.901500e+003,-5.114086e-004
1.903428e+003,-5.070947e-004
1.905356e+003,-5.027878e-004
1.907285e+003,-4.984871e-004
1.909213e+003,-4.941938e-004
1.911142e+003,-4.899073e-004
1.913071e+003,-4.856274e-004
1.914999e+003,-4.813545e-004
1.916927e+003,-4.770881e-004
1.918856e+003,-4.728285e-004
1.920784e+003,-4.685752e-004
1.922713e+003,-4.643293e-004
1.924641e+003,-4.600899e-004
1.926570e+003,-4.558575e-004
1.928499e+003,-4.516321e-004
1.930427e+003,-4.474127e-004
1.932355e+003,-4.432003e-004
1.934284e+003,-4.389950e-004
1.936212e+003,-4.347959e-004
1.938141e+003,-4.306040e-004
1.940070e+003,-4.264191e-004
1.941998e+003,-4.222402e-004
1.943927e+003,-4.180688e-004
1.945855e+003,-4.139035e-004
1.947783e+003,-4.097456e-004
1.949712e+003,-4.055942e-004
1.951640e+003,-4.014499e-004
1.953569e+003,-3.973120e-004
1.955498e+003,-3.931804e-004
1.957426e+003,-3.890560e-004
1.959354e+003,-3.849382e-004
1.961283e+003,-3.808278e-004
1.963211e+003,-3.767239e-004
1.965140e+003,-3.726266e-004
1.967068e+003,-3.685358e-004
1.968997e+003,-3.644524e-004
1.970926e+003,-3.603748e-004
1.972854e+003,-3.563045e-004
1.974782e+003,-3.522411e-004
1.976711e+003,-3.481847e-004
1.978639e+003,-3.441349e-004
1.980568e+003,-3.400911e-004
1.982496e+003,-3.360552e-004
1.984425e+003,-3.320249e-004
1.986354e+003,-3.280025e-004
1.988282e+003,-3.239862e-004
1.990210e+003,-3.199773e-004
1.992139e+003,-3.159742e-004
1.994067e+003,-3.119784e-004
1.995996e+003,-3.079886e-004
1.997924e+003,-3.040067e-004
1.999853e+003,-3.000314e-004
2.001781e+003,-2.960626e-004
2.003710e+003,-2.921007e-004
2.005638e+003,-2.881449e-004
2.007567e+003,-2.841963e-004
2.009495e+003,-2.802545e-004
2.011424e+003,-2.763197e-004
2.013352e+003,-2.723914e-004
2.015281e+003,-2.684700e-004
2.017209e+003,-2.645554e-004
2.019138e+003,-2.606474e-004
2.021066e+003,-2.567463e-004
2.022995e+003,-2.528515e-004
2.024923e+003,-2.489642e-004
2.026852e+003,-2.450834e-004
2.028781e+003,-2.412088e-004
2.030709e+003,-2.373420e-004
2.032637e+003,-2.334807e-004
2.034566e+003,-2.296269e-004
2.036494e+003,-2.257801e-004
2.038423e+003,-2.219398e-004
2.040351e+003,-2.181064e-004
2.042280e+003,-2.142796e-004
2.044208e+003,-2.104593e-004
2.046137e+003,-2.066460e-004
2.048065e+003,-2.028393e-004
2.049994e+003,-1.990399e-004
2.051922e+003,-1.952471e-004
2.053851e+003,-1.914606e-004
2.055779e+003,-1.876813e-004
2.057708e+003,-1.839085e-004
2.059636e+003,-1.801422e-004
2.061565e+003,-1.763834e-004
2.063493e+003,-1.726309e-004
2.065422e+003,-1.688856e-004
2.067350e+003,-1.651468e-004
2.069279e+003,-1.614140e-004
2.071207e+003,-1.576892e-004
2.073136e+003,-1.539700e-004
2.075064e+003,-1.502587e-004
2.076993e+003,-1.465534e-004
2.078921e+003,-1.428556e-004
2.080850e+003,-1.391643e-004
2.082778e+003,-1.354790e-004
2.084707e+003,-1.318010e-004
2.086635e+003,-1.281293e-004
2.088564e+003,-1.244650e-004
2.090492e+003,-1.208077e-004
2.092421e+003,-1.171569e-004
2.094349e+003,-1.135126e-004
2.096278e+003,-1.098749e-004
2.098206e+003,-1.062443e-004
2.100135e+003,-1.026201e-004
2.102063e+003,-9.900285e-005
2.103992e+003,-9.539304e-005
2.105920e+003,-9.178882e-005
2.107849e+003,-8.819206e-005
2.109777e+003,-8.460227e-005
2.111706e+003,-8.101901e-005
2.113634e+003,-7.744203e-005
2.115563e+003,-7.387227e-005
2.117491e+003,-7.030950e-005
2.119420e+003,-6.675278e-005
2.121348e+003,-6.320351e-005
2.123277e+003,-5.966122e-005
2.125205e+003,-5.612453e-005
2.127134e+003,-5.259574e-005
2.129062e+003,-4.907325e-005
2.130991e+003,-4.555751e-005
2.132919e+003,-4.204828e-005
2.134848e+003,-3.854651e-005
2.136776e+003,-3.505126e-005
2.138705e+003,-3.156206e-005
2.140633e+003,-2.808031e-005
2.142562e+003,-2.460531e-005
2.144490e+003,-2.113660e-005
2.146419e+003,-1.767534e-005
2.148347e+003,-1.422060e-005
2.150276e+003,-1.077238e-005
2.152204e+003,-7.331138e-006
2.154133e+003,-3.896421e-006
2.156061e+003,-4.691537e-007
2.157990e+003,2.952525e-006
2.159918e+003,6.366521e-006
2.161847e+003,9.773765e-006
2.163775e+003,1.317495e-005
2.165704e+003,1.656869e-005
2.167632e+003,1.995591e-005
2.169561e+003,2.333662e-005
2.171489e+003,2.671033e-005
2.173418e+003,3.007706e-005
2.175346e+003,3.343681e-005
2.177275e+003,3.679050e-005
2.179203e+003,4.013721e-005
2.181132e+003,4.347647e-005
2.183060e+003,4.681014e-005
2.184989e+003,5.013635e-005
2.186917e+003,5.345605e-005
2.188846e+003,5.676923e-005
2.190774e+003,6.007496e-005
2.192703e+003,6.337417e-005
2.194631e+003,6.666640e-005
2.196560e+003,6.995257e-005
2.198488e+003,7.323176e-005
2.200417e+003,7.650349e-005
2.202345e+003,7.976918e-005
2.204274e+003,8.302787e-005
2.206202e+003,8.627959e-005
2.208131e+003,8.952525e-005
2.210059e+003,9.276345e-005
2.211988e+003,9.599538e-005
2.213916e+003,9.922008e-005
2.215845e+003,1.024383e-004
2.217773e+003,1.056495e-004
2.219702e+003,1.088544e-004
2.221630e+003,1.120523e-004
2.223559e+003,1.152430e-004
2.225487e+003,1.184274e-004
2.227416e+003,1.216051e-004
2.229344e+003,1.247758e-004
2.231273e+003,1.279400e-004
2.233201e+003,1.310967e-004
2.235130e+003,1.342478e-004
2.237058e+003,1.373910e-004
2.238987e+003,1.405282e-004
2.240915e+003,1.436585e-004
2.242844e+003,1.467821e-004
2.244772e+003,1.498986e-004
2.246701e+003,1.530092e-004
2.248629e+003,1.561118e-004
2.250558e+003,1.592080e-004
2.252486e+003,1.622981e-004
2.254415e+003,1.653808e-004
2.256343e+003,1.684565e-004
2.258272e+003,1.715256e-004
2.260200e+003,1.745888e-004
2.262129e+003,1.776447e-004
2.264057e+003,1.806933e-004
2.265986e+003,1.837361e-004
2.267914e+003,1.867717e-004
2.269843e+003,1.898004e-004
2.271771e+003,1.928224e-004
2.273700e+003,1.958376e-004
2.275628e+003,1.988460e-004
2.277557e+003,2.018476e-004
2.279485e+003,2.048428e-004
2.281414e+003,2.078309e-004
2.283342e+003,2.108122e-004
2.285271e+003,2.137872e-004
2.287199e+003,2.167549e-004
2.289128e+003,2.197162e-004
2.291056e+003,2.226707e-004
2.292985e+003,2.256180e-004
2.294913e+003,2.285587e-004
2.296842e+003,2.314928e-004
2.298770e+003,2.344204e-004
2.300699e+003,2.373410e-004
2.302627e+003,2.402548e-004
2.304556e+003,2.431619e-004
2.306484e+003,2.460621e-004
2.308413e+003,2.489553e-004
2.310341e+003,2.518424e-004
2.312270e+003,2.547225e-004
2.314198e+003,2.575952e-004
2.316127e+003,2.604618e-004
2.318055e+003,2.633219e-004
2.319984e+003,2.661748e-004
2.321912e+003,2.690209e-004
2.323841e+003,2.718605e-004
2.325769e+003,2.746931e-004
2.327698e+003,2.775188e-004
2.329626e+003,2.803382e-004
2.331555e+003,2.831505e-004
2.333483e+003,2.859558e-004
2.335412e+003,2.887549e-004
2.337340e+003,2.915470e-004
2.339269e+003,2.943322e-004
2.341197e+003,2.971103e-004
2.343126e+003,2.998824e-004
2.345054e+003,3.026475e-004
2.346983e+003,3.054057e-004
2.348911e+003,3.081573e-004
2.350840e+003,3.109020e-004
2.352768e+003,3.136401e-004
2.354697e+003,3.163716e-004
2.356625e+003,3.190958e-004
2.358554e+003,3.218134e-004
2.360482e+003,3.245240e-004
2.362411e+003,3.272286e-004
2.364339e+003,3.299258e-004
2.366268e+003,3.326163e-004
2.368196e+003,3.353005e-004
2.370125e+003,3.379775e-004
2.372053e+003,3.406476e-004
2.373982e+003,3.433113e-004
2.375910e+003,3.459679e-004
2.377839e+003,3.486181e-004
2.379767e+003,3.512611e-004
2.381696e+003,3.538983e-004
2.383624e+003,3.565279e-004
2.385553e+003,3.591505e-004
2.387481e+003,3.617670e-004
2.389410e+003,3.643766e-004
2.391338e+003,3.669789e-004
2.393267e+003,3.695753e-004
2.395195e+003,3.721645e-004
2.397124e+003,3.747466e-004
2.399052e+003,3.773222e-004
2.400981e+003,1.965440e-004
2.402909e+003,2.034940e-004
2.404838e+003,3.846301e-004
2.406766e+003,5.006376e-004
2.408695e+003,6.656058e-004
2.410623e+003,6.919137e-004
2.412552e+003,7.948895e-004
2.414480e+003,8.560068e-004
2.416409e+003,9.139393e-004
2.418337e+003,8.579204e-004
2.420266e+003,7.987650e-004
2.422194e+003,7.117016e-004
2.424123e+003,7.315697e-004
2.426051e+003,7.780336e-004
2.427979e+003,8.468203e-004
2.429908e+003,7.926917e-004
2.431837e+003,7.849012e-004
2.433765e+003,7.581664e-004
2.435694e+003,6.860938e-004
2.437622e+003,5.950354e-004
2.439551e+003,6.417561e-004
2.441479e+003,5.391205e-004
2.443407e+003,4.772216e-004
2.445336e+003,3.768045e-004
2.447265e+003,4.932445e-004
2.449193e+003,5.903477e-004
2.451122e+003,6.451133e-004
2.453050e+003,5.542063e-004
2.454979e+003,6.393085e-004
2.456907e+003,7.409668e-004
2.458836e+003,7.100105e-004
2.460764e+003,6.627176e-004
2.462693e+003,6.480176e-004
2.464621e+003,5.025088e-004
2.466550e+003,5.679370e-004
2.468478e+003,6.964321e-004
2.470406e+003,6.976241e-004
2.472335e+003,7.002013e-004
2.474264e+003,7.744897e-004
2.476192e+003,7.775279e-004
2.478121e+003,8.828177e-004
2.480049e+003,9.497822e-004
2.481978e+003,9.821850e-004
2.483906e+003,9.205939e-004
2.485835e+003,1.055023e-003
2.487763e+003,9.846472e-004
2.489692e+003,9.613709e-004
2.491620e+003,1.056133e-003
2.493549e+003,1.110438e-003
2.495477e+003,1.005416e-003
2.497406e+003,1.112154e-003
2.499334e+003,1.337290e-003
2.501263e+003,1.347250e-003
2.503191e+003,1.185526e-003
2.505120e+003,1.243464e-003
2.507048e+003,1.306135e-003
2.508977e+003,1.358517e-003
2.510905e+003,1.478311e-003
2.512833e+003,1.584066e-003
2.514762e+003,1.649265e-003
2.516691e+003,1.814994e-003
2.518619e+003,1.816070e-003
2.520548e+003,1.900539e-003
2.522476e+003,2.155520e-003
2.524405e+003,2.307134e-003
2.526333e+003,2.279931e-003
2.528261e+003,2.237350e-003
2.530190e+003,2.101485e-003
2.532119e+003,2.053828e-003
2.534047e+003,2.099020e-003
2.535976e+003,2.129319e-003
2.537904e+003,2.177567e-003
2.539833e+003,2.375845e-003
2.541761e+003,2.522056e-003
2.543689e+003,2.741010e-003
2.545618e+003,2.856190e-003
2.547547e+003,2.872395e-003
2.549475e+003,2.969503e-003
2.551404e+003,3.204996e-003
2.553332e+003,3.425896e-003
2.555260e+003,3.410602e-003
2.557189e+003,3.437005e-003
2.559117e+003,3.901599e-003
2.561046e+003,4.155241e-003
2.562975e+003,4.166686e-003
2.564903e+003,4.082799e-003
2.566832e+003,4.008238e-003
2.568760e+003,4.190493e-003
2.570688e+003,4.489017e-003
2.572617e+003,4.686229e-003
2.574546e+003,4.937286e-003
2.576474e+003,5.283512e-003
2.578403e+003,5.621784e-003
2.580331e+003,5.772306e-003
2.582260e+003,5.920656e-003
2.584188e+003,6.005664e-003
2.586116e+003,6.148485e-003
2.588045e+003,6.363811e-003
2.589974e+003,6.604641e-003
2.591902e+003,6.879496e-003
2.593831e+003,7.126157e-003
2.595759e+003,7.367089e-003
2.597688e+003,7.672498e-003
2.599616e+003,7.881820e-003
2.601544e+003,8.071549e-003
2.603473e+003,8.303897e-003
2.605402e+003,8.490356e-003
2.607330e+003,8.749301e-003
2.609259e+003,9.067375e-003
2.611187e+003,9.328535e-003
2.613115e+003,9.670032e-003
2.615044e+003,1.017796e-002
2.616972e+003,1.055329e-002
2.618901e+003,1.088846e-002
2.620830e+003,1.133324e-002
2.622758e+003,1.172258e-002
2.624687e+003,1.207138e-002
2.626615e+003,1.252061e-002
2.628543e+003,1.303835e-002
2.630472e+003,1.350644e-002
2.632400e+003,1.387944e-002
2.634329e+003,1.407466e-002
2.636258e+003,1.415915e-002
2.638186e+003,1.409625e-002
2.640115e+003,1.409069e-002
2.642043e+003,1.412216e-002
2.643971e+003,1.410444e-002
2.645900e+003,1.408978e-002
2.647828e+003,1.409804e-002
2.649757e+003,1.419268e-002
2.651686e+003,1.441139e-002
2.653614e+003,1.458644e-002
2.655542e+003,1.473276e-002
2.657471e+003,1.477621e-002
2.659399e+003,1.473732e-002
2.661328e+003,1.461448e-002
2.663256e+003,1.444464e-002
2.665185e+003,1.426110e-002
2.667114e+003,1.412935e-002
2.669042e+003,1.395586e-002
2.670970e+003,1.379697e-002
2.672899e+003,1.364984e-002
2.674827e+003,1.348326e-002
2.676756e+003,1.327992e-002
2.678685e+003,1.314018e-002
2.680613e+003,1.304864e-002
2.682542e+003,1.294817e-002
2.684470e+003,1.278526e-002
2.686398e+003,1.265355e-002
2.688327e+003,1.258293e-002
2.690255e+003,1.249485e-002
2.692184e+003,1.234158e-002
2.694113e+003,1.220502e-002
2.696041e+003,1.214717e-002
2.697969e+003,1.220389e-002
2.699898e+003,1.230534e-002
2.701826e+003,1.245811e-002
2.703755e+003,1.261780e-002
2.705683e+003,1.276242e-002
2.707612e+003,1.294455e-002
2.709541e+003,1.311272e-002
2.711469e+003,1.324097e-002
2.713397e+003,1.340106e-002
2.715326e+003,1.356329e-002
2.717254e+003,1.379220e-002
2.719183e+003,1.401291e-002
2.721111e+003,1.424926e-002
2.723040e+003,1.456955e-002
2.724969e+003,1.493763e-002
2.726897e+003,1.528623e-002
2.728825e+003,1.554652e-002
2.730754e+003,1.567179e-002
2.732682e+003,1.576782e-002
2.734611e+003,1.592713e-002
2.736539e+003,1.613114e-002
2.738468e+003,1.626522e-002
2.740396e+003,1.634556e-002
2.742325e+003,1.628063e-002
2.744253e+003,1.621284e-002
2.746182e+003,1.618571e-002
2.748110e+003,1.619703e-002
2.750039e+003,1.619775e-002
2.751967e+003,1.625481e-002
2.753896e+003,1.645355e-002
2.755824e+003,1.675766e-002
2.757753e+003,1.702376e-002
2.759681e+003,1.737694e-002
2.761610e+003,1.777813e-002
2.763538e+003,1.816812e-002
2.765467e+003,1.863686e-002
2.767395e+003,1.915522e-002
2.769324e+003,1.966351e-002
2.771252e+003,2.026048e-002
2.773181e+003,2.094066e-002
2.775109e+003,2.171090e-002
2.777038e+003,2.260223e-002
2.778966e+003,2.358912e-002
2.780895e+003,2.467623e-002
2.782823e+003,2.582330e-002
2.784752e+003,2.711049e-002
2.786680e+003,2.854059e-002
2.788609e+003,3.006155e-002
2.790537e+003,3.167227e-002
2.792466e+003,3.338028e-002
2.794394e+003,3.514949e-002
2.796323e+003,3.697139e-002
2.798251e+003,3.889827e-002
2.800180e+003,4.089942e-002
2.802108e+003,4.298541e-002
2.804037e+003,4.519993e-002
2.805965e+003,4.759863e-002
2.807894e+003,5.030533e-002
2.809822e+003,5.337654e-002
2.811751e+003,5.677595e-002
2.813679e+003,6.064906e-002
2.815608e+003,6.516887e-002
2.817536e+003,7.040621e-002
2.819465e+003,7.647061e-002
2.821393e+003,8.369184e-002
2.823322e+003,9.245578e-002
2.825250e+003,1.032511e-001
2.827179e+003,1.170421e-001
2.829107e+003,1.349122e-001
2.831036e+003,1.586731e-001
2.832964e+003,1.912626e-001
2.834893e+003,2.376090e-001
2.836821e+003,3.041916e-001
2.838750e+003,4.009570e-001
2.840678e+003,5.443167e-001
2.842607e+003,7.551352e-001
2.844535e+003,1.043343e+000
2.846464e+003,1.338739e+000
2.848392e+003,1.397304e+000
2.850321e+003,1.143653e+000
2.852249e+003,8.450872e-001
2.854178e+003,6.318482e-001
2.856106e+003,4.883264e-001
2.858035e+003,3.877504e-001
2.859963e+003,3.159771e-001
2.861892e+003,2.655247e-001
2.863820e+003,2.317451e-001
2.865749e+003,2.114585e-001
2.867677e+003,2.016557e-001
2.869606e+003,1.989843e-001
2.871534e+003,2.001523e-001
2.873463e+003,2.043369e-001
2.875391e+003,2.132731e-001
2.877320e+003,2.284045e-001
2.879248e+003,2.496018e-001
2.881177e+003,2.758958e-001
2.883105e+003,3.063291e-001
2.885034e+003,3.402967e-001
2.886962e+003,3.770698e-001
2.888891e+003,4.158130e-001
2.890819e+003,4.553072e-001
2.892748e+003,4.949673e-001
2.894676e+003,5.344963e-001
2.896605e+003,5.747179e-001
2.898533e+003,6.173384e-001
2.900462e+003,6.650525e-001
2.902390e+003,7.224868e-001
2.904319e+003,7.966890e-001
2.906247e+003,8.970164e-001
2.908176e+003,1.033286e+000
2.910104e+003,1.209862e+000
2.912033e+003,1.406844e+000
2.913961e+003,1.553092e+000
2.915890e+003,1.554839e+000
2.917818e+003,1.406479e+000
2.919747e+003,1.199106e+000
2.921675e+003,1.003515e+000
2.923604e+003,8.413809e-001
2.925532e+003,7.115678e-001
2.927461e+003,6.060300e-001
2.929389e+003,5.175537e-001
2.931318e+003,4.418724e-001
2.933246e+003,3.766065e-001
2.935175e+003,3.204413e-001
2.937103e+003,2.723862e-001
2.939032e+003,2.315035e-001
2.940960e+003,1.972182e-001
2.942889e+003,1.693282e-001
2.944817e+003,1.479560e-001
2.946746e+003,1.328658e-001
2.948674e+003,1.234749e-001
2.950603e+003,1.183534e-001
2.952531e+003,1.151662e-001
2.954460e+003,1.119574e-001
2.956388e+003,1.078128e-001
2.958317e+003,1.023934e-001
2.960245e+003,9.580572e-002
2.962174e+003,8.819313e-002
2.964102e+003,7.989132e-002
2.966031e+003,7.132138e-002
2.967959e+003,6.303669e-002
2.969888e+003,5.546185e-002
2.971816e+003,4.882655e-002
2.973745e+003,4.314900e-002
2.975673e+003,3.848204e-002
2.977602e+003,3.463446e-002
2.979530e+003,3.144533e-002
2.981459e+003,2.882118e-002
2.983387e+003,2.659576e-002
2.985316e+003,2.471153e-002
2.987244e+003,2.318796e-002
2.989173e+003,2.184810e-002
2.991101e+003,2.074813e-002
2.993030e+003,1.978526e-002
2.994958e+003,1.895513e-002
2.996887e+003,1.836390e-002
2.998815e+003,1.780203e-002
3.000744e+003,1.713195e-002
3.002672e+003,1.658085e-002
3.004601e+003,1.609415e-002
3.006529e+003,1.558656e-002
3.008458e+003,1.508143e-002
3.010386e+003,1.468760e-002
3.012315e+003,1.426840e-002
3.014243e+003,1.386772e-002
3.016172e+003,1.345102e-002
3.018100e+003,1.306658e-002
3.020029e+003,1.272945e-002
3.021957e+003,1.245846e-002
3.023886e+003,1.219858e-002
3.025814e+003,1.186681e-002
3.027743e+003,1.163107e-002
3.029671e+003,1.133259e-002
3.031600e+003,1.094602e-002
3.033528e+003,1.063898e-002
3.035457e+003,1.035720e-002
3.037385e+003,1.010316e-002
3.039314e+003,9.814799e-003
3.041242e+003,9.503737e-003
3.043171e+003,9.173694e-003
3.045099e+003,8.761279e-003
3.047028e+003,8.432239e-003
3.048956e+003,8.211125e-003
3.050885e+003,7.891489e-003
3.052813e+003,7.577406e-003
3.054742e+003,7.352603e-003
3.056670e+003,7.195143e-003
3.058599e+003,7.117844e-003
3.060527e+003,7.011948e-003
3.062456e+003,6.832913e-003
3.064384e+003,6.652649e-003
3.066313e+003,6.481753e-003
3.068241e+003,6.350833e-003
3.070170e+003,6.240056e-003
3.072098e+003,6.181614e-003
3.074027e+003,6.089076e-003
3.075955e+003,5.992641e-003
3.077884e+003,5.880334e-003
3.079812e+003,5.743845e-003
3.081741e+003,5.685195e-003
3.083669e+003,5.551900e-003
3.085598e+003,5.333696e-003
3.087526e+003,5.128369e-003
3.089455e+003,4.889682e-003
3.091383e+003,4.595117e-003
3.093312e+003,4.259799e-003
3.095240e+003,3.979590e-003
3.097169e+003,3.663642e-003
3.099097e+003,3.457025e-003
3.101026e+003,3.353211e-003
3.102954e+003,3.152968e-003
3.104883e+003,3.018068e-003
3.106811e+003,2.976833e-003
3.108740e+003,2.862066e-003
3.110668e+003,2.664780e-003
3.112597e+003,2.521736e-003
3.114525e+003,2.458305e-003
3.116454e+003,2.431247e-003
3.118382e+003,2.283357e-003
3.120311e+003,2.057143e-003
3.122239e+003,2.039914e-003
3.124168e+003,2.185265e-003
3.126096e+003,2.191284e-003
3.128025e+003,2.099576e-003
3.129953e+003,2.107301e-003
3.131882e+003,1.928480e-003
3.133810e+003,1.883156e-003
3.135739e+003,2.025058e-003
3.137667e+003,2.072547e-003
3.139596e+003,1.937970e-003
3.141524e+003,1.861507e-003
3.143453e+003,1.838261e-003
3.145381e+003,1.837694e-003
3.147310e+003,1.851821e-003
3.149238e+003,1.862205e-003
3.151167e+003,1.835333e-003
3.153095e+003,1.772392e-003
3.155024e+003,1.766638e-003
3.156952e+003,1.800922e-003
3.158881e+003,1.860252e-003
3.160809e+003,1.833586e-003
3.162738e+003,1.877913e-003
3.164666e+003,1.970097e-003
3.166594e+003,2.008367e-003
3.168523e+003,1.908228e-003
3.170452e+003,1.817737e-003
3.172380e+003,1.899262e-003
3.174309e+003,1.880041e-003
3.176237e+003,1.975481e-003
3.178166e+003,2.064932e-003
3.180094e+003,2.004250e-003
3.182022e+003,2.060505e-003
3.183951e+003,2.112607e-003
3.185880e+003,2.097425e-003
3.187808e+003,2.071552e-003
3.189737e+003,2.117611e-003
3.191665e+003,2.247796e-003
3.193594e+003,2.239939e-003
3.195522e+003,2.074629e-003
3.197450e+003,1.935615e-003
3.199379e+003,1.952024e-003
3.201308e+003,2.027629e-003
3.203236e+003,2.053975e-003
3.205165e+003,2.113587e-003
3.207093e+003,2.064779e-003
3.209021e+003,2.048867e-003
3.210950e+003,2.104526e-003
3.212878e+003,1.998344e-003
3.214807e+003,1.926329e-003
3.216736e+003,1.894507e-003
3.218664e+003,1.932694e-003
3.220593e+003,1.996850e-003
3.222521e+003,2.034285e-003
3.224449e+003,2.068021e-003
3.226378e+003,2.051232e-003
3.228307e+003,2.070676e-003
3.230235e+003,2.164952e-003
3.232164e+003,2.261697e-003
3.234092e+003,2.217957e-003
3.236021e+003,2.163440e-003
3.237949e+003,2.096839e-003
3.239877e+003,2.156715e-003
3.241806e+003,2.232129e-003
3.243735e+003,2.158876e-003
3.245663e+003,2.179415e-003
3.247592e+003,2.324376e-003
3.249520e+003,2.444319e-003
3.251448e+003,2.517102e-003
3.253377e+003,2.555034e-003
3.255305e+003,2.602178e-003
3.257234e+003,2.595178e-003
3.259163e+003,2.531023e-003
3.261091e+003,2.574006e-003
3.263020e+003,2.530840e-003
3.264948e+003,2.577542e-003
3.266876e+003,2.666960e-003
3.268805e+003,2.767969e-003
3.270733e+003,2.820525e-003
3.272662e+003,2.832673e-003
3.274591e+003,2.975318e-003
3.276519e+003,2.961600e-003
3.278448e+003,2.822221e-003
3.280376e+003,2.805344e-003
3.282304e+003,2.820322e-003
3.284233e+003,2.841408e-003
3.286161e+003,2.972985e-003
3.288090e+003,3.065801e-003
3.290019e+003,3.019427e-003
3.291947e+003,2.987401e-003
3.293875e+003,2.971168e-003
3.295804e+003,3.009544e-003
3.297732e+003,3.047962e-003
3.299661e+003,3.022092e-003
3.301589e+003,2.940800e-003
3.303518e+003,2.970683e-003
3.305447e+003,2.985804e-003
3.307375e+003,2.970014e-003
3.309303e+003,2.999623e-003
3.311232e+003,3.075482e-003
3.313160e+003,3.057394e-003
3.315089e+003,3.115561e-003
3.317018e+003,3.129799e-003
3.318946e+003,3.086273e-003
3.320875e+003,3.041042e-003
3.322803e+003,3.115619e-003
3.324731e+003,3.219166e-003
3.326660e+003,3.136629e-003
3.328588e+003,3.071984e-003
3.330517e+003,3.155128e-003
3.332446e+003,3.228752e-003
3.334374e+003,3.271389e-003
3.336302e+003,3.324693e-003
3.338231e+003,3.338645e-003
3.340159e+003,3.325247e-003
3.342088e+003,3.379547e-003
3.344016e+003,3.398419e-003
3.345945e+003,3.327538e-003
3.347874e+003,3.242028e-003
3.349802e+003,3.166085e-003
3.351730e+003,3.225642e-003
3.353659e+003,3.322855e-003
3.355587e+003,3.363871e-003
3.357516e+003,3.302492e-003
3.359444e+003,3.255410e-003
3.361373e+003,3.235021e-003
3.363302e+003,3.176909e-003
3.365230e+003,3.108684e-003
3.367158e+003,3.101561e-003
3.369087e+003,3.195079e-003
3.371015e+003,3.205312e-003
3.372944e+003,3.157839e-003
3.374872e+003,3.081662e-003
3.376801e+003,3.052980e-003
3.378729e+003,3.055740e-003
3.380658e+003,3.051884e-003
3.382586e+003,2.920056e-003
3.384515e+003,2.832627e-003
3.386443e+003,2.867355e-003
3.388372e+003,2.945595e-003
3.390300e+003,2.930738e-003
3.392229e+003,2.786078e-003
3.394157e+003,2.697070e-003
3.396086e+003,2.657830e-003
3.398014e+003,2.615613e-003
3.399943e+003,2.615493e-003
3.401871e+003,2.692614e-003
3.403800e+003,2.815973e-003
3.405728e+003,2.784565e-003
3.407657e+003,2.565154e-003
3.409585e+003,2.507797e-003
3.411514e+003,2.523192e-003
3.413442e+003,2.458838e-003
3.415371e+003,2.445120e-003
3.417299e+003,2.441124e-003
3.419228e+003,2.355412e-003
3.421156e+003,2.330035e-003
3.423085e+003,2.331852e-003
3.425013e+003,2.339116e-003
3.426942e+003,2.348087e-003
3.428870e+003,2.259904e-003
3.430799e+003,2.245751e-003
3.432727e+003,2.296535e-003
3.434656e+003,2.229335e-003
3.436584e+003,2.156932e-003
3.438513e+003,2.190757e-003
3.440441e+003,2.179013e-003
3.442370e+003,2.138389e-003
3.444298e+003,2.175101e-003
3.446227e+003,2.033244e-003
3.448155e+003,1.863475e-003
3.450084e+003,1.891044e-003
3.452012e+003,1.944834e-003
3.453941e+003,1.973389e-003
3.455869e+003,1.860673e-003
3.457798e+003,1.739817e-003
3.459726e+003,1.704332e-003
3.461655e+003,1.638415e-003
3.463583e+003,1.585159e-003
3.465512e+003,1.654563e-003
3.467440e+003,1.687742e-003
3.469369e+003,1.582578e-003
3.471297e+003,1.428203e-003
3.473226e+003,1.509271e-003
3.475154e+003,1.535058e-003
3.477083e+003,1.351599e-003
3.479011e+003,1.116455e-003
3.480940e+003,1.135017e-003
3.482868e+003,1.250718e-003
3.484797e+003,1.165845e-003
3.486725e+003,1.004904e-003
3.488654e+003,1.121860e-003
3.490582e+003,1.218374e-003
3.492511e+003,1.167286e-003
3.494439e+003,1.060825e-003
3.496368e+003,9.728905e-004
3.498296e+003,9.390718e-004
3.500225e+003,8.636046e-004
3.502153e+003,6.705956e-004
3.504082e+003,7.080134e-004
3.506010e+003,8.057161e-004
3.507939e+003,7.211748e-004
3.509867e+003,6.088865e-004
3.511796e+003,6.731948e-004
3.513724e+003,6.076318e-004
3.515653e+003,5.833138e-004
3.517581e+003,5.565201e-004
3.519510e+003,4.247199e-004
3.521438e+003,3.727442e-004
3.523367e+003,3.561653e-004
3.525295e+003,1.345524e-004
3.527224e+003,-8.680765e-005
3.529152e+003,4.185142e-005
3.531081e+003,3.213116e-004
3.533009e+003,3.028894e-004
3.534938e+003,4.706439e-006
3.536866e+003,5.561707e-005
3.538795e+003,2.170323e-004
3.540723e+003,-1.315952e-004
3.542652e+003,-4.756041e-004
3.544580e+003,-6.728852e-004
3.546509e+003,-5.705017e-004
3.548437e+003,-3.575254e-004
3.550366e+003,-2.873833e-004
3.552294e+003,-3.476341e-004
3.554223e+003,-3.008165e-004
3.556151e+003,-3.840891e-004
3.558080e+003,-5.898734e-004
3.560008e+003,-6.546583e-004
3.561937e+003,-6.151139e-004
3.563865e+003,-8.438525e-004
3.565794e+003,-1.495056e-003
3.567722e+003,-1.506656e-003
3.569651e+003,-8.439736e-004
3.571579e+003,-3.934884e-004
3.573508e+003,-1.912094e-004
3.575436e+003,-4.442015e-004
3.577365e+003,-8.402616e-004
3.579293e+003,-9.300546e-004
3.581222e+003,-6.909822e-004
3.583150e+003,-6.259994e-004
3.585079e+003,-1.031043e-003
3.587007e+003,-1.716307e-003
3.588936e+003,-1.261281e-003
3.590864e+003,-4.421137e-004
3.592793e+003,7.237215e-005
3.594721e+003,2.491298e-004
3.596650e+003,5.523142e-004
3.598578e+003,6.888199e-004
3.600507e+003,8.226188e-004
3.602435e+003,1.251274e-003
3.604364e+003,1.490995e-003
3.606292e+003,1.160549e-003
3.608221e+003,5.219306e-004
3.610149e+003,2.923850e-004
3.612078e+003,2.156621e-004
3.614006e+003,1.302439e-004
3.615935e+003,-4.191126e-005
3.617863e+003,-8.748614e-004
3.619792e+003,-1.403661e-003
3.621720e+003,-7.521762e-004
3.623649e+003,-2.917168e-004
3.625577e+003,-2.347792e-004
3.627506e+003,-4.501492e-004
3.629434e+003,-7.431700e-004
3.631363e+003,-3.756965e-004
3.633291e+003,-1.889606e-004
3.635220e+003,1.215665e-004
3.637148e+003,1.822788e-004
3.639077e+003,-1.077040e-004
3.641005e+003,-1.755203e-004
3.642934e+003,-2.796960e-004
3.644862e+003,-4.732269e-004
3.646791e+003,-1.773550e-003
3.648719e+003,-3.186764e-003
3.650648e+003,-2.128894e-003
3.652576e+003,-7.313595e-004
3.654505e+003,-8.325884e-005
3.656433e+003,-1.216027e-004
3.658362e+003,-2.204054e-004
3.660290e+003,-4.650198e-004
3.662219e+003,-6.389762e-004
3.664147e+003,-6.419292e-004
3.666076e+003,-8.903723e-004
3.668004e+003,-1.756091e-003
3.669933e+003,-2.303879e-003
3.671861e+003,-1.438779e-003
3.673790e+003,-1.204516e-003
3.675718e+003,-1.605529e-003
3.677647e+003,-1.400325e-003
3.679575e+003,-1.383265e-003
3.681504e+003,-9.482724e-004
3.683432e+003,-3.917927e-004
3.685361e+003,-3.053835e-004
3.687289e+003,-9.405504e-004
3.689218e+003,-2.184896e-003
3.691146e+003,-1.904642e-003
3.693075e+003,-1.071847e-003
3.695003e+003,-4.477031e-004
3.696932e+003,-1.074286e-004
3.698860e+003,-2.341869e-004
3.700789e+003,-8.850428e-004
3.702717e+003,-1.394765e-003
3.704646e+003,-8.666057e-004
3.706574e+003,-3.129434e-004
3.708503e+003,-6.110796e-004
3.710431e+003,-1.530601e-003
3.712360e+003,-1.891941e-003
3.714288e+003,-1.213690e-003
3.716217e+003,-6.662682e-004
3.718145e+003,-6.626982e-004
3.720074e+003,-8.334133e-004
3.722002e+003,-1.261241e-003
3.723931e+003,-1.710337e-003
3.725859e+003,-1.882746e-003
3.727788e+003,-1.260464e-003
3.729716e+003,-5.585554e-004
3.731645e+003,-5.003505e-004
3.733573e+003,-1.609521e-003
3.735502e+003,-2.520203e-003
3.737430e+003,-1.912949e-003
3.739359e+003,-1.388816e-003
3.741287e+003,-1.303955e-003
3.743216e+003,-1.191886e-003
3.745144e+003,-1.231209e-003
3.747073e+003,-1.356960e-003
3.749001e+003,-1.922691e-003
3.750930e+003,-2.307300e-003
3.752858e+003,-1.284649e-003
3.754787e+003,-7.591913e-004
3.756715e+003,-4.729868e-004
3.758644e+003,-2.694172e-004
3.760572e+003,-2.992542e-004
3.762501e+003,-3.516629e-004
3.764429e+003,-2.441490e-004
3.766358e+003,-2.211698e-004
3.768286e+003,-5.736880e-004
3.770215e+003,-9.641659e-004
3.772143e+003,-6.589624e-004
3.774072e+003,-2.404674e-004
3.776000e+003,9.550364e-006
3.777929e+003,4.948035e-005
3.779857e+003,-2.291985e-005
3.781786e+003,-1.239276e-005
3.783714e+003,-5.358690e-005
3.785643e+003,-1.926939e-004
3.787571e+003,-6.740051e-005
3.789500e+003,1.186214e-005
3.791428e+003,-7.798756e-005
3.793357e+003,-9.082723e-005
3.795285e+003,-7.893215e-005
3.797214e+003,-4.838033e-004
3.799142e+003,-5.032868e-004
3.801071e+003,-3.737163e-004
3.802999e+003,-5.794461e-004
3.804927e+003,-4.563410e-004
3.806856e+003,-4.793865e-004
3.808785e+003,-5.112158e-005
3.810713e+003,1.340426e-004
3.812642e+003,1.343479e-004
3.814570e+003,3.155153e-004
3.816499e+003,-6.721134e-005
3.818427e+003,-1.804002e-004
3.820355e+003,-7.948917e-004
3.822284e+003,-7.957011e-004
3.824213e+003,-2.037968e-004
3.826141e+003,-1.902541e-004
3.828070e+003,-5.947764e-005
3.829998e+003,1.047879e-004
3.831927e+003,4.576286e-006
3.833855e+003,-8.156407e-006
3.835783e+003,-1.638870e-004
3.837712e+003,-6.655063e-004
3.839641e+003,-1.060520e-003
3.841569e+003,-9.221775e-004
3.843498e+003,-7.291213e-004
3.845426e+003,-1.543749e-004
3.847354e+003,5.438467e-004
3.849283e+003,7.810655e-004
3.851211e+003,2.964663e-004
3.853140e+003,-1.660068e-003
3.855069e+003,-1.693229e-003
3.856997e+003,-7.543489e-004
3.858926e+003,1.663235e-004
3.860854e+003,7.553864e-004
3.862782e+003,6.297921e-004
3.864711e+003,4.046318e-004
3.866640e+003,2.697953e-004
3.868568e+003,-3.731681e-005
3.870497e+003,-4.315466e-004
3.872425e+003,-2.167562e-004
3.874354e+003,2.636749e-005
3.876282e+003,5.883853e-004
3.878210e+003,1.035256e-003
3.880139e+003,7.135688e-004
3.882068e+003,3.477791e-004
3.883996e+003,4.266964e-004
3.885925e+003,6.529318e-004
3.887853e+003,9.198606e-004
3.889781e+003,6.206387e-004
3.891710e+003,1.370141e-004
3.893638e+003,5.526798e-004
3.895567e+003,8.693605e-004
3.897496e+003,8.259045e-004
3.899424e+003,6.680937e-004
3.901353e+003,4.177532e-004
3.903281e+003,6.470550e-005
3.905209e+003,1.918514e-004
3.907138e+003,6.916862e-004
3.909066e+003,1.151493e-003
3.910995e+003,1.470989e-003
3.912924e+003,1.577265e-003
3.914852e+003,1.235547e-003
3.916781e+003,6.655914e-004
3.918709e+003,5.654415e-004
3.920637e+003,6.577750e-004
3.922566e+003,6.888729e-004
3.924494e+003,8.454542e-004
3.926423e+003,1.166766e-003
3.928352e+003,1.157682e-003
3.930280e+003,7.640795e-004
3.932208e+003,6.641275e-004
3.934137e+003,7.441753e-004
3.936065e+003,8.003116e-004
3.937994e+003,8.704622e-004
3.939922e+003,9.312829e-004
3.941851e+003,7.841341e-004
3.943780e+003,7.404481e-004
3.945708e+003,7.470381e-004
3.947636e+003,5.901746e-004
3.949565e+003,6.995231e-004
3.951493e+003,7.737695e-004
3.953422e+003,7.003598e-004
3.955351e+003,8.581426e-004
3.957279e+003,1.127936e-003
3.959208e+003,1.133672e-003
3.961136e+003,1.002522e-003
3.963064e+003,9.866640e-004
3.964993e+003,9.988993e-004
3.966921e+003,8.757726e-004
3.968850e+003,8.922997e-004
3.970779e+003,1.031978e-003
3.972707e+003,1.057018e-003
3.974635e+003,1.001351e-003
3.976564e+003,1.071719e-003
3.978492e+003,1.032345e-003
3.980421e+003,1.005591e-003
3.982349e+003,1.018131e-003
3.984278e+003,1.093650e-003
3.986207e+003,1.026858e-003
3.988135e+003,1.032679e-003
3.990063e+003,9.819183e-004
3.991992e+003,9.002907e-004
3.993920e+003,8.527241e-004
3.995849e+003,8.094774e-004
3.997777e+003,9.076418e-004
3.999706e+003,9.141994e-004
4.001635e+003,0.000000e+000
