3.991992e+002,0.000000e+000
4.011277e+002,0.000000e+000
4.030562e+002,0.000000e+000
4.049846e+002,0.000000e+000
4.069131e+002,0.000000e+000
4.088416e+002,0.000000e+000
4.107701e+002,0.000000e+000
4.126986e+002,0.000000e+000
4.146271e+002,0.000000e+000
4.165556e+002,0.000000e+000
4.184841e+002,0.000000e+000
4.204126e+002,0.000000e+000
4.223411e+002,0.000000e+000
4.242697e+002,0.000000e+000
4.261982e+002,0.000000e+000
4.281266e+002,0.000000e+000
4.300551e+002,0.000000e+000
4.319836e+002,0.000000e+000
4.339121e+002,0.000000e+000
4.358406e+002,0.000000e+000
4.377691e+002,0.000000e+000
4.396976e+002,0.000000e+000
4.416261e+002,0.000000e+000
4.435546e+002,0.000000e+000
4.454831e+002,0.000000e+000
4.474116e+002,0.000000e+000
4.493401e+002,0.000000e+000
4.512686e+002,0.000000e+000
4.531971e+002,0.000000e+000
4.551256e+002,0.000000e+000
4.570541e+002,0.000000e+000
4.589826e+002,0.000000e+000
4.609111e+002,0.000000e+000
4.628396e+002,0.000000e+000
4.647681e+002,0.000000e+000
4.666966e+002,0.000000e+000
4.686251e+002,0.000000e+000
4.705536e+002,0.000000e+000
4.724821e+002,0.000000e+000
4.744106e+002,0.000000e+000
4.763391e+002,0.000000e+000
4.782676e+002,0.000000e+000
4.801961e+002,0.000000e+000
4.821246e+002,0.000000e+000
4.840531e+002,0.000000e+000
4.859816e+002,0.000000e+000
4.879101e+002,0.000000e+000
4.898386e+002,0.000000e+000
4.917671e+002,0.000000e+000
4.936956e+002,0.000000e+000
4.956241e+002,0.000000e+000
4.975526e+002,0.000000e+000
4.994811e+002,0.000000e+000
5.014096e+002,0.000000e+000
5.033381e+002,0.000000e+000
5.052666e+002,0.000000e+000
5.071951e+002,0.000000e+000
5.091236e+002,0.000000e+000
5.110521e+002,0.000000e+000
5.129806e+002,0.000000e+000
5.149091e+002,0.000000e+000
5.168376e+002,0.000000e+000
5.187661e+002,0.000000e+000
5.206946e+002,0.000000e+000
5.226230e+002,0.000000e+000
5.245516e+002,3.762683e-004
5.264800e+002,2.969503e-004
5.284086e+002,2.650311e-004
5.303370e+002,2.357317e-004
5.322656e+002,2.462417e-004
5.341940e+002,2.664085e-004
5.361226e+002,1.818193e-004
5.380510e+002,1.234524e-004
5.399796e+002,2.402803e-004
5.419081e+002,1.237867e-004
5.438365e+002,1.411242e-004
5.457650e+002,1.187427e-004
5.476935e+002,3.110524e-005
5.496221e+002,-2.110377e-006
5.515505e+002,1.409464e-005
5.534790e+002,9.862706e-005
5.554075e+002,2.395017e-004
5.573361e+002,2.640393e-004
5.592645e+002,2.005911e-004
5.611931e+002,7.291883e-005
5.631215e+002,2.315454e-005
5.650500e+002,4.556961e-005
5.669785e+002,6.710459e-005
5.689070e+002,-2.318714e-005
5.708355e+002,-1.710039e-004
5.727640e+002,-2.260124e-004
5.746925e+002,-1.508463e-004
5.766210e+002,-1.753336e-004
5.785495e+002,-1.675151e-004
5.804780e+002,-1.931554e-004
5.824065e+002,-1.402330e-004
5.843350e+002,-1.850016e-004
5.862635e+002,-2.008528e-004
5.881920e+002,-2.028430e-004
5.901205e+002,-2.224501e-004
5.920490e+002,-2.114307e-004
5.939775e+002,-1.485134e-004
5.959060e+002,-9.192806e-005
5.978345e+002,-1.331130e-004
5.997630e+002,-1.950795e-004
6.016915e+002,-1.977636e-004
6.036200e+002,-2.005696e-004
6.055485e+002,-7.937104e-005
6.074770e+002,-6.508268e-005
6.094055e+002,-1.440300e-004
6.113340e+002,-2.023559e-004
6.132625e+002,-2.715643e-004
6.151910e+002,-3.533317e-004
6.171195e+002,-3.644563e-004
6.190480e+002,-3.352426e-004
6.209765e+002,-2.048751e-004
6.229050e+002,-1.406949e-004
6.248335e+002,-6.951392e-005
6.267620e+002,-2.605561e-005
6.286905e+002,3.920961e-005
6.306190e+002,3.372692e-005
6.325475e+002,1.184130e-004
6.344760e+002,2.007596e-004
6.364045e+002,2.428116e-004
6.383330e+002,2.644313e-004
6.402615e+002,2.906872e-004
6.421899e+002,1.961421e-004
6.441185e+002,2.304083e-004
6.460470e+002,2.997154e-004
6.479755e+002,3.313627e-004
6.499039e+002,2.845479e-004
6.518325e+002,3.118943e-004
6.537610e+002,2.819290e-004
6.556895e+002,3.124410e-004
6.576179e+002,3.287550e-004
6.595464e+002,4.268568e-004
6.614750e+002,4.487438e-004
6.634034e+002,5.075959e-004
6.653319e+002,4.893113e-004
6.672604e+002,5.850326e-004
6.691890e+002,6.721783e-004
6.711174e+002,7.272670e-004
6.730460e+002,7.646196e-004
6.749745e+002,9.356830e-004
6.769030e+002,9.755306e-004
6.788314e+002,1.043944e-003
6.807599e+002,1.225783e-003
6.826885e+002,1.426687e-003
6.846169e+002,1.486130e-003
6.865454e+002,1.692971e-003
6.884739e+002,1.870926e-003
6.904025e+002,2.176670e-003
6.923309e+002,2.472110e-003
6.942594e+002,2.899310e-003
6.961879e+002,3.342079e-003
6.981165e+002,4.020907e-003
7.000449e+002,4.929941e-003
7.019734e+002,6.161271e-003
7.039019e+002,7.615915e-003
7.058304e+002,9.741977e-003
7.077589e+002,1.273754e-002
7.096874e+002,1.725188e-002
7.116159e+002,2.467366e-002
7.135444e+002,3.900719e-002
7.154729e+002,6.422903e-002
7.174014e+002,9.588552e-002
7.193299e+002,1.086062e-001
7.212584e+002,8.374143e-002
7.231869e+002,5.766051e-002
7.251154e+002,4.837716e-002
7.270439e+002,5.301665e-002
7.289724e+002,6.624010e-002
7.309009e+002,5.994686e-002
7.328294e+002,3.410554e-002
7.347579e+002,1.805543e-002
7.366864e+002,1.221469e-002
7.386149e+002,9.608848e-003
7.405434e+002,8.047679e-003
7.424719e+002,7.056031e-003
7.444004e+002,6.224615e-003
7.463289e+002,5.628230e-003
7.482574e+002,5.104976e-003
7.501859e+002,4.761409e-003
7.521144e+002,4.430745e-003
7.540428e+002,4.193069e-003
7.559714e+002,3.960267e-003
7.578999e+002,3.782276e-003
7.598284e+002,3.657050e-003
7.617568e+002,3.597260e-003
7.636854e+002,3.499940e-003
7.656139e+002,3.392018e-003
7.675424e+002,3.319217e-003
7.694709e+002,3.263507e-003
7.713994e+002,3.192209e-003
7.733279e+002,3.139261e-003
7.752563e+002,3.037497e-003
7.771849e+002,2.940021e-003
7.791134e+002,2.847785e-003
7.810419e+002,2.735017e-003
7.829703e+002,2.594342e-003
7.848989e+002,2.475707e-003
7.868274e+002,2.398770e-003
7.887559e+002,2.348488e-003
7.906843e+002,2.281850e-003
7.926129e+002,2.261108e-003
7.945414e+002,2.293583e-003
7.964698e+002,2.285346e-003
7.983983e+002,2.233395e-003
8.003268e+002,2.153847e-003
8.022554e+002,2.127631e-003
8.041838e+002,2.046341e-003
8.061123e+002,1.951510e-003
8.080408e+002,1.855936e-003
8.099694e+002,1.820384e-003
8.118978e+002,1.822058e-003
8.138263e+002,1.783853e-003
8.157548e+002,1.680657e-003
8.176833e+002,1.625150e-003
8.196118e+002,1.561252e-003
8.215403e+002,1.507014e-003
8.234689e+002,1.445320e-003
8.253973e+002,1.411377e-003
8.273258e+002,1.403257e-003
8.292543e+002,1.428731e-003
8.311829e+002,1.372876e-003
8.331113e+002,1.370626e-003
8.350398e+002,1.363130e-003
8.369683e+002,1.350729e-003
8.388969e+002,1.324382e-003
8.408253e+002,1.321049e-003
8.427538e+002,1.354665e-003
8.446823e+002,1.401486e-003
8.466108e+002,1.390111e-003
8.485393e+002,1.370389e-003
8.504678e+002,1.366468e-003
8.523963e+002,1.394160e-003
8.543248e+002,1.415364e-003
8.562533e+002,1.437696e-003
8.581818e+002,1.450770e-003
8.601103e+002,1.445670e-003
8.620388e+002,1.445798e-003
8.639673e+002,1.428820e-003
8.658958e+002,1.395838e-003
8.678243e+002,1.448438e-003
8.697528e+002,1.513124e-003
8.716813e+002,1.545332e-003
8.736098e+002,1.551472e-003
8.755383e+002,1.663961e-003
8.774668e+002,1.728782e-003
8.793953e+002,1.879144e-003
8.813238e+002,2.048245e-003
8.832523e+002,2.264226e-003
8.851808e+002,2.480725e-003
8.871093e+002,2.724890e-003
8.890378e+002,2.774471e-003
8.909663e+002,2.656942e-003
8.928948e+002,2.450800e-003
8.948232e+002,2.309022e-003
8.967518e+002,2.228748e-003
8.986803e+002,2.170999e-003
9.006088e+002,2.103046e-003
9.025372e+002,2.202684e-003
9.044658e+002,2.352439e-003
9.063943e+002,2.502846e-003
9.083228e+002,2.632491e-003
9.102512e+002,2.579648e-003
9.121797e+002,2.300395e-003
9.141083e+002,2.182757e-003
9.160367e+002,2.085915e-003
9.179653e+002,1.965201e-003
9.198937e+002,1.849603e-003
9.218223e+002,1.860108e-003
9.237507e+002,1.894627e-003
9.256793e+002,1.924179e-003
9.276077e+002,1.913920e-003
9.295363e+002,1.911771e-003
9.314647e+002,1.868520e-003
9.333932e+002,1.905549e-003
9.353217e+002,1.968039e-003
9.372502e+002,1.967270e-003
9.391787e+002,1.912437e-003
9.411072e+002,1.933105e-003
9.430358e+002,1.896286e-003
9.449642e+002,1.869576e-003
9.468928e+002,1.936484e-003
9.488212e+002,1.945261e-003
9.507498e+002,1.877325e-003
9.526782e+002,1.953615e-003
9.546068e+002,1.983462e-003
9.565352e+002,2.090249e-003
9.584637e+002,2.163839e-003
9.603922e+002,2.253262e-003
9.623207e+002,2.299605e-003
9.642492e+002,2.394145e-003
9.661777e+002,2.414161e-003
9.681062e+002,2.370736e-003
9.700347e+002,2.323477e-003
9.719632e+002,2.301343e-003
9.738917e+002,2.258202e-003
9.758202e+002,2.268331e-003
9.777487e+002,2.265129e-003
9.796772e+002,2.302390e-003
9.816057e+002,2.315992e-003
9.835342e+002,2.369292e-003
9.854627e+002,2.441496e-003
9.873912e+002,2.524659e-003
9.893197e+002,2.596846e-003
9.912482e+002,2.710063e-003
9.931767e+002,2.749816e-003
9.951052e+002,2.793524e-003
9.970337e+002,2.823688e-003
9.989622e+002,2.859147e-003
1.000891e+003,2.902701e-003
1.002819e+003,3.064148e-003
1.004748e+003,3.149699e-003
1.006676e+003,3.217451e-003
1.008605e+003,3.291398e-003
1.010533e+003,3.396187e-003
1.012462e+003,3.530102e-003
1.014390e+003,3.654372e-003
1.016319e+003,3.688848e-003
1.018247e+003,3.807405e-003
1.020176e+003,3.842589e-003
1.022104e+003,3.863951e-003
1.024033e+003,3.876394e-003
1.025961e+003,3.994396e-003
1.027890e+003,4.036317e-003
1.029818e+003,4.109286e-003
1.031747e+003,4.174097e-003
1.033675e+003,4.224263e-003
1.035604e+003,4.222438e-003
1.037532e+003,4.318954e-003
1.039461e+003,4.376294e-003
1.041389e+003,4.461812e-003
1.043318e+003,4.512329e-003
1.045246e+003,4.615055e-003
1.047175e+003,4.685013e-003
1.049103e+003,4.860874e-003
1.051032e+003,4.913088e-003
1.052960e+003,4.894143e-003
1.054889e+003,4.896402e-003
1.056817e+003,4.975813e-003
1.058746e+003,5.075285e-003
1.060674e+003,5.285360e-003
1.062603e+003,5.334364e-003
1.064531e+003,5.337313e-003
1.066460e+003,5.353943e-003
1.068388e+003,5.434999e-003
1.070317e+003,5.431725e-003
1.072245e+003,5.515527e-003
1.074174e+003,5.665882e-003
1.076102e+003,5.814668e-003
1.078031e+003,5.844204e-003
1.079959e+003,5.950797e-003
1.081888e+003,5.944517e-003
1.083816e+003,5.895499e-003
1.085745e+003,5.810106e-003
1.087673e+003,5.726542e-003
1.089602e+003,5.605128e-003
1.091530e+003,5.517390e-003
1.093459e+003,5.393319e-003
1.095387e+003,5.330542e-003
1.097316e+003,5.202191e-003
1.099244e+003,5.107354e-003
1.101173e+003,5.017508e-003
1.103101e+003,4.987821e-003
1.105030e+003,4.873183e-003
1.106958e+003,4.729372e-003
1.108887e+003,4.635124e-003
1.110815e+003,4.642794e-003
1.112744e+003,4.544899e-003
1.114672e+003,4.500512e-003
1.116601e+003,4.426604e-003
1.118529e+003,4.337452e-003
1.120458e+003,4.229924e-003
1.122386e+003,4.232271e-003
1.124315e+003,4.232571e-003
1.126243e+003,4.281251e-003
1.128172e+003,4.305115e-003
1.130100e+003,4.371939e-003
1.132029e+003,4.306993e-003
1.133957e+003,4.254887e-003
1.135885e+003,4.199440e-003
1.137814e+003,4.217755e-003
1.139743e+003,4.206574e-003
1.141671e+003,4.270719e-003
1.143600e+003,4.345370e-003
1.145528e+003,4.489815e-003
1.147457e+003,4.666701e-003
1.149385e+003,4.971324e-003
1.151314e+003,5.267825e-003
1.153242e+003,5.611345e-003
1.155171e+003,5.856752e-003
1.157099e+003,6.076196e-003
1.159028e+003,6.233843e-003
1.160956e+003,6.390609e-003
1.162885e+003,6.401194e-003
1.164813e+003,6.304922e-003
1.166742e+003,6.112961e-003
1.168670e+003,5.889907e-003
1.170599e+003,5.585227e-003
1.172527e+003,5.314279e-003
1.174456e+003,5.053708e-003
1.176384e+003,4.886363e-003
1.178313e+003,4.671007e-003
1.180241e+003,4.466949e-003
1.182170e+003,4.299665e-003
1.184098e+003,4.256967e-003
1.186027e+003,4.184514e-003
1.187955e+003,4.199112e-003
1.189884e+003,4.192052e-003
1.191812e+003,4.274322e-003
1.193740e+003,4.388852e-003
1.195669e+003,4.518565e-003
1.197598e+003,4.596362e-003
1.199526e+003,4.723806e-003
1.201455e+003,4.840028e-003
1.203383e+003,5.069342e-003
1.205312e+003,5.289616e-003
1.207240e+003,5.546119e-003
1.209168e+003,5.778763e-003
1.211097e+003,6.051477e-003
1.213026e+003,6.253341e-003
1.214954e+003,6.527618e-003
1.216883e+003,6.756248e-003
1.218811e+003,7.027324e-003
1.220740e+003,7.252498e-003
1.222668e+003,7.504145e-003
1.224596e+003,7.655017e-003
1.226525e+003,7.848859e-003
1.228453e+003,7.990351e-003
1.230382e+003,8.184185e-003
1.232311e+003,8.349286e-003
1.234239e+003,8.512443e-003
1.236167e+003,8.556545e-003
1.238096e+003,8.652668e-003
1.240025e+003,8.628499e-003
1.241953e+003,8.567942e-003
1.243882e+003,8.412628e-003
1.245810e+003,8.182900e-003
1.247739e+003,7.887064e-003
1.249667e+003,7.722830e-003
1.251595e+003,7.477360e-003
1.253524e+003,7.283900e-003
1.255453e+003,7.102234e-003
1.257381e+003,7.041218e-003
1.259310e+003,6.923299e-003
1.261238e+003,6.804690e-003
1.263167e+003,6.605722e-003
1.265095e+003,6.493142e-003
1.267023e+003,6.349266e-003
1.268952e+003,6.304227e-003
1.270880e+003,6.255580e-003
1.272809e+003,6.280582e-003
1.274738e+003,6.300170e-003
1.276666e+003,6.404564e-003
1.278594e+003,6.464692e-003
1.280523e+003,6.601613e-003
1.282451e+003,6.716887e-003
1.284380e+003,6.939651e-003
1.286308e+003,7.110421e-003
1.288237e+003,7.417798e-003
1.290166e+003,7.688986e-003
1.292094e+003,8.063819e-003
1.294022e+003,8.427685e-003
1.295951e+003,8.841317e-003
1.297879e+003,9.147203e-003
1.299808e+003,9.427875e-003
1.301736e+003,9.495422e-003
1.303665e+003,9.573430e-003
1.305594e+003,9.481626e-003
1.307522e+003,9.339599e-003
1.309450e+003,9.082545e-003
1.311379e+003,8.847591e-003
1.313307e+003,8.425403e-003
1.315236e+003,8.018063e-003
1.317164e+003,7.541770e-003
1.319093e+003,7.209908e-003
1.321021e+003,6.812898e-003
1.322950e+003,6.548554e-003
1.324878e+003,6.264126e-003
1.326807e+003,6.160550e-003
1.328735e+003,6.100748e-003
1.330664e+003,6.272424e-003
1.332592e+003,6.523414e-003
1.334521e+003,7.013425e-003
1.336449e+003,7.624935e-003
1.338378e+003,8.481029e-003
1.340306e+003,9.218451e-003
1.342235e+003,9.747792e-003
1.344163e+003,1.014486e-002
1.346092e+003,1.079048e-002
1.348021e+003,1.144556e-002
1.349949e+003,1.215793e-002
1.351877e+003,1.247565e-002
1.353806e+003,1.253816e-002
1.355734e+003,1.235961e-002
1.357663e+003,1.244025e-002
1.359591e+003,1.278552e-002
1.361520e+003,1.366799e-002
1.363448e+003,1.490513e-002
1.365377e+003,1.612158e-002
1.367305e+003,1.706962e-002
1.369234e+003,1.756709e-002
1.371162e+003,1.734773e-002
1.373091e+003,1.767815e-002
1.375019e+003,1.966036e-002
1.376948e+003,2.122572e-002
1.378876e+003,1.953436e-002
1.380805e+003,1.508492e-002
1.382733e+003,1.075470e-002
1.384662e+003,8.236472e-003
1.386590e+003,6.761104e-003
1.388519e+003,6.045649e-003
1.390447e+003,5.527280e-003
1.392376e+003,5.377494e-003
1.394304e+003,5.118756e-003
1.396233e+003,5.205227e-003
1.398161e+003,5.011572e-003
1.400090e+003,5.184276e-003
1.402018e+003,5.105460e-003
1.403947e+003,5.324876e-003
1.405875e+003,5.344911e-003
1.407804e+003,5.585343e-003
1.409732e+003,5.633639e-003
1.411661e+003,5.972896e-003
1.413589e+003,5.994912e-003
1.415518e+003,6.323602e-003
1.417446e+003,6.437510e-003
1.419375e+003,7.382654e-003
1.421303e+003,7.819556e-003
1.423232e+003,8.886382e-003
1.425160e+003,1.031215e-002
1.427089e+003,1.227267e-002
1.429017e+003,1.473236e-002
1.430946e+003,1.851220e-002
1.432874e+003,2.156039e-002
1.434803e+003,2.451158e-002
1.436731e+003,2.781235e-002
1.438660e+003,3.093590e-002
1.440588e+003,3.268260e-002
1.442517e+003,3.522267e-002
1.444445e+003,3.722696e-002
1.446374e+003,4.010138e-002
1.448302e+003,4.413833e-002
1.450231e+003,5.023099e-002
1.452159e+003,5.905929e-002
1.454088e+003,7.028649e-002
1.456016e+003,8.105779e-002
1.457945e+003,1.043066e-001
1.459873e+003,1.424949e-001
1.461802e+003,1.849065e-001
1.463730e+003,1.934323e-001
1.465659e+003,1.590986e-001
1.467587e+003,1.468472e-001
1.469516e+003,1.454995e-001
1.471444e+003,1.618314e-001
1.473373e+003,1.359032e-001
1.475301e+003,7.369326e-002
1.477230e+003,3.365209e-002
1.479158e+003,2.171822e-002
1.481087e+003,1.573455e-002
1.483015e+003,1.293596e-002
1.484944e+003,1.061151e-002
1.486872e+003,9.849647e-003
1.488801e+003,8.262210e-003
1.490729e+003,7.948525e-003
1.492658e+003,6.816506e-003
1.494586e+003,6.747289e-003
1.496515e+003,5.863925e-003
1.498443e+003,5.936505e-003
1.500372e+003,5.171234e-003
1.502300e+003,5.096152e-003
1.504229e+003,4.408335e-003
1.506157e+003,4.834428e-003
1.508086e+003,4.283015e-003
1.510014e+003,4.511796e-003
1.511943e+003,4.003033e-003
1.513871e+003,4.070954e-003
1.515800e+003,3.631365e-003
1.517728e+003,3.898444e-003
1.519657e+003,3.493691e-003
1.521585e+003,3.861958e-003
1.523514e+003,3.417017e-003
1.525442e+003,3.670717e-003
1.527371e+003,3.351199e-003
1.529299e+003,3.332870e-003
1.531228e+003,2.983332e-003
1.533156e+003,3.224241e-003
1.535085e+003,2.961610e-003
1.537013e+003,2.962573e-003
1.538942e+003,2.616040e-003
1.540870e+003,3.449496e-003
1.542799e+003,3.018009e-003
1.544727e+003,3.030263e-003
1.546656e+003,2.686633e-003
1.548584e+003,2.729828e-003
1.550513e+003,2.564907e-003
1.552441e+003,2.621040e-003
1.554370e+003,2.427252e-003
1.556298e+003,2.488155e-003
1.558227e+003,2.135986e-003
1.560155e+003,2.819018e-003
1.562084e+003,2.396028e-003
1.564012e+003,2.361609e-003
1.565941e+003,2.227949e-003
1.567869e+003,2.329523e-003
1.569798e+003,2.287650e-003
1.571726e+003,2.367767e-003
1.573655e+003,2.176972e-003
1.575583e+003,2.339851e-003
1.577512e+003,2.332373e-003
1.579440e+003,2.382478e-003
1.581369e+003,2.269622e-003
1.583297e+003,2.355177e-003
1.585226e+003,2.298359e-003
1.587154e+003,2.365850e-003
1.589083e+003,2.285350e-003
1.591011e+003,2.345998e-003
1.592940e+003,2.272636e-003
1.594868e+003,2.362350e-003
1.596797e+003,2.279161e-003
1.598725e+003,2.302384e-003
1.600654e+003,2.182441e-003
1.602582e+003,2.229219e-003
1.604511e+003,2.137845e-003
1.606439e+003,2.178630e-003
1.608368e+003,2.154456e-003
1.610296e+003,2.240865e-003
1.612225e+003,2.112277e-003
1.614153e+003,2.130777e-003
1.616082e+003,2.144817e-003
1.618010e+003,2.337946e-003
1.619939e+003,2.182890e-003
1.621867e+003,2.271583e-003
1.623796e+003,2.267048e-003
1.625724e+003,2.338273e-003
1.627653e+003,2.311425e-003
1.629581e+003,2.418265e-003
1.631510e+003,2.275407e-003
1.633438e+003,2.315987e-003
1.635367e+003,2.491808e-003
1.637295e+003,2.792032e-003
1.639224e+003,2.600253e-003
1.641152e+003,2.560942e-003
1.643081e+003,2.355814e-003
1.645009e+003,2.413837e-003
1.646938e+003,2.519656e-003
1.648866e+003,2.436269e-003
1.650795e+003,2.084414e-003
1.652723e+003,2.370320e-003
1.654652e+003,2.423786e-003
1.656580e+003,2.230342e-003
1.658509e+003,1.957705e-003
1.660437e+003,1.922382e-003
1.662366e+003,1.907114e-003
1.664294e+003,1.896869e-003
1.666223e+003,1.706479e-003
1.668151e+003,1.808658e-003
1.670080e+003,1.775486e-003
1.672008e+003,1.759069e-003
1.673937e+003,1.620863e-003
1.675865e+003,1.691949e-003
1.677794e+003,1.478869e-003
1.679722e+003,1.475064e-003
1.681651e+003,1.382343e-003
1.683579e+003,1.715641e-003
1.685508e+003,1.507377e-003
1.687436e+003,1.334773e-003
1.689365e+003,1.165656e-003
1.691293e+003,1.163837e-003
1.693222e+003,9.776987e-004
1.695150e+003,1.098257e-003
1.697079e+003,1.183862e-003
1.699007e+003,1.325630e-003
1.700936e+003,1.404906e-003
1.702864e+003,1.338184e-003
1.704793e+003,1.296263e-003
1.706721e+003,1.582395e-003
1.708650e+003,1.552908e-003
1.710578e+003,1.697162e-003
1.712507e+003,1.774510e-003
1.714435e+003,2.010863e-003
1.716364e+003,2.217710e-003
1.718292e+003,2.652895e-003
1.720221e+003,2.584022e-003
1.722149e+003,2.603393e-003
1.724078e+003,2.379093e-003
1.726006e+003,2.084617e-003
1.727935e+003,1.871090e-003
1.729863e+003,1.976307e-003
1.731792e+003,1.908630e-003
1.733720e+003,2.136443e-003
1.735649e+003,1.759656e-003
1.737577e+003,1.634218e-003
1.739506e+003,1.629487e-003
1.741434e+003,1.568489e-003
1.743363e+003,1.294833e-003
1.745291e+003,1.221307e-003
1.747220e+003,1.077246e-003
1.749148e+003,1.051478e-003
1.751077e+003,8.408502e-004
1.753005e+003,7.355735e-004
1.754934e+003,5.392432e-004
1.756862e+003,4.850440e-004
1.758791e+003,2.083033e-004
1.760719e+003,1.533143e-004
1.762648e+003,8.638576e-005
1.764576e+003,1.882017e-005
1.766505e+003,-5.439296e-005
1.768433e+003,6.734580e-005
1.770362e+003,-1.811236e-005
1.772290e+003,1.932085e-004
1.774219e+003,1.290441e-005
1.776147e+003,-3.426149e-005
1.778076e+003,-9.284168e-005
1.780004e+003,6.266683e-005
1.781933e+003,5.052239e-005
1.783861e+003,8.258596e-005
1.785790e+003,1.389906e-005
1.787718e+003,-7.211044e-005
1.789646e+003,-2.277754e-004
1.791575e+003,3.150105e-005
1.793504e+003,6.725267e-005
1.795432e+003,-2.916530e-005
1.797361e+003,-2.084710e-004
1.799289e+003,-4.860014e-005
1.801218e+003,3.341585e-005
1.803146e+003,-6.778911e-005
1.805074e+003,-3.227964e-004
1.807003e+003,-2.785027e-004
1.808932e+003,-2.766624e-004
1.810860e+003,-2.239831e-004
1.812789e+003,-5.600937e-004
1.814717e+003,-8.209534e-004
1.816646e+003,-9.188280e-004
1.818574e+003,-5.477667e-004
1.820502e+003,-3.974885e-004
1.822431e+003,-2.609678e-004
1.824360e+003,-3.149249e-004
1.826288e+003,-2.576932e-004
1.828217e+003,-4.551969e-004
1.830145e+003,-4.704259e-004
1.832073e+003,-7.527620e-004
1.834002e+003,-8.224025e-004
1.835931e+003,-8.458234e-004
1.837859e+003,-7.498711e-004
1.839788e+003,-9.218976e-004
1.841716e+003,-9.763390e-004
1.843645e+003,-9.664558e-004
1.845573e+003,-6.189942e-004
1.847501e+003,-7.705688e-004
1.849430e+003,-8.752085e-004
1.851359e+003,-1.066301e-003
1.853287e+003,-9.944774e-004
1.855216e+003,-1.090016e-003
1.857144e+003,-1.121566e-003
1.859073e+003,-1.233328e-003
1.861001e+003,-9.534061e-004
1.862929e+003,-1.027804e-003
1.864858e+003,-9.449758e-004
1.866787e+003,-8.871108e-004
1.868715e+003,-3.655180e-004
1.870644e+003,-5.773827e-004
1.872572e+003,-6.991625e-004
1.874500e+003,-9.370185e-004
1.876429e+003,-9.097569e-004
1.878357e+003,-9.656101e-004
1.880286e+003,-7.035770e-004
1.882215e+003,-7.239543e-004
1.884143e+003,-6.172471e-004
1.886072e+003,-6.549768e-004
1.888000e+003,-3.461093e-004
1.889928e+003,-3.475733e-004
1.891857e+003,-2.572685e-004
1.893785e+003,-3.361627e-004
1.895714e+003,-6.838143e-005
1.897643e+003,-1.244023e-004
1.899571e+003,-5.799159e-005
1.901500e+003,-5.611032e-005
1.903428e+003,-5.424023e-005
1.905356e+003,-5.238131e-005
1.907285e+003,-5.052984e-005
1.909213e+003,-4.868954e-005
1.911142e+003,-4.685298e-005
1.913071e+003,-4.503131e-005
1.914999e+003,-4.321709e-005
1.916927e+003,-4.141033e-005
1.918856e+003,-3.960729e-005
1.920784e+003,-3.781542e-005
1.922713e+003,-3.603846e-005
1.924641e+003,-3.426522e-005
1.926570e+003,-3.249943e-005
1.928499e+003,-3.074482e-005
1.930427e+003,-2.899393e-005
1.932355e+003,-2.725795e-005
1.934284e+003,-2.552569e-005
1.936212e+003,-2.380461e-005
1.938141e+003,-2.209842e-005
1.940070e+003,-2.039224e-005
1.941998e+003,-1.870096e-005
1.943927e+003,-1.701713e-005
1.945855e+003,-1.534075e-005
1.947783e+003,-1.366809e-005
1.949712e+003,-1.201034e-005
1.951640e+003,-1.036003e-005
1.953569e+003,-8.717179e-006
1.955498e+003,-7.085502e-006
1.957426e+003,-5.461276e-006
1.959354e+003,-3.844500e-006
1.961283e+003,-2.238899e-006
1.963211e+003,-6.407499e-007
1.965140e+003,9.499490e-007
1.967068e+003,2.529472e-006
1.968997e+003,4.097819e-006
1.970926e+003,5.666167e-006
1.972854e+003,7.219613e-006
1.974782e+003,8.765608e-006
1.976711e+003,1.030043e-005
1.978639e+003,1.183525e-005
1.980568e+003,1.335144e-005
1.982496e+003,1.486018e-005
1.984425e+003,1.636520e-005
1.986354e+003,1.785532e-005
1.988282e+003,1.934171e-005
1.990210e+003,2.081692e-005
1.992139e+003,2.228841e-005
1.994067e+003,2.374128e-005
1.995996e+003,2.519414e-005
1.997924e+003,2.663583e-005
1.999853e+003,2.807006e-005
2.001781e+003,2.948940e-005
2.003710e+003,3.090873e-005
2.005638e+003,3.231317e-005
2.007567e+003,3.371015e-005
2.009495e+003,3.509969e-005
2.011424e+003,3.647804e-005
2.013352e+003,3.784895e-005
2.015281e+003,3.921613e-005
2.017209e+003,4.056841e-005
2.019138e+003,4.190952e-005
2.021066e+003,4.325062e-005
2.022995e+003,4.457682e-005
2.024923e+003,4.589185e-005
2.026852e+003,4.720315e-005
2.028781e+003,4.850700e-005
2.030709e+003,4.979968e-005
2.032637e+003,5.108491e-005
2.034566e+003,5.235523e-005
2.036494e+003,5.362555e-005
2.038423e+003,5.488098e-005
2.040351e+003,5.613267e-005
2.042280e+003,5.737320e-005
2.044208e+003,5.860627e-005
2.046137e+003,5.983189e-005
2.048065e+003,6.104261e-005
2.049994e+003,6.224960e-005
2.051922e+003,6.344169e-005
2.053851e+003,6.463379e-005
2.055779e+003,6.581098e-005
2.057708e+003,6.698072e-005
2.059636e+003,6.814674e-005
2.061565e+003,6.929785e-005
2.063493e+003,7.044524e-005
2.065422e+003,7.157773e-005
2.067350e+003,7.270277e-005
2.069279e+003,7.382408e-005
2.071207e+003,7.493049e-005
2.073136e+003,7.603690e-005
2.075064e+003,7.712841e-005
2.076993e+003,7.820874e-005
2.078921e+003,7.928163e-005
2.080850e+003,8.034706e-005
2.082778e+003,8.140504e-005
2.084707e+003,8.245558e-005
2.086635e+003,8.349493e-005
2.088564e+003,8.452684e-005
2.090492e+003,8.554757e-005
2.092421e+003,8.656085e-005
2.094349e+003,8.756667e-005
2.096278e+003,8.856133e-005
2.098206e+003,8.955225e-005
2.100135e+003,9.053200e-005
2.102063e+003,9.150058e-005
2.103992e+003,9.246171e-005
2.105920e+003,9.341538e-005
2.107849e+003,9.435415e-005
2.109777e+003,9.528548e-005
2.111706e+003,9.621307e-005
2.113634e+003,9.713322e-005
2.115563e+003,9.804219e-005
2.117491e+003,9.894744e-005
2.119420e+003,9.983405e-005
2.121348e+003,1.007169e-004
2.123277e+003,1.015887e-004
2.125205e+003,1.024567e-004
2.127134e+003,1.033098e-004
2.129062e+003,1.041666e-004
2.130991e+003,1.050048e-004
2.132919e+003,1.058280e-004
2.134848e+003,1.066513e-004
2.136776e+003,1.074672e-004
2.138705e+003,1.082681e-004
2.140633e+003,1.090616e-004
2.142562e+003,1.098551e-004
2.144490e+003,1.106337e-004
2.146419e+003,1.113974e-004
2.148347e+003,1.121610e-004
2.150276e+003,1.129135e-004
2.152204e+003,1.136549e-004
2.154133e+003,1.143850e-004
2.156061e+003,1.151152e-004
2.157990e+003,1.158379e-004
2.159918e+003,1.165420e-004
2.161847e+003,1.172423e-004
2.163775e+003,1.179278e-004
2.165704e+003,1.186095e-004
2.167632e+003,1.192838e-004
2.169561e+003,1.199432e-004
2.171489e+003,1.205951e-004
2.173418e+003,1.212545e-004
2.175346e+003,1.218915e-004
2.177275e+003,1.225173e-004
2.179203e+003,1.231395e-004
2.181132e+003,1.237541e-004
2.183060e+003,1.243539e-004
2.184989e+003,1.249500e-004
2.186917e+003,1.255386e-004
2.188846e+003,1.261160e-004
2.190774e+003,1.266822e-004
2.192703e+003,1.272410e-004
2.194631e+003,1.277924e-004
2.196560e+003,1.283325e-004
2.198488e+003,1.288652e-004
2.200417e+003,1.293980e-004
2.202345e+003,1.299120e-004
2.204274e+003,1.304187e-004
2.206202e+003,1.309142e-004
2.208131e+003,1.314059e-004
2.210059e+003,1.318865e-004
2.211988e+003,1.323596e-004
2.213916e+003,1.328178e-004
2.215845e+003,1.332760e-004
2.217773e+003,1.337267e-004
2.219702e+003,1.341589e-004
2.221630e+003,1.345910e-004
2.223559e+003,1.350120e-004
2.225487e+003,1.354180e-004
2.227416e+003,1.358241e-004
2.229344e+003,1.362190e-004
2.231273e+003,1.366064e-004
2.233201e+003,1.369826e-004
2.235130e+003,1.373515e-004
2.237058e+003,1.377054e-004
2.238987e+003,1.380555e-004
2.240915e+003,1.384020e-004
2.242844e+003,1.387298e-004
2.244772e+003,1.390576e-004
2.246701e+003,1.393743e-004
2.248629e+003,1.396798e-004
2.250558e+003,1.399741e-004
2.252486e+003,1.402684e-004
2.254415e+003,1.405440e-004
2.256343e+003,1.408160e-004
2.258272e+003,1.410805e-004
2.260200e+003,1.413338e-004
2.262129e+003,1.415834e-004
2.264057e+003,1.418181e-004
2.265986e+003,1.420416e-004
2.267914e+003,1.422614e-004
2.269843e+003,1.424775e-004
2.271771e+003,1.426786e-004
2.273700e+003,1.428723e-004
2.275628e+003,1.430549e-004
2.277557e+003,1.432337e-004
2.279485e+003,1.434013e-004
2.281414e+003,1.435615e-004
2.283342e+003,1.437031e-004
2.285271e+003,1.438484e-004
2.287199e+003,1.439787e-004
2.289128e+003,1.441054e-004
2.291056e+003,1.442209e-004
2.292985e+003,1.443252e-004
2.294913e+003,1.444183e-004
2.296842e+003,1.445077e-004
2.298770e+003,1.445934e-004
2.300699e+003,1.446605e-004
2.302627e+003,1.447238e-004
2.304556e+003,1.447797e-004
2.306484e+003,1.448244e-004
2.308413e+003,1.448579e-004
2.310341e+003,1.448803e-004
2.312270e+003,1.449026e-004
2.314198e+003,1.449138e-004
2.316127e+003,1.449101e-004
2.318055e+003,1.449026e-004
2.319984e+003,1.448914e-004
2.321912e+003,1.448691e-004
2.323841e+003,1.448318e-004
2.325769e+003,1.447946e-004
2.327698e+003,1.447424e-004
2.329626e+003,1.446828e-004
2.331555e+003,1.446083e-004
2.333483e+003,1.445338e-004
2.335412e+003,1.444481e-004
2.337340e+003,1.443550e-004
2.339269e+003,1.442470e-004
2.341197e+003,1.441352e-004
2.343126e+003,1.440160e-004
2.345054e+003,1.438856e-004
2.346983e+003,1.437515e-004
2.348911e+003,1.436025e-004
2.350840e+003,1.434498e-004
2.352768e+003,1.432821e-004
2.354697e+003,1.431145e-004
2.356625e+003,1.429282e-004
2.358554e+003,1.427345e-004
2.360482e+003,1.425371e-004
2.362411e+003,1.423284e-004
2.364339e+003,1.421124e-004
2.366268e+003,1.418851e-004
2.368196e+003,1.416467e-004
2.370125e+003,1.414083e-004
2.372053e+003,1.411587e-004
2.373982e+003,1.408942e-004
2.375910e+003,1.406260e-004
2.377839e+003,1.403503e-004
2.379767e+003,1.400672e-004
2.381696e+003,1.397692e-004
2.383624e+003,1.394637e-004
2.385553e+003,1.391508e-004
2.387481e+003,1.388267e-004
2.389410e+003,1.384988e-004
2.391338e+003,1.381598e-004
2.393267e+003,1.378134e-004
2.395195e+003,1.374520e-004
2.397124e+003,1.370870e-004
2.399052e+003,1.367182e-004
2.400981e+003,1.986735e-004
2.402909e+003,1.890697e-004
2.404838e+003,2.369508e-004
2.406766e+003,3.694221e-004
2.408695e+003,6.273612e-004
2.410623e+003,7.048137e-004
2.412552e+003,8.004792e-004
2.414480e+003,7.420070e-004
2.416409e+003,7.557198e-004
2.418337e+003,7.992052e-004
2.420266e+003,8.844435e-004
2.422194e+003,9.601042e-004
2.424123e+003,9.599999e-004
2.426051e+003,7.343851e-004
2.427979e+003,6.812960e-004
2.429908e+003,6.658249e-004
2.431837e+003,6.916933e-004
2.433765e+003,6.402731e-004
2.435694e+003,7.223189e-004
2.437622e+003,6.882697e-004
2.439551e+003,6.166324e-004
2.441479e+003,5.612411e-004
2.443407e+003,7.145107e-004
2.445336e+003,8.049496e-004
2.447265e+003,7.099546e-004
2.449193e+003,5.734004e-004
2.451122e+003,7.155240e-004
2.453050e+003,7.413514e-004
2.454979e+003,7.368922e-004
2.456907e+003,6.800853e-004
2.458836e+003,6.739460e-004
2.460764e+003,5.841553e-004
2.462693e+003,5.576573e-004
2.464621e+003,4.902966e-004
2.466550e+003,5.135573e-004
2.468478e+003,5.730279e-004
2.470406e+003,7.988177e-004
2.472335e+003,9.716377e-004
2.474264e+003,9.752177e-004
2.476192e+003,8.317642e-004
2.478121e+003,9.171590e-004
2.480049e+003,1.072939e-003
2.481978e+003,1.053058e-003
2.483906e+003,9.023175e-004
2.485835e+003,1.166604e-003
2.487763e+003,1.365762e-003
2.489692e+003,1.287013e-003
2.491620e+003,1.206338e-003
2.493549e+003,1.233436e-003
2.495477e+003,1.259718e-003
2.497406e+003,1.348760e-003
2.499334e+003,1.262650e-003
2.501263e+003,1.353648e-003
2.503191e+003,1.467634e-003
2.505120e+003,1.509674e-003
2.507048e+003,1.603227e-003
2.508977e+003,1.679473e-003
2.510905e+003,1.785215e-003
2.512833e+003,1.949146e-003
2.514762e+003,1.969680e-003
2.516691e+003,1.907211e-003
2.518619e+003,1.932956e-003
2.520548e+003,2.184499e-003
2.522476e+003,2.202459e-003
2.524405e+003,2.267469e-003
2.526333e+003,2.452705e-003
2.528261e+003,2.725385e-003
2.530190e+003,2.761319e-003
2.532119e+003,2.674758e-003
2.534047e+003,2.581660e-003
2.535976e+003,2.602428e-003
2.537904e+003,2.607487e-003
2.539833e+003,2.618093e-003
2.541761e+003,2.588112e-003
2.543689e+003,2.711486e-003
2.545618e+003,2.990205e-003
2.547547e+003,3.261801e-003
2.549475e+003,3.364455e-003
2.551404e+003,3.502287e-003
2.553332e+003,3.615376e-003
2.555260e+003,3.658727e-003
2.557189e+003,3.712423e-003
2.559117e+003,3.798500e-003
2.561046e+003,3.893755e-003
2.562975e+003,4.130587e-003
2.564903e+003,4.122153e-003
2.566832e+003,4.137643e-003
2.568760e+003,4.353028e-003
2.570688e+003,4.603919e-003
2.572617e+003,4.712716e-003
2.574546e+003,4.901759e-003
2.576474e+003,5.058806e-003
2.578403e+003,5.194884e-003
2.580331e+003,5.339336e-003
2.582260e+003,5.560853e-003
2.584188e+003,5.749255e-003
2.586116e+003,6.018825e-003
2.588045e+003,6.210424e-003
2.589974e+003,6.339852e-003
2.591902e+003,6.468851e-003
2.593831e+003,6.848015e-003
2.595759e+003,7.153012e-003
2.597688e+003,7.293075e-003
2.599616e+003,7.422414e-003
2.601544e+003,7.539716e-003
2.603473e+003,7.718883e-003
2.605402e+003,7.951207e-003
2.607330e+003,8.260410e-003
2.609259e+003,8.678000e-003
2.611187e+003,8.924246e-003
2.613115e+003,9.143393e-003
2.615044e+003,9.489834e-003
2.616972e+003,9.923097e-003
2.618901e+003,1.029604e-002
2.620830e+003,1.064778e-002
2.622758e+003,1.096096e-002
2.624687e+003,1.139944e-002
2.626615e+003,1.187687e-002
2.628543e+003,1.232387e-002
2.630472e+003,1.271432e-002
2.632400e+003,1.305641e-002
2.634329e+003,1.325666e-002
2.636258e+003,1.337786e-002
2.638186e+003,1.344433e-002
2.640115e+003,1.348208e-002
2.642043e+003,1.341389e-002
2.643971e+003,1.339773e-002
2.645900e+003,1.341345e-002
2.647828e+003,1.353074e-002
2.649757e+003,1.365079e-002
2.651686e+003,1.375005e-002
2.653614e+003,1.385576e-002
2.655542e+003,1.398074e-002
2.657471e+003,1.407093e-002
2.659399e+003,1.408792e-002
2.661328e+003,1.397215e-002
2.663256e+003,1.379073e-002
2.665185e+003,1.360896e-002
2.667114e+003,1.344802e-002
2.669042e+003,1.326939e-002
2.670970e+003,1.308948e-002
2.672899e+003,1.293129e-002
2.674827e+003,1.281587e-002
2.676756e+003,1.269157e-002
2.678685e+003,1.262486e-002
2.680613e+003,1.245603e-002
2.682542e+003,1.227451e-002
2.684470e+003,1.217028e-002
2.686398e+003,1.208071e-002
2.688327e+003,1.192839e-002
2.690255e+003,1.178770e-002
2.692184e+003,1.165197e-002
2.694113e+003,1.156345e-002
2.696041e+003,1.159986e-002
2.697969e+003,1.163914e-002
2.699898e+003,1.170690e-002
2.701826e+003,1.184909e-002
2.703755e+003,1.199244e-002
2.705683e+003,1.214835e-002
2.707612e+003,1.230961e-002
2.709541e+003,1.249457e-002
2.711469e+003,1.268150e-002
2.713397e+003,1.287735e-002
2.715326e+003,1.301417e-002
2.717254e+003,1.317445e-002
2.719183e+003,1.344646e-002
2.721111e+003,1.375831e-002
2.723040e+003,1.403818e-002
2.724969e+003,1.439923e-002
2.726897e+003,1.470945e-002
2.728825e+003,1.491394e-002
2.730754e+003,1.514417e-002
2.732682e+003,1.534402e-002
2.734611e+003,1.550557e-002
2.736539e+003,1.561600e-002
2.738468e+003,1.565731e-002
2.740396e+003,1.570413e-002
2.742325e+003,1.572755e-002
2.744253e+003,1.570380e-002
2.746182e+003,1.569885e-002
2.748110e+003,1.572468e-002
2.750039e+003,1.576641e-002
2.751967e+003,1.594189e-002
2.753896e+003,1.609359e-002
2.755824e+003,1.624955e-002
2.757753e+003,1.658066e-002
2.759681e+003,1.698826e-002
2.761610e+003,1.733125e-002
2.763538e+003,1.774034e-002
2.765467e+003,1.821445e-002
2.767395e+003,1.871037e-002
2.769324e+003,1.919179e-002
2.771252e+003,1.977726e-002
2.773181e+003,2.050634e-002
2.775109e+003,2.131670e-002
2.777038e+003,2.217172e-002
2.778966e+003,2.312475e-002
2.780895e+003,2.420123e-002
2.782823e+003,2.539513e-002
2.784752e+003,2.669002e-002
2.786680e+003,2.811364e-002
2.788609e+003,2.965948e-002
2.790537e+003,3.125647e-002
2.792466e+003,3.296482e-002
2.794394e+003,3.475530e-002
2.796323e+003,3.658547e-002
2.798251e+003,3.849450e-002
2.800180e+003,4.054817e-002
2.802108e+003,4.267454e-002
2.804037e+003,4.492761e-002
2.805965e+003,4.734916e-002
2.807894e+003,5.003988e-002
2.809822e+003,5.303090e-002
2.811751e+003,5.640904e-002
2.813679e+003,6.022771e-002
2.815608e+003,6.466109e-002
2.817536e+003,6.988564e-002
2.819465e+003,7.609122e-002
2.821393e+003,8.334380e-002
2.823322e+003,9.207788e-002
2.825250e+003,1.029065e-001
2.827179e+003,1.166231e-001
2.829107e+003,1.343677e-001
2.831036e+003,1.579928e-001
2.832964e+003,1.904179e-001
2.834893e+003,2.363822e-001
2.836821e+003,3.022025e-001
2.838750e+003,3.976917e-001
2.840678e+003,5.382783e-001
2.842607e+003,7.429993e-001
2.844535e+003,1.018106e+000
2.846464e+003,1.292693e+000
2.848392e+003,1.344284e+000
2.850321e+003,1.110757e+000
2.852249e+003,8.302436e-001
2.854178e+003,6.237348e-001
2.856106e+003,4.819783e-001
2.858035e+003,3.820262e-001
2.859963e+003,3.108898e-001
2.861892e+003,2.611537e-001
2.863820e+003,2.279494e-001
2.865749e+003,2.079398e-001
2.867677e+003,1.983140e-001
2.869606e+003,1.956565e-001
2.871534e+003,1.967391e-001
2.873463e+003,2.009274e-001
2.875391e+003,2.097194e-001
2.877320e+003,2.244050e-001
2.879248e+003,2.449763e-001
2.881177e+003,2.704498e-001
2.883105e+003,2.998129e-001
2.885034e+003,3.326502e-001
2.886962e+003,3.683750e-001
2.888891e+003,4.059814e-001
2.890819e+003,4.444095e-001
2.892748e+003,4.829803e-001
2.894676e+003,5.212470e-001
2.896605e+003,5.601569e-001
2.898533e+003,6.013073e-001
2.900462e+003,6.474229e-001
2.902390e+003,7.029666e-001
2.904319e+003,7.745227e-001
2.906247e+003,8.710690e-001
2.908176e+003,1.002526e+000
2.910104e+003,1.174301e+000
2.912033e+003,1.370806e+000
2.913961e+003,1.524593e+000
2.915890e+003,1.535826e+000
2.917818e+003,1.392282e+000
2.919747e+003,1.188241e+000
2.921675e+003,9.963320e-001
2.923604e+003,8.368108e-001
2.925532e+003,7.081237e-001
2.927461e+003,6.027696e-001
2.929389e+003,5.140508e-001
2.931318e+003,4.382327e-001
2.933246e+003,3.729759e-001
2.935175e+003,3.168367e-001
2.937103e+003,2.688561e-001
2.939032e+003,2.279772e-001
2.940960e+003,1.938040e-001
2.942889e+003,1.661710e-001
2.944817e+003,1.448674e-001
2.946746e+003,1.297440e-001
2.948674e+003,1.202882e-001
2.950603e+003,1.149608e-001
2.952531e+003,1.115456e-001
2.954460e+003,1.081810e-001
2.956388e+003,1.039509e-001
2.958317e+003,9.861186e-002
2.960245e+003,9.219585e-002
2.962174e+003,8.473047e-002
2.964102e+003,7.655343e-002
2.966031e+003,6.815975e-002
2.967959e+003,6.014366e-002
2.969888e+003,5.280452e-002
2.971816e+003,4.640910e-002
2.973745e+003,4.096865e-002
2.975673e+003,3.640405e-002
2.977602e+003,3.265082e-002
2.979530e+003,2.956240e-002
2.981459e+003,2.694696e-002
2.983387e+003,2.473380e-002
2.985316e+003,2.297056e-002
2.987244e+003,2.155954e-002
2.989173e+003,2.026803e-002
2.991101e+003,1.907174e-002
2.993030e+003,1.804437e-002
2.994958e+003,1.722025e-002
2.996887e+003,1.643956e-002
2.998815e+003,1.570913e-002
3.000744e+003,1.508071e-002
3.002672e+003,1.454479e-002
3.004601e+003,1.396639e-002
3.006529e+003,1.344430e-002
3.008458e+003,1.306990e-002
3.010386e+003,1.274536e-002
3.012315e+003,1.238072e-002
3.014243e+003,1.200550e-002
3.016172e+003,1.167325e-002
3.018100e+003,1.140708e-002
3.020029e+003,1.115010e-002
3.021957e+003,1.093633e-002
3.023886e+003,1.067689e-002
3.025814e+003,1.045933e-002
3.027743e+003,1.013264e-002
3.029671e+003,9.829346e-003
3.031600e+003,9.599324e-003
3.033528e+003,9.316761e-003
3.035457e+003,8.995928e-003
3.037385e+003,8.666404e-003
3.039314e+003,8.281551e-003
3.041242e+003,7.973216e-003
3.043171e+003,7.700015e-003
3.045099e+003,7.401630e-003
3.047028e+003,7.129621e-003
3.048956e+003,6.940629e-003
3.050885e+003,6.684180e-003
3.052813e+003,6.445475e-003
3.054742e+003,6.218076e-003
3.056670e+003,5.999658e-003
3.058599e+003,5.848344e-003
3.060527e+003,5.769979e-003
3.062456e+003,5.595811e-003
3.064384e+003,5.462915e-003
3.066313e+003,5.329758e-003
3.068241e+003,5.154569e-003
3.070170e+003,5.019255e-003
3.072098e+003,5.003631e-003
3.074027e+003,4.929937e-003
3.075955e+003,4.810885e-003
3.077884e+003,4.700970e-003
3.079812e+003,4.552122e-003
3.081741e+003,4.283130e-003
3.083669e+003,4.116114e-003
3.085598e+003,4.013870e-003
3.087526e+003,3.864590e-003
3.089455e+003,3.709354e-003
3.091383e+003,3.465492e-003
3.093312e+003,3.147066e-003
3.095240e+003,2.913691e-003
3.097169e+003,2.629511e-003
3.099097e+003,2.319269e-003
3.101026e+003,2.193663e-003
3.102954e+003,2.051353e-003
3.104883e+003,1.929421e-003
3.106811e+003,1.865562e-003
3.108740e+003,1.681678e-003
3.110668e+003,1.466572e-003
3.112597e+003,1.391530e-003
3.114525e+003,1.415044e-003
3.116454e+003,1.313213e-003
3.118382e+003,1.082167e-003
3.120311e+003,9.637177e-004
3.122239e+003,9.570755e-004
3.124168e+003,9.970218e-004
3.126096e+003,9.617098e-004
3.128025e+003,8.528419e-004
3.129953e+003,8.119680e-004
3.131882e+003,7.772297e-004
3.133810e+003,8.436255e-004
3.135739e+003,8.623526e-004
3.137667e+003,7.492714e-004
3.139596e+003,6.895103e-004
3.141524e+003,7.430576e-004
3.143453e+003,7.158443e-004
3.145381e+003,7.036142e-004
3.147310e+003,7.571541e-004
3.149238e+003,7.414371e-004
3.151167e+003,6.582029e-004
3.153095e+003,6.641150e-004
3.155024e+003,6.412044e-004
3.156952e+003,5.493425e-004
3.158881e+003,5.879700e-004
3.160809e+003,5.926378e-004
3.162738e+003,5.197152e-004
3.164666e+003,5.836785e-004
3.166594e+003,6.437935e-004
3.168523e+003,6.801747e-004
3.170452e+003,6.604157e-004
3.172380e+003,6.135292e-004
3.174309e+003,7.009171e-004
3.176237e+003,7.199273e-004
3.178166e+003,5.792677e-004
3.180094e+003,5.464032e-004
3.182022e+003,5.710721e-004
3.183951e+003,6.434694e-004
3.185880e+003,6.231293e-004
3.187808e+003,6.177723e-004
3.189737e+003,6.810576e-004
3.191665e+003,7.183477e-004
3.193594e+003,6.980971e-004
3.195522e+003,6.879941e-004
3.197450e+003,6.609485e-004
3.199379e+003,6.519146e-004
3.201308e+003,6.569289e-004
3.203236e+003,5.971007e-004
3.205165e+003,6.203875e-004
3.207093e+003,6.158352e-004
3.209021e+003,5.342104e-004
3.210950e+003,4.673824e-004
3.212878e+003,4.154667e-004
3.214807e+003,5.031005e-004
3.216736e+003,5.508736e-004
3.218664e+003,5.493760e-004
3.220593e+003,5.766116e-004
3.222521e+003,5.977489e-004
3.224449e+003,5.752742e-004
3.226378e+003,5.277582e-004
3.228307e+003,5.731396e-004
3.230235e+003,5.825721e-004
3.232164e+003,5.065538e-004
3.234092e+003,4.803613e-004
3.236021e+003,4.321858e-004
3.237949e+003,4.973337e-004
3.239877e+003,5.649291e-004
3.241806e+003,5.365573e-004
3.243735e+003,5.036630e-004
3.245663e+003,5.683415e-004
3.247592e+003,7.127747e-004
3.249520e+003,7.985607e-004
3.251448e+003,6.982014e-004
3.253377e+003,6.590970e-004
3.255305e+003,6.826892e-004
3.257234e+003,6.312318e-004
3.259163e+003,6.749108e-004
3.261091e+003,7.594936e-004
3.263020e+003,7.763021e-004
3.264948e+003,7.474758e-004
3.266876e+003,7.089935e-004
3.268805e+003,7.421933e-004
3.270733e+003,7.609427e-004
3.272662e+003,8.002110e-004
3.274591e+003,7.872730e-004
3.276519e+003,7.974543e-004
3.278448e+003,8.665398e-004
3.280376e+003,9.546652e-004
3.282304e+003,9.850673e-004
3.284233e+003,9.074919e-004
3.286161e+003,8.008108e-004
3.288090e+003,7.966757e-004
3.290019e+003,8.236170e-004
3.291947e+003,8.102432e-004
3.293875e+003,7.393956e-004
3.295804e+003,7.217266e-004
3.297732e+003,8.441024e-004
3.299661e+003,9.191073e-004
3.301589e+003,9.177439e-004
3.303518e+003,9.591468e-004
3.305447e+003,8.448437e-004
3.307375e+003,7.062629e-004
3.309303e+003,7.920451e-004
3.311232e+003,8.704662e-004
3.313160e+003,9.155050e-004
3.315089e+003,9.682700e-004
3.317018e+003,9.315200e-004
3.318946e+003,8.796714e-004
3.320875e+003,8.846782e-004
3.322803e+003,9.621494e-004
3.324731e+003,1.089320e-003
3.326660e+003,1.161944e-003
3.328588e+003,1.135647e-003
3.330517e+003,1.088783e-003
3.332446e+003,1.003914e-003
3.334374e+003,9.502247e-004
3.336302e+003,9.551421e-004
3.338231e+003,1.013689e-003
3.340159e+003,1.136616e-003
3.342088e+003,1.146965e-003
3.344016e+003,1.078486e-003
3.345945e+003,1.089610e-003
3.347874e+003,1.146659e-003
3.349802e+003,1.139626e-003
3.351730e+003,1.073278e-003
3.353659e+003,9.825826e-004
3.355587e+003,1.005985e-003
3.357516e+003,1.060806e-003
3.359444e+003,1.064859e-003
3.361373e+003,1.187734e-003
3.363302e+003,1.285613e-003
3.365230e+003,1.233615e-003
3.367158e+003,1.203589e-003
3.369087e+003,1.139931e-003
3.371015e+003,1.126513e-003
3.372944e+003,1.229629e-003
3.374872e+003,1.230381e-003
3.376801e+003,1.099914e-003
3.378729e+003,1.042791e-003
3.380658e+003,1.000233e-003
3.382586e+003,9.755194e-004
3.384515e+003,1.066566e-003
3.386443e+003,1.074478e-003
3.388372e+003,9.694099e-004
3.390300e+003,9.028316e-004
3.392229e+003,9.589121e-004
3.394157e+003,1.044311e-003
3.396086e+003,1.042567e-003
3.398014e+003,9.597540e-004
3.399943e+003,8.292869e-004
3.401871e+003,7.641539e-004
3.403800e+003,7.062480e-004
3.405728e+003,6.994605e-004
3.407657e+003,7.270947e-004
3.409585e+003,7.555857e-004
3.411514e+003,8.109212e-004
3.413442e+003,8.557960e-004
3.415371e+003,7.427409e-004
3.417299e+003,5.514994e-004
3.419228e+003,5.506054e-004
3.421156e+003,6.168410e-004
3.423085e+003,6.192997e-004
3.425013e+003,6.943047e-004
3.426942e+003,6.431714e-004
3.428870e+003,6.389841e-004
3.430799e+003,7.490516e-004
3.432727e+003,6.740764e-004
3.434656e+003,6.028265e-004
3.436584e+003,5.310327e-004
3.438513e+003,4.790127e-004
3.440441e+003,4.982725e-004
3.442370e+003,5.191118e-004
3.444298e+003,5.399659e-004
3.446227e+003,6.032065e-004
3.448155e+003,6.069317e-004
3.450084e+003,5.060360e-004
3.452012e+003,4.383698e-004
3.453941e+003,3.806725e-004
3.455869e+003,4.121438e-004
3.457798e+003,4.468858e-004
3.459726e+003,4.223809e-004
3.461655e+003,4.856735e-004
3.463583e+003,4.934147e-004
3.465512e+003,3.378838e-004
3.467440e+003,1.616701e-004
3.469369e+003,7.580966e-005
3.471297e+003,1.510680e-004
3.473226e+003,1.684874e-004
3.475154e+003,1.696795e-004
3.477083e+003,8.060038e-005
3.479011e+003,-4.022568e-005
3.480940e+003,7.934868e-006
3.482868e+003,1.587346e-004
3.484797e+003,4.605949e-005
3.486725e+003,-1.332313e-004
3.488654e+003,-1.453906e-004
3.490582e+003,-2.324432e-004
3.492511e+003,-2.840683e-004
3.494439e+003,-2.575144e-004
3.496368e+003,-3.340170e-004
3.498296e+003,-3.942624e-004
3.500225e+003,-3.101006e-004
3.502153e+003,-2.421811e-004
3.504082e+003,-2.801791e-004
3.506010e+003,-3.393292e-004
3.507939e+003,-3.289953e-004
3.509867e+003,-2.695695e-004
3.511796e+003,-3.822818e-004
3.513724e+003,-4.723892e-004
3.515653e+003,-4.973859e-004
3.517581e+003,-5.028173e-004
3.519510e+003,-5.199537e-004
3.521438e+003,-5.144477e-004
3.523367e+003,-4.151911e-004
3.525295e+003,-5.446374e-004
3.527224e+003,-5.921051e-004
3.529152e+003,-6.291270e-004
3.531081e+003,-6.874427e-004
3.533009e+003,-6.894693e-004
3.534938e+003,-6.303713e-004
3.536866e+003,-5.410984e-004
3.538795e+003,-8.454621e-004
3.540723e+003,-1.128420e-003
3.542652e+003,-1.041383e-003
3.544580e+003,-7.742643e-004
3.546509e+003,-6.330609e-004
3.548437e+003,-8.452609e-004
3.550366e+003,-9.995773e-004
3.552294e+003,-7.918105e-004
3.554223e+003,-6.354451e-004
3.556151e+003,-7.599071e-004
3.558080e+003,-9.072646e-004
3.560008e+003,-8.800328e-004
3.561937e+003,-9.796917e-004
3.563865e+003,-1.064032e-003
3.565794e+003,-7.982999e-004
3.567722e+003,-4.307479e-004
3.569651e+003,-7.251799e-004
3.571579e+003,-1.106367e-003
3.573508e+003,-1.185820e-003
3.575436e+003,-1.091376e-003
3.577365e+003,-1.066349e-003
3.579293e+003,-1.078703e-003
3.581222e+003,-1.102470e-003
3.583150e+003,-1.094654e-003
3.585079e+003,-9.912178e-004
3.587007e+003,-3.853813e-004
3.588936e+003,-1.401827e-004
3.590864e+003,-3.721789e-004
3.592793e+003,-2.427250e-004
3.594721e+003,4.321933e-004
3.596650e+003,8.130148e-004
3.598578e+003,1.004234e-003
3.600507e+003,1.455642e-003
3.602435e+003,1.541018e-003
3.604364e+003,1.216367e-003
3.606292e+003,1.160763e-003
3.608221e+003,1.260214e-003
3.610149e+003,8.619204e-004
3.612078e+003,6.593093e-004
3.614006e+003,7.271916e-004
3.615935e+003,3.423765e-004
3.617863e+003,3.219470e-004
3.619792e+003,6.582364e-004
3.621720e+003,1.990348e-004
3.623649e+003,-2.252832e-004
3.625577e+003,-3.913492e-004
3.627506e+003,7.193536e-005
3.629434e+003,9.454936e-004
3.631363e+003,4.090592e-004
3.633291e+003,3.505647e-004
3.635220e+003,1.140460e-004
3.637148e+003,-5.180389e-005
3.639077e+003,-4.309416e-005
3.641005e+003,-2.179295e-005
3.642934e+003,-7.572025e-005
3.644862e+003,-4.149824e-004
3.646791e+003,-2.158731e-004
3.648719e+003,9.477735e-004
3.650648e+003,9.131506e-004
3.652576e+003,3.547221e-005
3.654505e+003,-2.688617e-004
3.656433e+003,-1.074821e-004
3.658362e+003,-2.374575e-004
3.660290e+003,-3.366545e-004
3.662219e+003,-4.898086e-004
3.664147e+003,-6.587058e-004
3.666076e+003,-8.477047e-004
3.668004e+003,-6.081238e-004
3.669933e+003,3.884658e-004
3.671861e+003,-2.061576e-004
3.673790e+003,-6.626248e-004
3.675718e+003,3.776029e-004
3.677647e+003,1.920760e-005
3.679575e+003,-1.474023e-004
3.681504e+003,-3.799349e-004
3.683432e+003,-6.844476e-004
3.685361e+003,-9.393692e-004
3.687289e+003,-8.425415e-004
3.689218e+003,1.379848e-005
3.691146e+003,5.471483e-004
3.693075e+003,1.565814e-004
3.695003e+003,-2.945513e-004
3.696932e+003,-4.851446e-004
3.698860e+003,-5.641580e-004
3.700789e+003,-3.751814e-004
3.702717e+003,-2.385378e-004
3.704646e+003,-4.422069e-004
3.706574e+003,-5.228072e-004
3.708503e+003,-3.377646e-004
3.710431e+003,3.136992e-004
3.712360e+003,3.174096e-004
3.714288e+003,-2.124608e-004
3.716217e+003,-6.058589e-004
3.718145e+003,-8.126348e-004
3.720074e+003,-1.022562e-003
3.722002e+003,-9.254068e-004
3.723931e+003,-6.893650e-004
3.725859e+003,-1.966208e-004
3.727788e+003,-7.082522e-005
3.729716e+003,-5.491674e-004
3.731645e+003,-6.757230e-004
3.733573e+003,-1.736805e-004
3.735502e+003,8.574501e-004
3.737430e+003,3.376752e-004
3.739359e+003,-4.021674e-004
3.741287e+003,-8.397475e-004
3.743216e+003,-6.614998e-004
3.745144e+003,5.481467e-004
3.747073e+003,1.016706e-004
3.749001e+003,-6.077439e-005
3.750930e+003,6.084517e-004
3.752858e+003,6.154180e-004
3.754787e+003,-2.513677e-004
3.756715e+003,-6.461516e-004
3.758644e+003,-3.796220e-004
3.760572e+003,-1.041815e-004
3.762501e+003,-4.905686e-004
3.764429e+003,-6.861314e-004
3.766358e+003,-5.112588e-004
3.768286e+003,-3.397092e-004
3.770215e+003,-1.344383e-004
3.772143e+003,-3.632978e-004
3.774072e+003,-6.379634e-004
3.776000e+003,-7.757917e-004
3.777929e+003,-6.680563e-004
3.779857e+003,-1.732633e-004
3.781786e+003,-3.666207e-004
3.783714e+003,-4.152805e-004
3.785643e+003,-1.280755e-004
3.787571e+003,-7.504225e-005
3.789500e+003,-2.652183e-004
3.791428e+003,-3.243238e-004
3.793357e+003,-3.231987e-004
3.795285e+003,-2.258718e-004
3.797214e+003,-1.568645e-004
3.799142e+003,-3.557280e-004
3.801071e+003,4.688427e-004
3.802999e+003,5.384907e-004
3.804927e+003,-2.806634e-005
3.806856e+003,3.899485e-004
3.808785e+003,4.934072e-004
3.810713e+003,1.409426e-004
3.812642e+003,-2.477020e-004
3.814570e+003,-2.856478e-004
3.816499e+003,3.317669e-004
3.818427e+003,1.225322e-004
3.820355e+003,6.230026e-004
3.822284e+003,1.097389e-003
3.824213e+003,4.661456e-004
3.826141e+003,2.040491e-004
3.828070e+003,-4.422665e-005
3.829998e+003,-1.181886e-004
3.831927e+003,-2.868474e-006
3.833855e+003,2.250075e-006
3.835783e+003,2.301335e-004
3.837712e+003,5.996004e-004
3.839641e+003,8.376911e-004
3.841569e+003,6.993487e-004
3.843498e+003,5.347654e-004
3.845426e+003,3.390089e-004
3.847354e+003,-2.828985e-005
3.849283e+003,-4.774407e-004
3.851211e+003,-7.021502e-004
3.853140e+003,6.563663e-004
3.855069e+003,9.524673e-004
3.856997e+003,5.738512e-004
3.858926e+003,2.311543e-004
3.860854e+003,1.895800e-004
3.862782e+003,4.521087e-004
3.864711e+003,7.872283e-004
3.866640e+003,4.205927e-004
3.868568e+003,3.508776e-004
3.870497e+003,8.177310e-004
3.872425e+003,6.017312e-004
3.874354e+003,6.678253e-004
3.876282e+003,4.580095e-004
3.878210e+003,2.950132e-004
3.880139e+003,6.616190e-004
3.882068e+003,7.858425e-004
3.883996e+003,6.406307e-004
3.885925e+003,8.132905e-004
3.887853e+003,4.666969e-004
3.889781e+003,4.270449e-004
3.891710e+003,8.127615e-004
3.893638e+003,5.844906e-004
3.895567e+003,2.090484e-004
3.897496e+003,2.337247e-004
3.899424e+003,5.649477e-004
3.901353e+003,6.709099e-004
3.903281e+003,8.532777e-004
3.905209e+003,9.711608e-004
3.907138e+003,5.877987e-004
3.909066e+003,5.264506e-004
3.910995e+003,5.849525e-004
3.912924e+003,3.348216e-004
3.914852e+003,2.435446e-004
3.916781e+003,4.566684e-004
3.918709e+003,5.950853e-004
3.920637e+003,4.441589e-004
3.922566e+003,2.845228e-004
3.924494e+003,6.429255e-004
3.926423e+003,6.870031e-004
3.928352e+003,4.559085e-004
3.930280e+003,3.859624e-004
3.932208e+003,4.140288e-004
3.934137e+003,4.263073e-004
3.936065e+003,2.453849e-004
3.937994e+003,1.739785e-004
3.939922e+003,2.019852e-004
3.941851e+003,2.801418e-004
3.943780e+003,4.132912e-004
3.945708e+003,2.575889e-004
3.947636e+003,9.886920e-005
3.949565e+003,2.291203e-004
3.951493e+003,2.516061e-004
3.953422e+003,1.797602e-004
3.955351e+003,1.803339e-004
3.957279e+003,1.585484e-004
3.959208e+003,2.134070e-004
3.961136e+003,2.504811e-004
3.963064e+003,2.859533e-004
3.964993e+003,3.538802e-004
3.966921e+003,3.304631e-004
3.968850e+003,2.199784e-004
3.970779e+003,1.795590e-004
3.972707e+003,3.238022e-004
3.974635e+003,3.804564e-004
3.976564e+003,3.753081e-004
3.978492e+003,3.169477e-004
3.980421e+003,3.394783e-004
3.982349e+003,3.223047e-004
3.984278e+003,2.271011e-004
3.986207e+003,1.688376e-004
3.988135e+003,2.063885e-004
3.990063e+003,2.235100e-004
3.991992e+003,2.106503e-004
3.993920e+003,1.706481e-004
3.995849e+003,1.184270e-004
3.997777e+003,8.179992e-005
3.999706e+003,2.284646e-004
4.001635e+003,0.000000e+000
