3.991992e+002,0.000000e+000
4.011277e+002,0.000000e+000
4.030562e+002,0.000000e+000
4.049846e+002,0.000000e+000
4.069131e+002,0.000000e+000
4.088416e+002,0.000000e+000
4.107701e+002,0.000000e+000
4.126986e+002,0.000000e+000
4.146271e+002,0.000000e+000
4.165556e+002,0.000000e+000
4.184841e+002,0.000000e+000
4.204126e+002,0.000000e+000
4.223411e+002,0.000000e+000
4.242697e+002,0.000000e+000
4.261982e+002,0.000000e+000
4.281266e+002,0.000000e+000
4.300551e+002,0.000000e+000
4.319836e+002,0.000000e+000
4.339121e+002,0.000000e+000
4.358406e+002,0.000000e+000
4.377691e+002,0.000000e+000
4.396976e+002,0.000000e+000
4.416261e+002,0.000000e+000
4.435546e+002,0.000000e+000
4.454831e+002,0.000000e+000
4.474116e+002,0.000000e+000
4.493401e+002,0.000000e+000
4.512686e+002,0.000000e+000
4.531971e+002,0.000000e+000
4.551256e+002,0.000000e+000
4.570541e+002,0.000000e+000
4.589826e+002,0.000000e+000
4.609111e+002,0.000000e+000
4.628396e+002,0.000000e+000
4.647681e+002,0.000000e+000
4.666966e+002,0.000000e+000
4.686251e+002,0.000000e+000
4.705536e+002,0.000000e+000
4.724821e+002,0.000000e+000
4.744106e+002,0.000000e+000
4.763391e+002,0.000000e+000
4.782676e+002,0.000000e+000
4.801961e+002,0.000000e+000
4.821246e+002,0.000000e+000
4.840531e+002,0.000000e+000
4.859816e+002,0.000000e+000
4.879101e+002,0.000000e+000
4.898386e+002,0.000000e+000
4.917671e+002,0.000000e+000
4.936956e+002,0.000000e+000
4.956241e+002,0.000000e+000
4.975526e+002,0.000000e+000
4.994811e+002,0.000000e+000
5.014096e+002,0.000000e+000
5.033381e+002,0.000000e+000
5.052666e+002,0.000000e+000
5.071951e+002,0.000000e+000
5.091236e+002,0.000000e+000
5.110521e+002,0.000000e+000
5.129806e+002,0.000000e+000
5.149091e+002,0.000000e+000
5.168376e+002,0.000000e+000
5.187661e+002,0.000000e+000
5.206946e+002,0.000000e+000
5.226230e+002,0.000000e+000
5.245516e+002,-1.493674e-004
5.264800e+002,-4.132884e-005
5.284086e+002,-1.405706e-004
5.303370e+002,-1.578322e-004
5.322656e+002,2.366956e-005
5.341940e+002,-1.287055e-004
5.361226e+002,-2.200084e-004
5.380510e+002,-7.548649e-005
5.399796e+002,-1.083803e-004
5.419081e+002,-2.843810e-004
5.438365e+002,-2.029901e-004
5.457650e+002,-2.964360e-004
5.476935e+002,-2.930760e-004
5.496221e+002,-8.193636e-005
5.515505e+002,-2.150610e-005
5.534790e+002,5.276036e-005
5.554075e+002,1.529744e-005
5.573361e+002,-1.619949e-004
5.592645e+002,-1.508403e-004
5.611931e+002,-5.102996e-005
5.631215e+002,5.266583e-005
5.650500e+002,6.449455e-005
5.669785e+002,1.036278e-004
5.689070e+002,1.155557e-004
5.708355e+002,2.308022e-004
5.727640e+002,2.751378e-004
5.746925e+002,3.651404e-004
5.766210e+002,4.998897e-004
5.785495e+002,5.617240e-004
5.804780e+002,5.957205e-004
5.824065e+002,5.862853e-004
5.843350e+002,3.908831e-004
5.862635e+002,3.432771e-004
5.881920e+002,3.181510e-004
5.901205e+002,3.510485e-004
5.920490e+002,3.376314e-004
5.939775e+002,2.475264e-004
5.959060e+002,3.332775e-004
5.978345e+002,5.074702e-004
5.997630e+002,5.251253e-004
6.016915e+002,4.374655e-004
6.036200e+002,3.711381e-004
6.055485e+002,3.878428e-004
6.074770e+002,2.536699e-004
6.094055e+002,1.504989e-004
6.113340e+002,1.768125e-004
6.132625e+002,1.242375e-004
6.151910e+002,1.072222e-004
6.171195e+002,7.518334e-005
6.190480e+002,-5.835574e-005
6.209765e+002,-1.009428e-004
6.229050e+002,-6.638095e-005
6.248335e+002,5.159574e-005
6.267620e+002,9.463634e-005
6.286905e+002,1.448067e-004
6.306190e+002,3.101788e-004
6.325475e+002,5.113385e-004
6.344760e+002,5.314201e-004
6.364045e+002,5.637384e-004
6.383330e+002,5.614473e-004
6.402615e+002,6.027366e-004
6.421899e+002,6.436794e-004
6.441185e+002,7.100110e-004
6.460470e+002,7.770206e-004
6.479755e+002,8.945582e-004
6.499039e+002,8.634548e-004
6.518325e+002,8.758814e-004
6.537610e+002,8.606017e-004
6.556895e+002,1.008992e-003
6.576179e+002,1.131703e-003
6.595464e+002,1.162476e-003
6.614750e+002,1.197322e-003
6.634034e+002,1.416062e-003
6.653319e+002,1.478928e-003
6.672604e+002,1.629162e-003
6.691890e+002,1.866675e-003
6.711174e+002,2.068536e-003
6.730460e+002,2.183406e-003
6.749745e+002,2.432091e-003
6.769030e+002,2.688266e-003
6.788314e+002,2.911255e-003
6.807599e+002,3.068502e-003
6.826885e+002,3.429232e-003
6.846169e+002,3.770772e-003
6.865454e+002,4.197337e-003
6.884739e+002,4.605768e-003
6.904025e+002,4.986459e-003
6.923309e+002,5.393479e-003
6.942594e+002,6.010049e-003
6.961879e+002,6.525825e-003
6.981165e+002,7.244663e-003
7.000449e+002,8.170538e-003
7.019734e+002,9.408977e-003
7.039019e+002,1.081570e-002
7.058304e+002,1.287438e-002
7.077589e+002,1.572235e-002
7.096874e+002,1.990819e-002
7.116159e+002,2.642040e-002
7.135444e+002,3.838408e-002
7.154729e+002,5.933450e-002
7.174014e+002,8.795811e-002
7.193299e+002,1.021942e-001
7.212584e+002,8.139844e-002
7.231869e+002,5.818519e-002
7.251154e+002,5.004345e-002
7.270439e+002,5.449509e-002
7.289724e+002,6.658778e-002
7.309009e+002,6.034713e-002
7.328294e+002,3.604127e-002
7.347579e+002,2.087899e-002
7.366864e+002,1.518924e-002
7.386149e+002,1.249695e-002
7.405434e+002,1.073909e-002
7.424719e+002,9.526256e-003
7.444004e+002,8.558040e-003
7.463289e+002,7.798093e-003
7.482574e+002,7.108279e-003
7.501859e+002,6.612672e-003
7.521144e+002,6.195746e-003
7.540428e+002,5.778918e-003
7.559714e+002,5.429009e-003
7.578999e+002,5.269118e-003
7.598284e+002,5.204081e-003
7.617568e+002,5.076537e-003
7.636854e+002,4.904207e-003
7.656139e+002,4.886939e-003
7.675424e+002,4.852419e-003
7.694709e+002,4.655619e-003
7.713994e+002,4.396061e-003
7.733279e+002,4.159679e-003
7.752563e+002,3.928931e-003
7.771849e+002,3.830968e-003
7.791134e+002,3.746974e-003
7.810419e+002,3.550117e-003
7.829703e+002,3.386270e-003
7.848989e+002,3.171685e-003
7.868274e+002,3.020059e-003
7.887559e+002,2.961073e-003
7.906843e+002,2.949133e-003
7.926129e+002,2.960832e-003
7.945414e+002,2.960653e-003
7.964698e+002,2.890875e-003
7.983983e+002,2.818347e-003
8.003268e+002,2.810467e-003
8.022554e+002,2.858886e-003
8.041838e+002,2.906309e-003
8.061123e+002,2.930801e-003
8.080408e+002,2.917567e-003
8.099694e+002,2.882835e-003
8.118978e+002,2.803410e-003
8.138263e+002,2.796941e-003
8.157548e+002,2.768403e-003
8.176833e+002,2.721042e-003
8.196118e+002,2.689596e-003
8.215403e+002,2.736457e-003
8.234689e+002,2.782977e-003
8.253973e+002,2.785136e-003
8.273258e+002,2.841685e-003
8.292543e+002,2.935939e-003
8.311829e+002,2.910311e-003
8.331113e+002,2.861448e-003
8.350398e+002,2.877937e-003
8.369683e+002,2.936437e-003
8.388969e+002,3.026011e-003
8.408253e+002,3.152448e-003
8.427538e+002,3.249232e-003
8.446823e+002,3.279654e-003
8.466108e+002,3.372386e-003
8.485393e+002,3.482711e-003
8.504678e+002,3.570842e-003
8.523963e+002,3.645753e-003
8.543248e+002,3.589703e-003
8.562533e+002,3.603963e-003
8.581818e+002,3.624000e-003
8.601103e+002,3.652765e-003
8.620388e+002,3.626868e-003
8.639673e+002,3.709605e-003
8.658958e+002,3.797123e-003
8.678243e+002,3.871125e-003
8.697528e+002,3.852799e-003
8.716813e+002,3.900844e-003
8.736098e+002,3.978690e-003
8.755383e+002,4.061128e-003
8.774668e+002,4.085627e-003
8.793953e+002,4.184125e-003
8.813238e+002,4.350353e-003
8.832523e+002,4.488324e-003
8.851808e+002,4.683553e-003
8.871093e+002,4.868505e-003
8.890378e+002,4.908677e-003
8.909663e+002,4.853287e-003
8.928948e+002,4.667862e-003
8.948232e+002,4.467688e-003
8.967518e+002,4.354206e-003
8.986803e+002,4.339227e-003
9.006088e+002,4.319106e-003
9.025372e+002,4.353968e-003
9.044658e+002,4.494508e-003
9.063943e+002,4.764458e-003
9.083228e+002,4.875766e-003
9.102512e+002,4.712002e-003
9.121797e+002,4.499681e-003
9.141083e+002,4.403871e-003
9.160367e+002,4.290963e-003
9.179653e+002,4.229284e-003
9.198937e+002,4.154216e-003
9.218223e+002,4.160137e-003
9.237507e+002,4.171968e-003
9.256793e+002,4.170910e-003
9.276077e+002,4.171744e-003
9.295363e+002,4.236603e-003
9.314647e+002,4.348434e-003
9.333932e+002,4.497550e-003
9.353217e+002,4.579581e-003
9.372502e+002,4.650590e-003
9.391787e+002,4.723059e-003
9.411072e+002,4.837099e-003
9.430358e+002,4.941135e-003
9.449642e+002,5.085798e-003
9.468928e+002,5.190104e-003
9.488212e+002,5.334669e-003
9.507498e+002,5.462502e-003
9.526782e+002,5.644967e-003
9.546068e+002,5.771263e-003
9.565352e+002,5.938148e-003
9.584637e+002,6.122267e-003
9.603922e+002,6.336612e-003
9.623207e+002,6.472584e-003
9.642492e+002,6.607138e-003
9.661777e+002,6.646038e-003
9.681062e+002,6.692438e-003
9.700347e+002,6.654456e-003
9.719632e+002,6.602243e-003
9.738917e+002,6.496620e-003
9.758202e+002,6.453412e-003
9.777487e+002,6.418548e-003
9.796772e+002,6.458326e-003
9.816057e+002,6.536804e-003
9.835342e+002,6.685292e-003
9.854627e+002,6.787037e-003
9.873912e+002,6.846766e-003
9.893197e+002,6.894074e-003
9.912482e+002,6.974050e-003
9.931767e+002,7.014761e-003
9.951052e+002,7.111042e-003
9.970337e+002,7.147731e-003
9.989622e+002,7.235209e-003
1.000891e+003,7.322158e-003
1.002819e+003,7.424985e-003
1.004748e+003,7.552702e-003
1.006676e+003,7.765177e-003
1.008605e+003,7.932481e-003
1.010533e+003,8.096974e-003
1.012462e+003,8.279154e-003
1.014390e+003,8.495176e-003
1.016319e+003,8.662047e-003
1.018247e+003,8.941045e-003
1.020176e+003,9.125834e-003
1.022104e+003,9.239756e-003
1.024033e+003,9.327249e-003
1.025961e+003,9.507071e-003
1.027890e+003,9.658981e-003
1.029818e+003,9.800633e-003
1.031747e+003,9.871550e-003
1.033675e+003,9.917316e-003
1.035604e+003,9.855118e-003
1.037532e+003,9.854376e-003
1.039461e+003,9.809436e-003
1.041389e+003,9.799017e-003
1.043318e+003,9.836494e-003
1.045246e+003,9.976626e-003
1.047175e+003,1.020267e-002
1.049103e+003,1.053659e-002
1.051032e+003,1.081339e-002
1.052960e+003,1.105179e-002
1.054889e+003,1.129331e-002
1.056817e+003,1.162433e-002
1.058746e+003,1.195712e-002
1.060674e+003,1.224809e-002
1.062603e+003,1.245803e-002
1.064531e+003,1.272696e-002
1.066460e+003,1.283462e-002
1.068388e+003,1.295381e-002
1.070317e+003,1.320473e-002
1.072245e+003,1.362991e-002
1.074174e+003,1.423339e-002
1.076102e+003,1.499565e-002
1.078031e+003,1.582958e-002
1.079959e+003,1.673673e-002
1.081888e+003,1.761963e-002
1.083816e+003,1.843052e-002
1.085745e+003,1.906388e-002
1.087673e+003,1.976581e-002
1.089602e+003,2.055388e-002
1.091530e+003,2.130896e-002
1.093459e+003,2.185557e-002
1.095387e+003,2.220352e-002
1.097316e+003,2.216798e-002
1.099244e+003,2.191633e-002
1.101173e+003,2.148621e-002
1.103101e+003,2.102208e-002
1.105030e+003,2.055070e-002
1.106958e+003,2.025614e-002
1.108887e+003,2.027119e-002
1.110815e+003,2.069916e-002
1.112744e+003,2.135189e-002
1.114672e+003,2.217714e-002
1.116601e+003,2.281332e-002
1.118529e+003,2.309604e-002
1.120458e+003,2.287701e-002
1.122386e+003,2.215887e-002
1.124315e+003,2.112927e-002
1.126243e+003,2.035743e-002
1.128172e+003,2.012249e-002
1.130100e+003,2.062295e-002
1.132029e+003,2.174941e-002
1.133957e+003,2.356641e-002
1.135885e+003,2.572232e-002
1.137814e+003,2.796584e-002
1.139743e+003,2.999693e-002
1.141671e+003,3.163597e-002
1.143600e+003,3.277671e-002
1.145528e+003,3.366569e-002
1.147457e+003,3.445500e-002
1.149385e+003,3.537500e-002
1.151314e+003,3.647049e-002
1.153242e+003,3.769575e-002
1.155171e+003,3.886487e-002
1.157099e+003,3.994447e-002
1.159028e+003,4.076554e-002
1.160956e+003,4.129852e-002
1.162885e+003,4.141042e-002
1.164813e+003,4.113195e-002
1.166742e+003,4.043477e-002
1.168670e+003,3.945635e-002
1.170599e+003,3.825181e-002
1.172527e+003,3.697225e-002
1.174456e+003,3.562073e-002
1.176384e+003,3.426301e-002
1.178313e+003,3.281429e-002
1.180241e+003,3.138727e-002
1.182170e+003,3.010643e-002
1.184098e+003,2.897811e-002
1.186027e+003,2.793070e-002
1.187955e+003,2.703407e-002
1.189884e+003,2.614302e-002
1.191812e+003,2.528786e-002
1.193740e+003,2.445203e-002
1.195669e+003,2.363881e-002
1.197598e+003,2.286102e-002
1.199526e+003,2.227786e-002
1.201455e+003,2.177055e-002
1.203383e+003,2.140314e-002
1.205312e+003,2.117455e-002
1.207240e+003,2.107700e-002
1.209168e+003,2.103727e-002
1.211097e+003,2.105829e-002
1.213026e+003,2.104198e-002
1.214954e+003,2.114888e-002
1.216883e+003,2.128979e-002
1.218811e+003,2.156212e-002
1.220740e+003,2.188148e-002
1.222668e+003,2.230786e-002
1.224596e+003,2.272886e-002
1.226525e+003,2.319499e-002
1.228453e+003,2.361829e-002
1.230382e+003,2.408404e-002
1.232311e+003,2.445664e-002
1.234239e+003,2.479898e-002
1.236167e+003,2.502489e-002
1.238096e+003,2.519759e-002
1.240025e+003,2.514946e-002
1.241953e+003,2.489557e-002
1.243882e+003,2.438824e-002
1.245810e+003,2.369046e-002
1.247739e+003,2.280358e-002
1.249667e+003,2.199749e-002
1.251595e+003,2.133144e-002
1.253524e+003,2.089194e-002
1.255453e+003,2.061196e-002
1.257381e+003,2.047904e-002
1.259310e+003,2.025256e-002
1.261238e+003,1.998518e-002
1.263167e+003,1.960528e-002
1.265095e+003,1.933857e-002
1.267023e+003,1.906028e-002
1.268952e+003,1.881208e-002
1.270880e+003,1.859012e-002
1.272809e+003,1.850058e-002
1.274738e+003,1.847351e-002
1.276666e+003,1.857754e-002
1.278594e+003,1.859181e-002
1.280523e+003,1.852396e-002
1.282451e+003,1.819240e-002
1.284380e+003,1.781584e-002
1.286308e+003,1.749597e-002
1.288237e+003,1.736159e-002
1.290166e+003,1.730372e-002
1.292094e+003,1.753105e-002
1.294022e+003,1.781614e-002
1.295951e+003,1.817713e-002
1.297879e+003,1.836657e-002
1.299808e+003,1.854254e-002
1.301736e+003,1.854027e-002
1.303665e+003,1.846012e-002
1.305594e+003,1.825256e-002
1.307522e+003,1.806048e-002
1.309450e+003,1.774860e-002
1.311379e+003,1.759070e-002
1.313307e+003,1.737361e-002
1.315236e+003,1.703242e-002
1.317164e+003,1.666028e-002
1.319093e+003,1.635953e-002
1.321021e+003,1.580377e-002
1.322950e+003,1.527232e-002
1.324878e+003,1.474078e-002
1.326807e+003,1.438552e-002
1.328735e+003,1.414048e-002
1.330664e+003,1.412999e-002
1.332592e+003,1.432067e-002
1.334521e+003,1.491690e-002
1.336449e+003,1.588806e-002
1.338378e+003,1.737187e-002
1.340306e+003,1.829666e-002
1.342235e+003,1.839489e-002
1.344163e+003,1.877520e-002
1.346092e+003,1.957828e-002
1.348021e+003,2.038669e-002
1.349949e+003,2.115594e-002
1.351877e+003,2.153150e-002
1.353806e+003,2.167496e-002
1.355734e+003,2.157525e-002
1.357663e+003,2.166812e-002
1.359591e+003,2.213808e-002
1.361520e+003,2.331545e-002
1.363448e+003,2.452116e-002
1.365377e+003,2.511079e-002
1.367305e+003,2.591995e-002
1.369234e+003,2.658874e-002
1.371162e+003,2.654828e-002
1.373091e+003,2.753573e-002
1.375019e+003,3.020534e-002
1.376948e+003,3.167801e-002
1.378876e+003,2.977265e-002
1.380805e+003,2.471201e-002
1.382733e+003,1.970926e-002
1.384662e+003,1.661820e-002
1.386590e+003,1.489009e-002
1.388519e+003,1.337939e-002
1.390447e+003,1.208753e-002
1.392376e+003,1.169889e-002
1.394304e+003,1.196648e-002
1.396233e+003,1.215215e-002
1.398161e+003,1.195889e-002
1.400090e+003,1.209556e-002
1.402018e+003,1.171790e-002
1.403947e+003,1.197053e-002
1.405875e+003,1.174056e-002
1.407804e+003,1.152434e-002
1.409732e+003,1.177287e-002
1.411661e+003,1.282000e-002
1.413589e+003,1.368405e-002
1.415518e+003,1.493333e-002
1.417446e+003,1.594547e-002
1.419375e+003,1.657098e-002
1.421303e+003,1.565907e-002
1.423232e+003,1.615790e-002
1.425160e+003,1.722943e-002
1.427089e+003,1.889997e-002
1.429017e+003,2.188771e-002
1.430946e+003,2.628883e-002
1.432874e+003,2.969112e-002
1.434803e+003,3.306998e-002
1.436731e+003,3.718954e-002
1.438660e+003,3.995399e-002
1.440588e+003,4.143453e-002
1.442517e+003,4.405410e-002
1.444445e+003,4.632328e-002
1.446374e+003,4.952186e-002
1.448302e+003,5.398570e-002
1.450231e+003,5.997950e-002
1.452159e+003,6.925429e-002
1.454088e+003,8.087393e-002
1.456016e+003,9.266277e-002
1.457945e+003,1.138097e-001
1.459873e+003,1.460132e-001
1.461802e+003,1.813600e-001
1.463730e+003,1.861421e-001
1.465659e+003,1.520268e-001
1.467587e+003,1.365452e-001
1.469516e+003,1.290140e-001
1.471444e+003,1.373272e-001
1.473373e+003,1.155198e-001
1.475301e+003,6.485427e-002
1.477230e+003,3.148189e-002
1.479158e+003,2.126084e-002
1.481087e+003,1.626517e-002
1.483015e+003,1.376699e-002
1.484944e+003,1.188619e-002
1.486872e+003,1.189370e-002
1.488801e+003,1.124119e-002
1.490729e+003,1.050733e-002
1.492658e+003,8.363349e-003
1.494586e+003,8.258736e-003
1.496515e+003,8.284548e-003
1.498443e+003,8.212188e-003
1.500372e+003,7.070519e-003
1.502300e+003,6.883254e-003
1.504229e+003,6.561072e-003
1.506157e+003,8.846771e-003
1.508086e+003,8.768624e-003
1.510014e+003,7.343909e-003
1.511943e+003,6.153585e-003
1.513871e+003,6.077554e-003
1.515800e+003,6.596698e-003
1.517728e+003,7.083955e-003
1.519657e+003,6.342550e-003
1.521585e+003,7.667470e-003
1.523514e+003,6.520138e-003
1.525442e+003,6.173878e-003
1.527371e+003,5.733685e-003
1.529299e+003,5.260880e-003
1.531228e+003,4.837611e-003
1.533156e+003,5.836437e-003
1.535085e+003,5.351292e-003
1.537013e+003,5.106284e-003
1.538942e+003,6.289292e-003
1.540870e+003,8.676706e-003
1.542799e+003,6.792591e-003
1.544727e+003,6.004549e-003
1.546656e+003,4.601145e-003
1.548584e+003,4.594597e-003
1.550513e+003,4.761655e-003
1.552441e+003,4.663573e-003
1.554370e+003,5.124356e-003
1.556298e+003,5.524495e-003
1.558227e+003,6.414047e-003
1.560155e+003,5.987737e-003
1.562084e+003,4.014758e-003
1.564012e+003,3.889841e-003
1.565941e+003,3.861035e-003
1.567869e+003,3.872568e-003
1.569798e+003,4.310906e-003
1.571726e+003,3.901755e-003
1.573655e+003,3.436917e-003
1.575583e+003,4.340173e-003
1.577512e+003,4.235294e-003
1.579440e+003,3.318948e-003
1.581369e+003,3.018476e-003
1.583297e+003,3.149376e-003
1.585226e+003,3.071455e-003
1.587154e+003,3.130652e-003
1.589083e+003,3.204560e-003
1.591011e+003,3.284228e-003
1.592940e+003,3.210946e-003
1.594868e+003,3.381347e-003
1.596797e+003,3.257818e-003
1.598725e+003,3.182404e-003
1.600654e+003,3.213175e-003
1.602582e+003,3.407985e-003
1.604511e+003,3.265730e-003
1.606439e+003,3.330929e-003
1.608368e+003,3.399016e-003
1.610296e+003,3.344436e-003
1.612225e+003,3.158731e-003
1.614153e+003,3.356015e-003
1.616082e+003,4.127132e-003
1.618010e+003,4.352860e-003
1.619939e+003,3.583751e-003
1.621867e+003,3.878094e-003
1.623796e+003,4.474283e-003
1.625724e+003,4.000752e-003
1.627653e+003,3.874214e-003
1.629581e+003,3.864123e-003
1.631510e+003,3.643968e-003
1.633438e+003,3.950864e-003
1.635367e+003,5.499151e-003
1.637295e+003,5.541851e-003
1.639224e+003,4.278711e-003
1.641152e+003,4.195156e-003
1.643081e+003,4.409235e-003
1.645009e+003,5.041732e-003
1.646938e+003,6.721739e-003
1.648866e+003,6.215353e-003
1.650795e+003,5.392822e-003
1.652723e+003,6.968136e-003
1.654652e+003,6.787985e-003
1.656580e+003,5.234098e-003
1.658509e+003,4.564783e-003
1.660437e+003,4.513613e-003
1.662366e+003,4.734079e-003
1.664294e+003,4.535874e-003
1.666223e+003,4.196746e-003
1.668151e+003,4.883637e-003
1.670080e+003,5.559711e-003
1.672008e+003,4.872083e-003
1.673937e+003,4.395731e-003
1.675865e+003,4.707438e-003
1.677794e+003,4.372070e-003
1.679722e+003,4.863106e-003
1.681651e+003,5.259495e-003
1.683579e+003,6.303587e-003
1.685508e+003,6.105473e-003
1.687436e+003,5.292477e-003
1.689365e+003,5.241551e-003
1.691293e+003,5.185150e-003
1.693222e+003,5.057937e-003
1.695150e+003,6.482185e-003
1.697079e+003,7.867089e-003
1.699007e+003,7.420498e-003
1.700936e+003,8.109348e-003
1.702864e+003,7.981136e-003
1.704793e+003,8.237736e-003
1.706721e+003,8.960493e-003
1.708650e+003,8.850828e-003
1.710578e+003,9.325253e-003
1.712507e+003,1.022335e-002
1.714435e+003,1.192917e-002
1.716364e+003,1.354474e-002
1.718292e+003,1.514537e-002
1.720221e+003,1.531449e-002
1.722149e+003,1.620534e-002
1.724078e+003,1.827406e-002
1.726006e+003,2.037763e-002
1.727935e+003,2.339037e-002
1.729863e+003,2.878204e-002
1.731792e+003,3.389961e-002
1.733720e+003,4.360366e-002
1.735649e+003,5.582932e-002
1.737577e+003,6.232141e-002
1.739506e+003,7.496686e-002
1.741434e+003,8.637815e-002
1.743363e+003,9.440311e-002
1.745291e+003,9.886201e-002
1.747220e+003,9.874559e-002
1.749148e+003,9.237510e-002
1.751077e+003,7.994460e-002
1.753005e+003,6.535126e-002
1.754934e+003,5.426312e-002
1.756862e+003,4.167124e-002
1.758791e+003,3.137007e-002
1.760719e+003,2.445824e-002
1.762648e+003,1.793760e-002
1.764576e+003,1.357526e-002
1.766505e+003,1.117783e-002
1.768433e+003,9.694796e-003
1.770362e+003,8.744445e-003
1.772290e+003,8.194946e-003
1.774219e+003,6.774322e-003
1.776147e+003,5.516276e-003
1.778076e+003,4.800110e-003
1.780004e+003,4.797427e-003
1.781933e+003,4.313775e-003
1.783861e+003,3.850222e-003
1.785790e+003,3.535857e-003
1.787718e+003,3.223078e-003
1.789646e+003,3.328951e-003
1.791575e+003,4.080729e-003
1.793504e+003,3.697734e-003
1.795432e+003,3.126738e-003
1.797361e+003,2.787136e-003
1.799289e+003,2.900362e-003
1.801218e+003,2.943244e-003
1.803146e+003,2.386846e-003
1.805074e+003,1.943896e-003
1.807003e+003,1.956256e-003
1.808932e+003,1.985254e-003
1.810860e+003,2.038692e-003
1.812789e+003,1.536513e-003
1.814717e+003,9.002495e-004
1.816646e+003,6.307894e-004
1.818574e+003,8.927300e-004
1.820502e+003,1.056838e-003
1.822431e+003,1.298720e-003
1.824360e+003,1.629176e-003
1.826288e+003,1.451878e-003
1.828217e+003,1.146472e-003
1.830145e+003,1.460041e-003
1.832073e+003,7.043984e-004
1.834002e+003,2.527670e-004
1.835931e+003,2.522105e-004
1.837859e+003,3.783992e-004
1.839788e+003,1.314282e-004
1.841716e+003,3.288398e-004
1.843645e+003,8.779657e-004
1.845573e+003,8.802810e-004
1.847501e+003,3.866288e-004
1.849430e+003,1.156204e-004
1.851359e+003,-2.076449e-004
1.853287e+003,-2.968037e-004
1.855216e+003,-5.141650e-004
1.857144e+003,-2.783299e-004
1.859073e+003,-3.111768e-004
1.861001e+003,-4.282505e-004
1.862929e+003,-4.953495e-004
1.864858e+003,-5.137501e-005
1.866787e+003,6.181835e-004
1.868715e+003,1.480751e-003
1.870644e+003,5.215481e-004
1.872572e+003,-3.663786e-004
1.874500e+003,-6.987955e-004
1.876429e+003,-6.985795e-004
1.878357e+003,-8.467659e-004
1.880286e+003,-7.473370e-004
1.882215e+003,-7.490152e-004
1.884143e+003,-4.760455e-004
1.886072e+003,-6.615049e-004
1.888000e+003,-5.481564e-004
1.889928e+003,-2.064542e-004
1.891857e+003,-2.959040e-004
1.893785e+003,-6.158333e-004
1.895714e+003,-2.469285e-004
1.897643e+003,-3.964105e-004
1.899571e+003,-4.973225e-004
1.901500e+003,-4.947111e-004
1.903428e+003,-4.921081e-004
1.905356e+003,-4.895148e-004
1.907285e+003,-4.869299e-004
1.909213e+003,-4.843548e-004
1.911142e+003,-4.817876e-004
1.913071e+003,-4.792307e-004
1.914999e+003,-4.766826e-004
1.916927e+003,-4.741433e-004
1.918856e+003,-4.716134e-004
1.920784e+003,-4.690918e-004
1.922713e+003,-4.665800e-004
1.924641e+003,-4.640771e-004
1.926570e+003,-4.615826e-004
1.928499e+003,-4.590983e-004
1.930427e+003,-4.566228e-004
1.932355e+003,-4.541557e-004
1.934284e+003,-4.516980e-004
1.936212e+003,-4.492495e-004
1.938141e+003,-4.468099e-004
1.940070e+003,-4.443792e-004
1.941998e+003,-4.419587e-004
1.943927e+003,-4.395461e-004
1.945855e+003,-4.371428e-004
1.947783e+003,-4.347479e-004
1.949712e+003,-4.323628e-004
1.951640e+003,-4.299870e-004
1.953569e+003,-4.276200e-004
1.955498e+003,-4.252619e-004
1.957426e+003,-4.229131e-004
1.959354e+003,-4.205732e-004
1.961283e+003,-4.182430e-004
1.963211e+003,-4.159203e-004
1.965140e+003,-4.136078e-004
1.967068e+003,-4.113046e-004
1.968997e+003,-4.090103e-004
1.970926e+003,-4.067239e-004
1.972854e+003,-4.044478e-004
1.974782e+003,-4.021809e-004
1.976711e+003,-3.999225e-004
1.978639e+003,-3.976729e-004
1.980568e+003,-3.954330e-004
1.982496e+003,-3.932021e-004
1.984425e+003,-3.909799e-004
1.986354e+003,-3.887671e-004
1.988282e+003,-3.865631e-004
1.990210e+003,-3.843680e-004
1.992139e+003,-3.821822e-004
1.994067e+003,-3.800057e-004
1.995996e+003,-3.778385e-004
1.997924e+003,-3.756797e-004
1.999853e+003,-3.735297e-004
2.001781e+003,-3.713891e-004
2.003710e+003,-3.692578e-004
2.005638e+003,-3.671362e-004
2.007567e+003,-3.650226e-004
2.009495e+003,-3.629182e-004
2.011424e+003,-3.608228e-004
2.013352e+003,-3.587366e-004
2.015281e+003,-3.566593e-004
2.017209e+003,-3.545918e-004
2.019138e+003,-3.525335e-004
2.021066e+003,-3.504832e-004
2.022995e+003,-3.484422e-004
2.024923e+003,-3.464101e-004
2.026852e+003,-3.443877e-004
2.028781e+003,-3.423742e-004
2.030709e+003,-3.403700e-004
2.032637e+003,-3.383746e-004
2.034566e+003,-3.363886e-004
2.036494e+003,-3.344105e-004
2.038423e+003,-3.324421e-004
2.040351e+003,-3.304831e-004
2.042280e+003,-3.285324e-004
2.044208e+003,-3.265920e-004
2.046137e+003,-3.246600e-004
2.048065e+003,-3.227373e-004
2.049994e+003,-3.208234e-004
2.051922e+003,-3.189184e-004
2.053851e+003,-3.170217e-004
2.055779e+003,-3.151353e-004
2.057708e+003,-3.132578e-004
2.059636e+003,-3.113896e-004
2.061565e+003,-3.095302e-004
2.063493e+003,-3.076796e-004
2.065422e+003,-3.058380e-004
2.067350e+003,-3.040060e-004
2.069279e+003,-3.021825e-004
2.071207e+003,-3.003678e-004
2.073136e+003,-2.985629e-004
2.075064e+003,-2.967669e-004
2.076993e+003,-2.949797e-004
2.078921e+003,-2.932018e-004
2.080850e+003,-2.914337e-004
2.082778e+003,-2.896739e-004
2.084707e+003,-2.879221e-004
2.086635e+003,-2.861810e-004
2.088564e+003,-2.844483e-004
2.090492e+003,-2.827244e-004
2.092421e+003,-2.810098e-004
2.094349e+003,-2.793050e-004
2.096278e+003,-2.776086e-004
2.098206e+003,-2.759206e-004
2.100135e+003,-2.742424e-004
2.102063e+003,-2.725730e-004
2.103992e+003,-2.709129e-004
2.105920e+003,-2.692621e-004
2.107849e+003,-2.676202e-004
2.109777e+003,-2.659871e-004
2.111706e+003,-2.643638e-004
2.113634e+003,-2.627480e-004
2.115563e+003,-2.611419e-004
2.117491e+003,-2.595456e-004
2.119420e+003,-2.579587e-004
2.121348e+003,-2.563801e-004
2.123277e+003,-2.548099e-004
2.125205e+003,-2.532504e-004
2.127134e+003,-2.516988e-004
2.129062e+003,-2.501551e-004
2.130991e+003,-2.486221e-004
2.132919e+003,-2.470985e-004
2.134848e+003,-2.455832e-004
2.136776e+003,-2.440773e-004
2.138705e+003,-2.425807e-004
2.140633e+003,-2.410924e-004
2.142562e+003,-2.396130e-004
2.144490e+003,-2.381434e-004
2.146419e+003,-2.366826e-004
2.148347e+003,-2.352307e-004
2.150276e+003,-2.337890e-004
2.152204e+003,-2.323547e-004
2.154133e+003,-2.309303e-004
2.156061e+003,-2.295142e-004
2.157990e+003,-2.281084e-004
2.159918e+003,-2.267109e-004
2.161847e+003,-2.253228e-004
2.163775e+003,-2.239440e-004
2.165704e+003,-2.225735e-004
2.167632e+003,-2.212124e-004
2.169561e+003,-2.198610e-004
2.171489e+003,-2.185181e-004
2.173418e+003,-2.171830e-004
2.175346e+003,-2.158592e-004
2.177275e+003,-2.145427e-004
2.179203e+003,-2.132361e-004
2.181132e+003,-2.119387e-004
2.183060e+003,-2.106507e-004
2.184989e+003,-2.093711e-004
2.186917e+003,-2.080998e-004
2.188846e+003,-2.068388e-004
2.190774e+003,-2.055867e-004
2.192703e+003,-2.043429e-004
2.194631e+003,-2.031089e-004
2.196560e+003,-2.018842e-004
2.198488e+003,-2.006679e-004
2.200417e+003,-1.994600e-004
2.202345e+003,-1.982623e-004
2.204274e+003,-1.970734e-004
2.206202e+003,-1.958939e-004
2.208131e+003,-1.947228e-004
2.210059e+003,-1.935619e-004
2.211988e+003,-1.924094e-004
2.213916e+003,-1.912662e-004
2.215845e+003,-1.901318e-004
2.217773e+003,-1.890049e-004
2.219702e+003,-1.878887e-004
2.221630e+003,-1.867819e-004
2.223559e+003,-1.856834e-004
2.225487e+003,-1.845947e-004
2.227416e+003,-1.835139e-004
2.229344e+003,-1.824433e-004
2.231273e+003,-1.813797e-004
2.233201e+003,-1.803273e-004
2.235130e+003,-1.792843e-004
2.237058e+003,-1.782496e-004
2.238987e+003,-1.772242e-004
2.240915e+003,-1.762072e-004
2.242844e+003,-1.751995e-004
2.244772e+003,-1.742002e-004
2.246701e+003,-1.732111e-004
2.248629e+003,-1.722304e-004
2.250558e+003,-1.712595e-004
2.252486e+003,-1.702970e-004
2.254415e+003,-1.693438e-004
2.256343e+003,-1.683994e-004
2.258272e+003,-1.674648e-004
2.260200e+003,-1.665391e-004
2.262129e+003,-1.656208e-004
2.264057e+003,-1.647132e-004
2.265986e+003,-1.638150e-004
2.267914e+003,-1.629246e-004
2.269843e+003,-1.620445e-004
2.271771e+003,-1.611724e-004
2.273700e+003,-1.603100e-004
2.275628e+003,-1.594555e-004
2.277557e+003,-1.586112e-004
2.279485e+003,-1.577758e-004
2.281414e+003,-1.569497e-004
2.283342e+003,-1.561325e-004
2.285271e+003,-1.553246e-004
2.287199e+003,-1.545250e-004
2.289128e+003,-1.537348e-004
2.291056e+003,-1.529534e-004
2.292985e+003,-1.521818e-004
2.294913e+003,-1.514186e-004
2.296842e+003,-1.506647e-004
2.298770e+003,-1.499206e-004
2.300699e+003,-1.491844e-004
2.302627e+003,-1.484575e-004
2.304556e+003,-1.477394e-004
2.306484e+003,-1.470307e-004
2.308413e+003,-1.463317e-004
2.310341e+003,-1.456416e-004
2.312270e+003,-1.449608e-004
2.314198e+003,-1.442879e-004
2.316127e+003,-1.436248e-004
2.318055e+003,-1.429711e-004
2.319984e+003,-1.423252e-004
2.321912e+003,-1.416886e-004
2.323841e+003,-1.410623e-004
2.325769e+003,-1.404444e-004
2.327698e+003,-1.398358e-004
2.329626e+003,-1.392351e-004
2.331555e+003,-1.386455e-004
2.333483e+003,-1.380630e-004
2.335412e+003,-1.374907e-004
2.337340e+003,-1.369268e-004
2.339269e+003,-1.363722e-004
2.341197e+003,-1.358273e-004
2.343126e+003,-1.352909e-004
2.345054e+003,-1.347638e-004
2.346983e+003,-1.342446e-004
2.348911e+003,-1.337361e-004
2.350840e+003,-1.332350e-004
2.352768e+003,-1.327447e-004
2.354697e+003,-1.322627e-004
2.356625e+003,-1.317901e-004
2.358554e+003,-1.313263e-004
2.360482e+003,-1.308713e-004
2.362411e+003,-1.304257e-004
2.364339e+003,-1.299884e-004
2.366268e+003,-1.295605e-004
2.368196e+003,-1.291428e-004
2.370125e+003,-1.287330e-004
2.372053e+003,-1.283325e-004
2.373982e+003,-1.279414e-004
2.375910e+003,-1.275591e-004
2.377839e+003,-1.271851e-004
2.379767e+003,-1.268210e-004
2.381696e+003,-1.264662e-004
2.383624e+003,-1.261202e-004
2.385553e+003,-1.257835e-004
2.387481e+003,-1.254561e-004
2.389410e+003,-1.251362e-004
2.391338e+003,-1.248261e-004
2.393267e+003,-1.245253e-004
2.395195e+003,-1.242342e-004
2.397124e+003,-1.239511e-004
2.399052e+003,-1.236782e-004
2.400981e+003,-1.828293e-004
2.402909e+003,-3.010309e-004
2.404838e+003,-2.712859e-004
2.406766e+003,-4.957430e-006
2.408695e+003,2.267580e-004
2.410623e+003,1.157541e-005
2.412552e+003,1.550699e-005
2.414480e+003,2.667843e-004
2.416409e+003,4.842603e-004
2.418337e+003,3.421539e-004
2.420266e+003,1.882920e-004
2.422194e+003,1.731268e-004
2.424123e+003,1.857379e-004
2.426051e+003,7.126573e-005
2.427979e+003,1.644460e-004
2.429908e+003,1.378409e-004
2.431837e+003,5.555945e-005
2.433765e+003,1.010448e-004
2.435694e+003,1.549632e-004
2.437622e+003,1.878268e-004
2.439551e+003,2.546655e-004
2.441479e+003,2.187635e-004
2.443407e+003,2.821363e-004
2.445336e+003,4.035160e-004
2.447265e+003,6.398084e-004
2.449193e+003,6.732699e-004
2.451122e+003,7.250980e-004
2.453050e+003,6.625801e-004
2.454979e+003,5.907035e-004
2.456907e+003,3.590598e-004
2.458836e+003,1.478419e-004
2.460764e+003,1.675598e-004
2.462693e+003,2.996619e-004
2.464621e+003,3.146701e-004
2.466550e+003,4.534386e-004
2.468478e+003,5.648462e-004
2.470406e+003,5.595600e-004
2.472335e+003,6.322879e-004
2.474264e+003,7.876884e-004
2.476192e+003,7.375935e-004
2.478121e+003,6.859279e-004
2.480049e+003,6.305370e-004
2.481978e+003,8.010534e-004
2.483906e+003,8.747028e-004
2.485835e+003,7.922566e-004
2.487763e+003,7.863007e-004
2.489692e+003,8.757901e-004
2.491620e+003,8.899979e-004
2.493549e+003,1.041621e-003
2.495477e+003,1.160840e-003
2.497406e+003,1.200628e-003
2.499334e+003,1.113823e-003
2.501263e+003,1.124399e-003
2.503191e+003,1.168824e-003
2.505120e+003,1.233466e-003
2.507048e+003,1.290002e-003
2.508977e+003,1.363124e-003
2.510905e+003,1.232984e-003
2.512833e+003,1.142328e-003
2.514762e+003,1.184494e-003
2.516691e+003,1.398966e-003
2.518619e+003,1.556440e-003
2.520548e+003,1.640094e-003
2.522476e+003,1.715534e-003
2.524405e+003,1.783246e-003
2.526333e+003,1.732167e-003
2.528261e+003,1.721110e-003
2.530190e+003,1.760648e-003
2.532119e+003,1.850056e-003
2.534047e+003,1.894144e-003
2.535976e+003,2.013691e-003
2.537904e+003,2.046346e-003
2.539833e+003,1.968567e-003
2.541761e+003,2.033147e-003
2.543689e+003,2.326709e-003
2.545618e+003,2.626573e-003
2.547547e+003,2.615002e-003
2.549475e+003,2.620791e-003
2.551404e+003,2.868810e-003
2.553332e+003,2.891854e-003
2.555260e+003,3.008312e-003
2.557189e+003,3.068252e-003
2.559117e+003,3.074107e-003
2.561046e+003,3.094519e-003
2.562975e+003,3.135694e-003
2.564903e+003,3.166289e-003
2.566832e+003,3.368448e-003
2.568760e+003,3.519722e-003
2.570688e+003,3.655325e-003
2.572617e+003,3.774176e-003
2.574546e+003,3.998241e-003
2.576474e+003,4.120133e-003
2.578403e+003,4.190509e-003
2.580331e+003,4.257188e-003
2.582260e+003,4.405653e-003
2.584188e+003,4.600731e-003
2.586116e+003,4.868618e-003
2.588045e+003,5.246035e-003
2.589974e+003,5.326255e-003
2.591902e+003,5.227340e-003
2.593831e+003,5.445229e-003
2.595759e+003,5.578212e-003
2.597688e+003,5.987354e-003
2.599616e+003,6.273354e-003
2.601544e+003,6.361155e-003
2.603473e+003,6.455891e-003
2.605402e+003,6.864632e-003
2.607330e+003,7.230269e-003
2.609259e+003,7.416366e-003
2.611187e+003,7.539550e-003
2.613115e+003,7.754073e-003
2.615044e+003,8.140212e-003
2.616972e+003,8.574605e-003
2.618901e+003,8.787618e-003
2.620830e+003,9.159198e-003
2.622758e+003,9.660655e-003
2.624687e+003,1.005681e-002
2.626615e+003,1.027104e-002
2.628543e+003,1.059691e-002
2.630472e+003,1.089135e-002
2.632400e+003,1.119232e-002
2.634329e+003,1.141534e-002
2.636258e+003,1.156633e-002
2.638186e+003,1.163736e-002
2.640115e+003,1.168776e-002
2.642043e+003,1.167234e-002
2.643971e+003,1.164521e-002
2.645900e+003,1.170744e-002
2.647828e+003,1.185120e-002
2.649757e+003,1.202473e-002
2.651686e+003,1.221084e-002
2.653614e+003,1.232675e-002
2.655542e+003,1.237658e-002
2.657471e+003,1.245530e-002
2.659399e+003,1.245523e-002
2.661328e+003,1.241710e-002
2.663256e+003,1.229729e-002
2.665185e+003,1.221153e-002
2.667114e+003,1.215790e-002
2.669042e+003,1.204994e-002
2.670970e+003,1.193075e-002
2.672899e+003,1.180949e-002
2.674827e+003,1.171527e-002
2.676756e+003,1.159872e-002
2.678685e+003,1.147685e-002
2.680613e+003,1.138532e-002
2.682542e+003,1.130368e-002
2.684470e+003,1.125843e-002
2.686398e+003,1.117991e-002
2.688327e+003,1.099726e-002
2.690255e+003,1.078683e-002
2.692184e+003,1.062097e-002
2.694113e+003,1.055172e-002
2.696041e+003,1.052491e-002
2.697969e+003,1.048070e-002
2.699898e+003,1.050792e-002
2.701826e+003,1.062154e-002
2.703755e+003,1.070593e-002
2.705683e+003,1.081721e-002
2.707612e+003,1.099025e-002
2.709541e+003,1.117815e-002
2.711469e+003,1.129766e-002
2.713397e+003,1.141112e-002
2.715326e+003,1.154477e-002
2.717254e+003,1.178991e-002
2.719183e+003,1.202260e-002
2.721111e+003,1.222053e-002
2.723040e+003,1.247355e-002
2.724969e+003,1.276123e-002
2.726897e+003,1.306969e-002
2.728825e+003,1.331182e-002
2.730754e+003,1.341466e-002
2.732682e+003,1.353783e-002
2.734611e+003,1.366762e-002
2.736539e+003,1.373785e-002
2.738468e+003,1.371908e-002
2.740396e+003,1.367022e-002
2.742325e+003,1.372444e-002
2.744253e+003,1.376659e-002
2.746182e+003,1.369406e-002
2.748110e+003,1.367187e-002
2.750039e+003,1.379306e-002
2.751967e+003,1.390691e-002
2.753896e+003,1.401792e-002
2.755824e+003,1.421289e-002
2.757753e+003,1.450758e-002
2.759681e+003,1.485847e-002
2.761610e+003,1.523651e-002
2.763538e+003,1.554140e-002
2.765467e+003,1.591397e-002
2.767395e+003,1.638550e-002
2.769324e+003,1.685148e-002
2.771252e+003,1.739994e-002
2.773181e+003,1.796844e-002
2.775109e+003,1.857962e-002
2.777038e+003,1.931174e-002
2.778966e+003,2.022173e-002
2.780895e+003,2.119972e-002
2.782823e+003,2.226604e-002
2.784752e+003,2.337678e-002
2.786680e+003,2.457237e-002
2.788609e+003,2.589228e-002
2.790537e+003,2.728251e-002
2.792466e+003,2.875680e-002
2.794394e+003,3.036950e-002
2.796323e+003,3.201753e-002
2.798251e+003,3.368535e-002
2.800180e+003,3.553828e-002
2.802108e+003,3.740988e-002
2.804037e+003,3.945021e-002
2.805965e+003,4.168541e-002
2.807894e+003,4.406876e-002
2.809822e+003,4.671163e-002
2.811751e+003,4.977963e-002
2.813679e+003,5.330157e-002
2.815608e+003,5.731900e-002
2.817536e+003,6.201750e-002
2.819465e+003,6.753922e-002
2.821393e+003,7.409760e-002
2.823322e+003,8.206517e-002
2.825250e+003,9.187640e-002
2.827179e+003,1.040602e-001
2.829107e+003,1.197999e-001
2.831036e+003,1.406366e-001
2.832964e+003,1.688197e-001
2.834893e+003,2.082059e-001
2.836821e+003,2.639004e-001
2.838750e+003,3.437949e-001
2.840678e+003,4.602421e-001
2.842607e+003,6.272454e-001
2.844535e+003,8.473834e-001
2.846464e+003,1.065079e+000
2.848392e+003,1.118204e+000
2.850321e+003,9.547847e-001
2.852249e+003,7.449223e-001
2.854178e+003,5.855251e-001
2.856106e+003,4.704486e-001
2.858035e+003,3.835074e-001
2.859963e+003,3.173271e-001
2.861892e+003,2.684339e-001
2.863820e+003,2.343125e-001
2.865749e+003,2.130200e-001
2.867677e+003,2.022309e-001
2.869606e+003,1.985757e-001
2.871534e+003,1.980094e-001
2.873463e+003,1.988294e-001
2.875391e+003,2.024763e-001
2.877320e+003,2.112704e-001
2.879248e+003,2.259621e-001
2.881177e+003,2.456848e-001
2.883105e+003,2.693753e-001
2.885034e+003,2.965165e-001
2.886962e+003,3.265721e-001
2.888891e+003,3.586391e-001
2.890819e+003,3.916821e-001
2.892748e+003,4.249424e-001
2.894676e+003,4.581961e-001
2.896605e+003,4.921294e-001
2.898533e+003,5.280398e-001
2.900462e+003,5.678651e-001
2.902390e+003,6.149895e-001
2.904319e+003,6.742522e-001
2.906247e+003,7.519665e-001
2.908176e+003,8.550709e-001
2.910104e+003,9.869875e-001
2.912033e+003,1.137214e+000
2.913961e+003,1.262309e+000
2.915890e+003,1.294424e+000
2.917818e+003,1.212463e+000
2.919747e+003,1.071880e+000
2.921675e+003,9.286423e-001
2.923604e+003,8.037232e-001
2.925532e+003,6.985955e-001
2.927461e+003,6.088593e-001
2.929389e+003,5.303179e-001
2.931318e+003,4.608718e-001
2.933246e+003,3.992100e-001
2.935175e+003,3.449319e-001
2.937103e+003,2.977132e-001
2.939032e+003,2.570933e-001
2.940960e+003,2.230128e-001
2.942889e+003,1.952629e-001
2.944817e+003,1.739696e-001
2.946746e+003,1.590119e-001
2.948674e+003,1.500692e-001
2.950603e+003,1.456440e-001
2.952531e+003,1.431003e-001
2.954460e+003,1.401075e-001
2.956388e+003,1.353620e-001
2.958317e+003,1.286617e-001
2.960245e+003,1.202199e-001
2.962174e+003,1.102890e-001
2.964102e+003,9.943420e-002
2.966031e+003,8.817589e-002
2.967959e+003,7.751585e-002
2.969888e+003,6.796768e-002
2.971816e+003,5.960787e-002
2.973745e+003,5.248758e-002
2.975673e+003,4.665458e-002
2.977602e+003,4.179936e-002
2.979530e+003,3.774662e-002
2.981459e+003,3.434308e-002
2.983387e+003,3.150844e-002
2.985316e+003,2.923395e-002
2.987244e+003,2.749419e-002
2.989173e+003,2.613193e-002
2.991101e+003,2.526584e-002
2.993030e+003,2.495361e-002
2.994958e+003,2.514992e-002
2.996887e+003,2.571178e-002
2.998815e+003,2.654883e-002
3.000744e+003,2.744686e-002
3.002672e+003,2.811535e-002
3.004601e+003,2.828883e-002
3.006529e+003,2.782925e-002
3.008458e+003,2.673475e-002
3.010386e+003,2.519781e-002
3.012315e+003,2.331462e-002
3.014243e+003,2.106262e-002
3.016172e+003,1.881039e-002
3.018100e+003,1.696922e-002
3.020029e+003,1.548797e-002
3.021957e+003,1.425571e-002
3.023886e+003,1.320342e-002
3.025814e+003,1.231858e-002
3.027743e+003,1.157231e-002
3.029671e+003,1.100236e-002
3.031600e+003,1.053633e-002
3.033528e+003,1.003958e-002
3.035457e+003,9.528395e-003
3.037385e+003,8.959090e-003
3.039314e+003,8.536486e-003
3.041242e+003,8.116432e-003
3.043171e+003,7.764196e-003
3.045099e+003,7.511439e-003
3.047028e+003,7.247459e-003
3.048956e+003,6.963447e-003
3.050885e+003,6.679028e-003
3.052813e+003,6.492877e-003
3.054742e+003,6.410573e-003
3.056670e+003,6.291883e-003
3.058599e+003,6.014729e-003
3.060527e+003,5.846312e-003
3.062456e+003,5.762989e-003
3.064384e+003,5.676678e-003
3.066313e+003,5.519462e-003
3.068241e+003,5.338208e-003
3.070170e+003,5.102027e-003
3.072098e+003,4.879679e-003
3.074027e+003,4.702993e-003
3.075955e+003,4.616945e-003
3.077884e+003,4.498532e-003
3.079812e+003,4.386570e-003
3.081741e+003,4.209269e-003
3.083669e+003,3.941451e-003
3.085598e+003,3.723937e-003
3.087526e+003,3.606391e-003
3.089455e+003,3.431332e-003
3.091383e+003,3.212947e-003
3.093312e+003,2.939901e-003
3.095240e+003,2.869433e-003
3.097169e+003,2.695306e-003
3.099097e+003,2.382866e-003
3.101026e+003,2.248280e-003
3.102954e+003,2.107726e-003
3.104883e+003,1.816240e-003
3.106811e+003,1.615173e-003
3.108740e+003,1.543600e-003
3.110668e+003,1.465076e-003
3.112597e+003,1.351518e-003
3.114525e+003,1.383896e-003
3.116454e+003,1.337290e-003
3.118382e+003,1.209791e-003
3.120311e+003,1.061297e-003
3.122239e+003,1.061641e-003
3.124168e+003,1.113734e-003
3.126096e+003,1.041014e-003
3.128025e+003,9.549325e-004
3.129953e+003,8.392725e-004
3.131882e+003,8.575479e-004
3.133810e+003,8.612964e-004
3.135739e+003,6.939480e-004
3.137667e+003,6.565200e-004
3.139596e+003,6.435746e-004
3.141524e+003,6.339652e-004
3.143453e+003,6.381953e-004
3.145381e+003,6.429497e-004
3.147310e+003,6.243773e-004
3.149238e+003,5.746540e-004
3.151167e+003,5.714763e-004
3.153095e+003,5.920809e-004
3.155024e+003,5.320171e-004
3.156952e+003,4.412057e-004
3.158881e+003,4.020641e-004
3.160809e+003,4.446534e-004
3.162738e+003,4.400918e-004
3.164666e+003,4.322445e-004
3.166594e+003,5.036788e-004
3.168523e+003,5.865172e-004
3.170452e+003,5.783085e-004
3.172380e+003,5.711466e-004
3.174309e+003,5.163820e-004
3.176237e+003,4.944252e-004
3.178166e+003,5.262364e-004
3.180094e+003,4.678322e-004
3.182022e+003,4.498288e-004
3.183951e+003,6.527156e-004
3.185880e+003,6.922428e-004
3.187808e+003,5.146638e-004
3.189737e+003,4.737321e-004
3.191665e+003,5.598823e-004
3.193594e+003,5.821548e-004
3.195522e+003,5.059643e-004
3.197450e+003,5.411422e-004
3.199379e+003,5.186703e-004
3.201308e+003,3.331685e-004
3.203236e+003,2.614539e-004
3.205165e+003,3.362438e-004
3.207093e+003,3.453791e-004
3.209021e+003,5.058106e-004
3.210950e+003,5.049771e-004
3.212878e+003,4.661605e-004
3.214807e+003,5.126316e-004
3.216736e+003,3.669010e-004
3.218664e+003,3.970237e-004
3.220593e+003,4.083589e-004
3.222521e+003,2.590744e-004
3.224449e+003,1.837863e-004
3.226378e+003,3.246879e-004
3.228307e+003,4.406543e-004
3.230235e+003,4.129885e-004
3.232164e+003,3.318666e-004
3.234092e+003,2.476266e-004
3.236021e+003,3.191819e-004
3.237949e+003,3.312547e-004
3.239877e+003,3.276560e-004
3.241806e+003,3.494816e-004
3.243735e+003,3.821608e-004
3.245663e+003,4.224638e-004
3.247592e+003,3.033048e-004
3.249520e+003,2.404209e-004
3.251448e+003,2.999092e-004
3.253377e+003,3.922740e-004
3.255305e+003,3.242092e-004
3.257234e+003,2.766130e-004
3.259163e+003,2.653040e-004
3.261091e+003,2.087941e-004
3.263020e+003,2.128929e-004
3.264948e+003,3.551114e-004
3.266876e+003,3.400957e-004
3.268805e+003,2.344763e-004
3.270733e+003,3.448436e-004
3.272662e+003,6.040866e-004
3.274591e+003,6.579543e-004
3.276519e+003,5.283803e-004
3.278448e+003,4.109219e-004
3.280376e+003,3.384575e-004
3.282304e+003,4.308503e-004
3.284233e+003,4.131347e-004
3.286161e+003,3.128806e-004
3.288090e+003,3.349222e-004
3.290019e+003,4.593786e-004
3.291947e+003,5.286895e-004
3.293875e+003,4.930301e-004
3.295804e+003,4.278319e-004
3.297732e+003,4.028566e-004
3.299661e+003,4.009902e-004
3.301589e+003,3.003376e-004
3.303518e+003,2.743546e-004
3.305447e+003,2.964586e-004
3.307375e+003,3.926903e-004
3.309303e+003,5.470570e-004
3.311232e+003,5.223546e-004
3.313160e+003,4.138658e-004
3.315089e+003,3.366908e-004
3.317018e+003,3.478108e-004
3.318946e+003,3.312351e-004
3.320875e+003,3.513405e-004
3.322803e+003,5.213814e-004
3.324731e+003,6.462159e-004
3.326660e+003,5.964264e-004
3.328588e+003,4.796563e-004
3.330517e+003,4.390515e-004
3.332446e+003,5.328357e-004
3.334374e+003,6.991206e-004
3.336302e+003,7.585147e-004
3.338231e+003,6.969925e-004
3.340159e+003,6.290395e-004
3.342088e+003,5.612299e-004
3.344016e+003,4.845196e-004
3.345945e+003,4.816921e-004
3.347874e+003,4.202696e-004
3.349802e+003,3.970340e-004
3.351730e+003,4.833546e-004
3.353659e+003,5.957605e-004
3.355587e+003,6.953012e-004
3.357516e+003,7.173503e-004
3.359444e+003,6.743325e-004
3.361373e+003,7.132282e-004
3.363302e+003,7.281238e-004
3.365230e+003,7.383116e-004
3.367158e+003,8.222936e-004
3.369087e+003,7.832469e-004
3.371015e+003,6.528292e-004
3.372944e+003,5.162982e-004
3.374872e+003,4.947009e-004
3.376801e+003,5.237125e-004
3.378729e+003,5.265744e-004
3.380658e+003,5.576648e-004
3.382586e+003,6.147735e-004
3.384515e+003,6.452650e-004
3.386443e+003,4.854202e-004
3.388372e+003,3.702193e-004
3.390300e+003,4.228028e-004
3.392229e+003,7.671034e-004
3.394157e+003,6.802892e-004
3.396086e+003,5.486850e-004
3.398014e+003,6.086323e-004
3.399943e+003,5.273698e-004
3.401871e+003,4.983963e-004
3.403800e+003,3.957190e-004
3.405728e+003,2.031913e-004
3.407657e+003,2.496541e-004
3.409585e+003,2.916129e-004
3.411514e+003,1.855055e-004
3.413442e+003,2.565356e-004
3.415371e+003,4.314492e-004
3.417299e+003,4.770234e-004
3.419228e+003,7.581655e-004
3.421156e+003,9.656027e-004
3.423085e+003,6.918004e-004
3.425013e+003,4.019467e-004
3.426942e+003,4.513916e-004
3.428870e+003,6.119926e-004
3.430799e+003,6.714705e-004
3.432727e+003,5.795294e-004
3.434656e+003,4.731463e-004
3.436584e+003,4.905015e-004
3.438513e+003,6.253738e-004
3.440441e+003,7.814430e-004
3.442370e+003,9.694472e-004
3.444298e+003,8.281851e-004
3.446227e+003,1.112469e-003
3.448155e+003,1.123546e-003
3.450084e+003,6.381450e-004
3.452012e+003,6.626807e-004
3.453941e+003,6.991243e-004
3.455869e+003,6.353948e-004
3.457798e+003,6.925352e-004
3.459726e+003,8.197865e-004
3.461655e+003,1.125904e-003
3.463583e+003,1.038280e-003
3.465512e+003,8.011879e-004
3.467440e+003,8.952972e-004
3.469369e+003,8.538812e-004
3.471297e+003,6.935401e-004
3.473226e+003,7.262286e-004
3.475154e+003,8.859765e-004
3.477083e+003,7.587112e-004
3.479011e+003,7.233666e-004
3.480940e+003,1.094489e-003
3.482868e+003,1.082322e-003
3.484797e+003,6.249966e-004
3.486725e+003,7.228637e-004
3.488654e+003,6.820215e-004
3.490582e+003,2.647415e-004
3.492511e+003,1.726672e-005
3.494439e+003,5.474593e-005
3.496368e+003,1.209890e-004
3.498296e+003,1.221094e-004
3.500225e+003,4.864819e-004
3.502153e+003,1.229255e-003
3.504082e+003,1.242927e-003
3.506010e+003,3.347835e-004
3.507939e+003,3.180839e-004
3.509867e+003,6.588632e-004
3.511796e+003,1.500752e-004
3.513724e+003,-2.829656e-004
3.515653e+003,-3.471216e-004
3.517581e+003,-2.944842e-006
3.519510e+003,1.492435e-004
3.521438e+003,5.530044e-004
3.523367e+003,1.414812e-003
3.525295e+003,1.152550e-003
3.527224e+003,8.940473e-004
3.529152e+003,6.397804e-004
3.531081e+003,1.104530e-004
3.533009e+003,-4.186844e-004
3.534938e+003,-6.662030e-005
3.536866e+003,1.671761e-004
3.538795e+003,-4.301826e-004
3.540723e+003,-4.086122e-004
3.542652e+003,4.768446e-004
3.544580e+003,1.402048e-003
3.546509e+003,1.627422e-003
3.548437e+003,7.145265e-004
3.550366e+003,3.807433e-005
3.552294e+003,4.482232e-004
3.554223e+003,-1.497185e-004
3.556151e+003,-7.284964e-004
3.558080e+003,-6.451225e-004
3.560008e+003,-1.579616e-004
3.561937e+003,1.924532e-004
3.563865e+003,9.242874e-004
3.565794e+003,3.117602e-003
3.567722e+003,3.616462e-003
3.569651e+003,6.824955e-004
3.571579e+003,-9.020250e-004
3.573508e+003,-8.864058e-004
3.575436e+003,-5.790442e-004
3.577365e+003,-6.827908e-004
3.579293e+003,-7.237922e-004
3.581222e+003,-7.147454e-004
3.583150e+003,-6.713569e-004
3.585079e+003,-2.282076e-004
3.587007e+003,2.223682e-003
3.588936e+003,1.858654e-003
3.590864e+003,-2.971031e-004
3.592793e+003,-2.213381e-004
3.594721e+003,1.311249e-003
3.596650e+003,1.613746e-003
3.598578e+003,1.567902e-003
3.600507e+003,2.001556e-003
3.602435e+003,1.727079e-003
3.604364e+003,8.635549e-004
3.606292e+003,1.650717e-003
3.608221e+003,3.369348e-003
3.610149e+003,2.198491e-003
3.612078e+003,1.708799e-003
3.614006e+003,2.692592e-003
3.615935e+003,1.505709e-003
3.617863e+003,1.792199e-003
3.619792e+003,2.718315e-003
3.621720e+003,8.037100e-004
3.623649e+003,-1.074504e-004
3.625577e+003,3.713164e-004
3.627506e+003,2.381369e-003
3.629434e+003,4.869260e-003
3.631363e+003,1.171692e-003
3.633291e+003,-3.269147e-004
3.635220e+003,-3.998941e-004
3.637148e+003,-7.269029e-004
3.639077e+003,-7.220358e-004
3.641005e+003,-4.173443e-004
3.642934e+003,-1.373375e-004
3.644862e+003,8.834247e-005
3.646791e+003,2.719010e-003
3.648719e+003,5.111791e-003
3.650648e+003,4.357764e-003
3.652576e+003,9.736205e-004
3.654505e+003,-4.783385e-004
3.656433e+003,8.966979e-004
3.658362e+003,-1.500351e-004
3.660290e+003,-1.622453e-003
3.662219e+003,-1.864183e-003
3.664147e+003,-1.462891e-003
3.666076e+003,-1.198749e-003
3.668004e+003,-3.505237e-004
3.669933e+003,3.443711e-003
3.671861e+003,1.684181e-003
3.673790e+003,-1.147864e-004
3.675718e+003,4.357805e-003
3.677647e+003,2.053584e-003
3.679575e+003,-1.790747e-004
3.681504e+003,-8.143578e-004
3.683432e+003,-7.363493e-004
3.685361e+003,-6.482881e-004
3.687289e+003,4.086560e-004
3.689218e+003,3.312094e-003
3.691146e+003,2.053773e-003
3.693075e+003,-5.415361e-004
3.695003e+003,-1.524085e-003
3.696932e+003,-1.467681e-003
3.698860e+003,-1.816376e-003
3.700789e+003,-7.972224e-004
3.702717e+003,1.417482e-004
3.704646e+003,-9.416705e-004
3.706574e+003,-1.205072e-003
3.708503e+003,6.974675e-006
3.710431e+003,1.927483e-003
3.712360e+003,2.109352e-003
3.714288e+003,2.817800e-004
3.716217e+003,-1.154622e-003
3.718145e+003,-6.204555e-004
3.720074e+003,8.894224e-005
3.722002e+003,1.036164e-003
3.723931e+003,1.003874e-003
3.725859e+003,1.251325e-003
3.727788e+003,5.782107e-004
3.729716e+003,-5.528079e-004
3.731645e+003,1.325114e-003
3.733573e+003,3.897745e-003
3.735502e+003,4.714438e-003
3.737430e+003,2.371600e-003
3.739359e+003,1.293941e-003
3.741287e+003,8.538337e-004
3.743216e+003,7.191524e-004
3.745144e+003,4.161510e-003
3.747073e+003,2.900348e-003
3.749001e+003,2.883911e-003
3.750930e+003,4.865348e-003
3.752858e+003,2.865165e-003
3.754787e+003,7.669581e-004
3.756715e+003,1.798728e-004
3.758644e+003,1.036382e-003
3.760572e+003,8.945847e-004
3.762501e+003,-9.221509e-004
3.764429e+003,-6.873040e-004
3.766358e+003,1.414921e-004
3.768286e+003,-6.323038e-004
3.770215e+003,2.096221e-004
3.772143e+003,-5.910555e-004
3.774072e+003,-1.409178e-003
3.776000e+003,-1.260046e-003
3.777929e+003,-3.834683e-004
3.779857e+003,8.799760e-004
3.781786e+003,-4.276549e-004
3.783714e+003,-5.840100e-004
3.785643e+003,-2.464280e-006
3.787571e+003,-1.008091e-003
3.789500e+003,-1.481998e-003
3.791428e+003,-1.072031e-003
3.793357e+003,-1.261871e-003
3.795285e+003,-1.003910e-004
3.797214e+003,1.900259e-003
3.799142e+003,3.243024e-004
3.801071e+003,2.231446e-003
3.802999e+003,2.946925e-003
3.804927e+003,-1.284452e-004
3.806856e+003,6.589554e-004
3.808785e+003,3.058016e-004
3.810713e+003,-9.155730e-004
3.812642e+003,-1.169873e-003
3.814570e+003,-6.761122e-005
3.816499e+003,2.933012e-003
3.818427e+003,1.360126e-003
3.820355e+003,2.326027e-003
3.822284e+003,3.237546e-003
3.824213e+003,-1.508929e-005
3.826141e+003,2.860585e-004
3.828070e+003,6.617848e-004
3.829998e+003,-1.825625e-004
3.831927e+003,1.126681e-003
3.833855e+003,2.021089e-003
3.835783e+003,2.023924e-003
3.837712e+003,2.988645e-003
3.839641e+003,3.458899e-003
3.841569e+003,1.444236e-003
3.843498e+003,7.758616e-004
3.845426e+003,1.352001e-005
3.847354e+003,-4.999125e-004
3.849283e+003,5.308613e-004
3.851211e+003,2.159990e-003
3.853140e+003,5.539679e-003
3.855069e+003,3.262736e-003
3.856997e+003,7.894067e-004
3.858926e+003,-4.278626e-004
3.860854e+003,1.639593e-004
3.862782e+003,1.426744e-003
3.864711e+003,2.770143e-003
3.866640e+003,7.476034e-004
3.868568e+003,9.123553e-004
3.870497e+003,3.823004e-003
3.872425e+003,1.257028e-003
3.874354e+003,1.168219e-003
3.876282e+003,4.440043e-004
3.878210e+003,-7.409975e-004
3.880139e+003,2.375555e-003
3.882068e+003,2.512738e-003
3.883996e+003,4.199250e-004
3.885925e+003,1.673724e-003
3.887853e+003,1.738435e-004
3.889781e+003,-9.212643e-004
3.891710e+003,1.447338e-003
3.893638e+003,9.090183e-004
3.895567e+003,-5.380008e-004
3.897496e+003,4.148763e-004
3.899424e+003,2.770516e-003
3.901353e+003,2.736434e-003
3.903281e+003,2.761509e-003
3.905209e+003,2.421895e-003
3.907138e+003,3.433041e-005
3.909066e+003,-1.396820e-003
3.910995e+003,-1.095605e-003
3.912924e+003,-7.559955e-004
3.914852e+003,-3.560726e-004
3.916781e+003,5.651955e-004
3.918709e+003,4.435414e-004
3.920637e+003,-1.794742e-004
3.922566e+003,-1.948653e-004
3.924494e+003,8.121161e-004
3.926423e+003,7.796753e-005
3.928352e+003,-4.610214e-004
3.930280e+003,5.562268e-004
3.932208e+003,1.132867e-003
3.934137e+003,-1.066560e-004
3.936065e+003,-1.232268e-003
3.937994e+003,-9.417580e-004
3.939922e+003,-8.634990e-004
3.941851e+003,-6.833114e-005
3.943780e+003,4.113838e-004
3.945708e+003,-4.141349e-004
3.947636e+003,1.709070e-005
3.949565e+003,3.601173e-004
3.951493e+003,-3.510881e-004
3.953422e+003,-8.908790e-004
3.955351e+003,-8.987198e-004
3.957279e+003,-7.854663e-004
3.959208e+003,-8.465750e-004
3.961136e+003,-6.380249e-004
3.963064e+003,-7.027071e-004
3.964993e+003,-1.379247e-003
3.966921e+003,-1.349864e-003
3.968850e+003,-8.556256e-004
3.970779e+003,-7.084077e-004
3.972707e+003,-7.415656e-004
3.974635e+003,-6.876392e-004
3.976564e+003,-7.568309e-004
3.978492e+003,-1.013105e-003
3.980421e+003,-1.163492e-003
3.982349e+003,-1.159175e-003
3.984278e+003,-1.243362e-003
3.986207e+003,-1.431744e-003
3.988135e+003,-1.309935e-003
3.990063e+003,-9.741904e-004
3.991992e+003,-1.056199e-003
3.993920e+003,-1.173376e-003
3.995849e+003,-1.292798e-003
3.997777e+003,-1.493913e-003
3.999706e+003,-1.401717e-003
4.001635e+003,0.000000e+000
