3.991992e+002,0.000000e+000
4.011277e+002,0.000000e+000
4.030562e+002,0.000000e+000
4.049846e+002,0.000000e+000
4.069131e+002,0.000000e+000
4.088416e+002,0.000000e+000
4.107701e+002,0.000000e+000
4.126986e+002,0.000000e+000
4.146271e+002,0.000000e+000
4.165556e+002,0.000000e+000
4.184841e+002,0.000000e+000
4.204126e+002,0.000000e+000
4.223411e+002,0.000000e+000
4.242697e+002,0.000000e+000
4.261982e+002,0.000000e+000
4.281266e+002,0.000000e+000
4.300551e+002,0.000000e+000
4.319836e+002,0.000000e+000
4.339121e+002,0.000000e+000
4.358406e+002,0.000000e+000
4.377691e+002,0.000000e+000
4.396976e+002,0.000000e+000
4.416261e+002,0.000000e+000
4.435546e+002,0.000000e+000
4.454831e+002,0.000000e+000
4.474116e+002,0.000000e+000
4.493401e+002,0.000000e+000
4.512686e+002,0.000000e+000
4.531971e+002,0.000000e+000
4.551256e+002,0.000000e+000
4.570541e+002,0.000000e+000
4.589826e+002,0.000000e+000
4.609111e+002,0.000000e+000
4.628396e+002,0.000000e+000
4.647681e+002,0.000000e+000
4.666966e+002,0.000000e+000
4.686251e+002,0.000000e+000
4.705536e+002,0.000000e+000
4.724821e+002,0.000000e+000
4.744106e+002,0.000000e+000
4.763391e+002,0.000000e+000
4.782676e+002,0.000000e+000
4.801961e+002,0.000000e+000
4.821246e+002,0.000000e+000
4.840531e+002,0.000000e+000
4.859816e+002,0.000000e+000
4.879101e+002,0.000000e+000
4.898386e+002,0.000000e+000
4.917671e+002,0.000000e+000
4.936956e+002,0.000000e+000
4.956241e+002,0.000000e+000
4.975526e+002,0.000000e+000
4.994811e+002,0.000000e+000
5.014096e+002,0.000000e+000
5.033381e+002,0.000000e+000
5.052666e+002,0.000000e+000
5.071951e+002,0.000000e+000
5.091236e+002,0.000000e+000
5.110521e+002,0.000000e+000
5.129806e+002,0.000000e+000
5.149091e+002,0.000000e+000
5.168376e+002,0.000000e+000
5.187661e+002,0.000000e+000
5.206946e+002,0.000000e+000
5.226230e+002,0.000000e+000
5.245516e+002,2.868287e-005
5.264800e+002,-5.933782e-005
5.284086e+002,-1.329011e-004
5.303370e+002,-1.460081e-004
5.322656e+002,-8.236337e-005
5.341940e+002,-1.511672e-004
5.361226e+002,-2.436922e-004
5.380510e+002,-1.940369e-004
5.399796e+002,-4.278962e-005
5.419081e+002,-4.641619e-005
5.438365e+002,-1.056283e-004
5.457650e+002,-1.735259e-004
5.476935e+002,-1.490107e-004
5.496221e+002,-6.380910e-005
5.515505e+002,-1.256075e-005
5.534790e+002,5.640555e-006
5.554075e+002,-3.329758e-005
5.573361e+002,-7.936079e-005
5.592645e+002,-6.449223e-005
5.611931e+002,-1.327465e-004
5.631215e+002,-1.327121e-004
5.650500e+002,-1.558159e-004
5.669785e+002,-6.974721e-005
5.689070e+002,1.287693e-005
5.708355e+002,-8.918950e-005
5.727640e+002,-1.352155e-004
5.746925e+002,-8.803373e-005
5.766210e+002,-1.186389e-004
5.785495e+002,-1.267055e-004
5.804780e+002,-2.328642e-004
5.824065e+002,-3.181929e-004
5.843350e+002,-2.821470e-004
5.862635e+002,-1.230179e-004
5.881920e+002,-1.342245e-004
5.901205e+002,-1.393259e-004
5.920490e+002,-1.514903e-004
5.939775e+002,-1.367740e-004
5.959060e+002,-8.557970e-005
5.978345e+002,1.500733e-005
5.997630e+002,-1.147995e-005
6.016915e+002,3.637373e-005
6.036200e+002,3.152713e-005
6.055485e+002,6.287266e-005
6.074770e+002,3.107497e-005
6.094055e+002,2.745725e-005
6.113340e+002,-2.747960e-005
6.132625e+002,-5.265791e-005
6.151910e+002,-1.464766e-004
6.171195e+002,-1.307311e-004
6.190480e+002,-1.641857e-004
6.209765e+002,-1.414386e-004
6.229050e+002,-9.411713e-005
6.248335e+002,-2.855202e-005
6.267620e+002,-1.249369e-005
6.286905e+002,-3.832160e-005
6.306190e+002,-4.138798e-005
6.325475e+002,8.775201e-005
6.344760e+002,1.622727e-004
6.364045e+002,1.770430e-004
6.383330e+002,1.670970e-004
6.402615e+002,1.959391e-004
6.421899e+002,1.737368e-004
6.441185e+002,2.296343e-004
6.460470e+002,3.078552e-004
6.479755e+002,3.634449e-004
6.499039e+002,3.282800e-004
6.518325e+002,3.557405e-004
6.537610e+002,3.252188e-004
6.556895e+002,3.710319e-004
6.576179e+002,3.723335e-004
6.595464e+002,4.252726e-004
6.614750e+002,4.146397e-004
6.634034e+002,4.364140e-004
6.653319e+002,4.874272e-004
6.672604e+002,6.506490e-004
6.691890e+002,6.746072e-004
6.711174e+002,7.266616e-004
6.730460e+002,7.508826e-004
6.749745e+002,8.123266e-004
6.769030e+002,8.874647e-004
6.788314e+002,1.045949e-003
6.807599e+002,1.173744e-003
6.826885e+002,1.375807e-003
6.846169e+002,1.397835e-003
6.865454e+002,1.557572e-003
6.884739e+002,1.851135e-003
6.904025e+002,2.150970e-003
6.923309e+002,2.427543e-003
6.942594e+002,2.875173e-003
6.961879e+002,3.351232e-003
6.981165e+002,4.055004e-003
7.000449e+002,4.863053e-003
7.019734e+002,6.013595e-003
7.039019e+002,7.522704e-003
7.058304e+002,9.703350e-003
7.077589e+002,1.265283e-002
7.096874e+002,1.712761e-002
7.116159e+002,2.433304e-002
7.135444e+002,3.816608e-002
7.154729e+002,6.301250e-002
7.174014e+002,9.636816e-002
7.193299e+002,1.112159e-001
7.212584e+002,8.526444e-002
7.231869e+002,5.804266e-002
7.251154e+002,4.861072e-002
7.270439e+002,5.363981e-002
7.289724e+002,6.788117e-002
7.309009e+002,6.208885e-002
7.328294e+002,3.533978e-002
7.347579e+002,1.856676e-002
7.366864e+002,1.248889e-002
7.386149e+002,9.826095e-003
7.405434e+002,8.233570e-003
7.424719e+002,7.233015e-003
7.444004e+002,6.397042e-003
7.463289e+002,5.830079e-003
7.482574e+002,5.309941e-003
7.501859e+002,4.944782e-003
7.521144e+002,4.604686e-003
7.540428e+002,4.355694e-003
7.559714e+002,4.063077e-003
7.578999e+002,3.836458e-003
7.598284e+002,3.716474e-003
7.617568e+002,3.694661e-003
7.636854e+002,3.639913e-003
7.656139e+002,3.587198e-003
7.675424e+002,3.483405e-003
7.694709e+002,3.438789e-003
7.713994e+002,3.378732e-003
7.733279e+002,3.297322e-003
7.752563e+002,3.177570e-003
7.771849e+002,3.032449e-003
7.791134e+002,2.909523e-003
7.810419e+002,2.870674e-003
7.829703e+002,2.785982e-003
7.848989e+002,2.657489e-003
7.868274e+002,2.589722e-003
7.887559e+002,2.567602e-003
7.906843e+002,2.524400e-003
7.926129e+002,2.471052e-003
7.945414e+002,2.436432e-003
7.964698e+002,2.392805e-003
7.983983e+002,2.360894e-003
8.003268e+002,2.358963e-003
8.022554e+002,2.352044e-003
8.041838e+002,2.325618e-003
8.061123e+002,2.274209e-003
8.080408e+002,2.160886e-003
8.099694e+002,2.074765e-003
8.118978e+002,2.007131e-003
8.138263e+002,1.951158e-003
8.157548e+002,1.907759e-003
8.176833e+002,1.844262e-003
8.196118e+002,1.800052e-003
8.215403e+002,1.812310e-003
8.234689e+002,1.776098e-003
8.253973e+002,1.693640e-003
8.273258e+002,1.667015e-003
8.292543e+002,1.620021e-003
8.311829e+002,1.563041e-003
8.331113e+002,1.576406e-003
8.350398e+002,1.590262e-003
8.369683e+002,1.603270e-003
8.388969e+002,1.604363e-003
8.408253e+002,1.598978e-003
8.427538e+002,1.578666e-003
8.446823e+002,1.564369e-003
8.466108e+002,1.543808e-003
8.485393e+002,1.604423e-003
8.504678e+002,1.616448e-003
8.523963e+002,1.610926e-003
8.543248e+002,1.598188e-003
8.562533e+002,1.645552e-003
8.581818e+002,1.704017e-003
8.601103e+002,1.694407e-003
8.620388e+002,1.649209e-003
8.639673e+002,1.712065e-003
8.658958e+002,1.677580e-003
8.678243e+002,1.628751e-003
8.697528e+002,1.612622e-003
8.716813e+002,1.705952e-003
8.736098e+002,1.815387e-003
8.755383e+002,1.937462e-003
8.774668e+002,1.993401e-003
8.793953e+002,2.109204e-003
8.813238e+002,2.236499e-003
8.832523e+002,2.434921e-003
8.851808e+002,2.695448e-003
8.871093e+002,2.930352e-003
8.890378e+002,2.931139e-003
8.909663e+002,2.839386e-003
8.928948e+002,2.639868e-003
8.948232e+002,2.579900e-003
8.967518e+002,2.569024e-003
8.986803e+002,2.501732e-003
9.006088e+002,2.398856e-003
9.025372e+002,2.406607e-003
9.044658e+002,2.522675e-003
9.063943e+002,2.702078e-003
9.083228e+002,2.818704e-003
9.102512e+002,2.772935e-003
9.121797e+002,2.515811e-003
9.141083e+002,2.303044e-003
9.160367e+002,2.157321e-003
9.179653e+002,2.112613e-003
9.198937e+002,2.145649e-003
9.218223e+002,2.199488e-003
9.237507e+002,2.115440e-003
9.256793e+002,2.063358e-003
9.276077e+002,2.138804e-003
9.295363e+002,2.235663e-003
9.314647e+002,2.228128e-003
9.333932e+002,2.227036e-003
9.353217e+002,2.194155e-003
9.372502e+002,2.160644e-003
9.391787e+002,2.114369e-003
9.411072e+002,2.132376e-003
9.430358e+002,2.136966e-003
9.449642e+002,2.147849e-003
9.468928e+002,2.112082e-003
9.488212e+002,2.106234e-003
9.507498e+002,2.087808e-003
9.526782e+002,2.110367e-003
9.546068e+002,2.186175e-003
9.565352e+002,2.302391e-003
9.584637e+002,2.348364e-003
9.603922e+002,2.456737e-003
9.623207e+002,2.523997e-003
9.642492e+002,2.582568e-003
9.661777e+002,2.592937e-003
9.681062e+002,2.594644e-003
9.700347e+002,2.538734e-003
9.719632e+002,2.521054e-003
9.738917e+002,2.476013e-003
9.758202e+002,2.424770e-003
9.777487e+002,2.381616e-003
9.796772e+002,2.420583e-003
9.816057e+002,2.393223e-003
9.835342e+002,2.430767e-003
9.854627e+002,2.507694e-003
9.873912e+002,2.575824e-003
9.893197e+002,2.637405e-003
9.912482e+002,2.736517e-003
9.931767e+002,2.722361e-003
9.951052e+002,2.729829e-003
9.970337e+002,2.717451e-003
9.989622e+002,2.754461e-003
1.000891e+003,2.815262e-003
1.002819e+003,2.887384e-003
1.004748e+003,2.936835e-003
1.006676e+003,3.007527e-003
1.008605e+003,3.037481e-003
1.010533e+003,3.137187e-003
1.012462e+003,3.180164e-003
1.014390e+003,3.228525e-003
1.016319e+003,3.238433e-003
1.018247e+003,3.328683e-003
1.020176e+003,3.387156e-003
1.022104e+003,3.410885e-003
1.024033e+003,3.431579e-003
1.025961e+003,3.478791e-003
1.027890e+003,3.526911e-003
1.029818e+003,3.598707e-003
1.031747e+003,3.612760e-003
1.033675e+003,3.652855e-003
1.035604e+003,3.690536e-003
1.037532e+003,3.771991e-003
1.039461e+003,3.817685e-003
1.041389e+003,3.876489e-003
1.043318e+003,3.931114e-003
1.045246e+003,4.077710e-003
1.047175e+003,4.175945e-003
1.049103e+003,4.326444e-003
1.051032e+003,4.419607e-003
1.052960e+003,4.472209e-003
1.054889e+003,4.541021e-003
1.056817e+003,4.640712e-003
1.058746e+003,4.685489e-003
1.060674e+003,4.792918e-003
1.062603e+003,4.908665e-003
1.064531e+003,5.015544e-003
1.066460e+003,5.057692e-003
1.068388e+003,5.128495e-003
1.070317e+003,5.168510e-003
1.072245e+003,5.249730e-003
1.074174e+003,5.357044e-003
1.076102e+003,5.536388e-003
1.078031e+003,5.677854e-003
1.079959e+003,5.793125e-003
1.081888e+003,5.752132e-003
1.083816e+003,5.709084e-003
1.085745e+003,5.607377e-003
1.087673e+003,5.507515e-003
1.089602e+003,5.432700e-003
1.091530e+003,5.389154e-003
1.093459e+003,5.266574e-003
1.095387e+003,5.182825e-003
1.097316e+003,5.044113e-003
1.099244e+003,4.995372e-003
1.101173e+003,4.943591e-003
1.103101e+003,4.919446e-003
1.105030e+003,4.814047e-003
1.106958e+003,4.729499e-003
1.108887e+003,4.663755e-003
1.110815e+003,4.605868e-003
1.112744e+003,4.474752e-003
1.114672e+003,4.459829e-003
1.116601e+003,4.388919e-003
1.118529e+003,4.367974e-003
1.120458e+003,4.307114e-003
1.122386e+003,4.287323e-003
1.124315e+003,4.269416e-003
1.126243e+003,4.376888e-003
1.128172e+003,4.421100e-003
1.130100e+003,4.468782e-003
1.132029e+003,4.465222e-003
1.133957e+003,4.460793e-003
1.135885e+003,4.386573e-003
1.137814e+003,4.422193e-003
1.139743e+003,4.461356e-003
1.141671e+003,4.578199e-003
1.143600e+003,4.648330e-003
1.145528e+003,4.804970e-003
1.147457e+003,5.004412e-003
1.149385e+003,5.221508e-003
1.151314e+003,5.417326e-003
1.153242e+003,5.655420e-003
1.155171e+003,5.822469e-003
1.157099e+003,6.000700e-003
1.159028e+003,6.080809e-003
1.160956e+003,6.171330e-003
1.162885e+003,6.165370e-003
1.164813e+003,6.177103e-003
1.166742e+003,6.051150e-003
1.168670e+003,5.881187e-003
1.170599e+003,5.644479e-003
1.172527e+003,5.475345e-003
1.174456e+003,5.320023e-003
1.176384e+003,5.309233e-003
1.178313e+003,5.168288e-003
1.180241e+003,4.968833e-003
1.182170e+003,4.791198e-003
1.184098e+003,4.724140e-003
1.186027e+003,4.686869e-003
1.187955e+003,4.719516e-003
1.189884e+003,4.726401e-003
1.191812e+003,4.817879e-003
1.193740e+003,4.866282e-003
1.195669e+003,4.957967e-003
1.197598e+003,5.032801e-003
1.199526e+003,5.198305e-003
1.201455e+003,5.287223e-003
1.203383e+003,5.420830e-003
1.205312e+003,5.555422e-003
1.207240e+003,5.757804e-003
1.209168e+003,5.901209e-003
1.211097e+003,6.081744e-003
1.213026e+003,6.257453e-003
1.214954e+003,6.475955e-003
1.216883e+003,6.637421e-003
1.218811e+003,6.856380e-003
1.220740e+003,7.018328e-003
1.222668e+003,7.191226e-003
1.224596e+003,7.315057e-003
1.226525e+003,7.503982e-003
1.228453e+003,7.646362e-003
1.230382e+003,7.820748e-003
1.232311e+003,7.941927e-003
1.234239e+003,8.098488e-003
1.236167e+003,8.160054e-003
1.238096e+003,8.221546e-003
1.240025e+003,8.184678e-003
1.241953e+003,8.152773e-003
1.243882e+003,8.017497e-003
1.245810e+003,7.914236e-003
1.247739e+003,7.766990e-003
1.249667e+003,7.698852e-003
1.251595e+003,7.597590e-003
1.253524e+003,7.529764e-003
1.255453e+003,7.442857e-003
1.257381e+003,7.485129e-003
1.259310e+003,7.455199e-003
1.261238e+003,7.418678e-003
1.263167e+003,7.292701e-003
1.265095e+003,7.212978e-003
1.267023e+003,7.104685e-003
1.268952e+003,7.094662e-003
1.270880e+003,7.031512e-003
1.272809e+003,7.073020e-003
1.274738e+003,7.067211e-003
1.276666e+003,7.125789e-003
1.278594e+003,7.165992e-003
1.280523e+003,7.369473e-003
1.282451e+003,7.510642e-003
1.284380e+003,7.732808e-003
1.286308e+003,7.890604e-003
1.288237e+003,8.140860e-003
1.290166e+003,8.385445e-003
1.292094e+003,8.797025e-003
1.294022e+003,9.210016e-003
1.295951e+003,9.611433e-003
1.297879e+003,9.871612e-003
1.299808e+003,1.016655e-002
1.301736e+003,1.029035e-002
1.303665e+003,1.033707e-002
1.305594e+003,1.022911e-002
1.307522e+003,1.013787e-002
1.309450e+003,9.860490e-003
1.311379e+003,9.562199e-003
1.313307e+003,9.107391e-003
1.315236e+003,8.725229e-003
1.317164e+003,8.279138e-003
1.319093e+003,7.923343e-003
1.321021e+003,7.504931e-003
1.322950e+003,7.215187e-003
1.324878e+003,6.961305e-003
1.326807e+003,6.871848e-003
1.328735e+003,6.808777e-003
1.330664e+003,6.961034e-003
1.332592e+003,7.213022e-003
1.334521e+003,7.706942e-003
1.336449e+003,8.314034e-003
1.338378e+003,9.186458e-003
1.340306e+003,9.891779e-003
1.342235e+003,1.040912e-002
1.344163e+003,1.083705e-002
1.346092e+003,1.152940e-002
1.348021e+003,1.217231e-002
1.349949e+003,1.290180e-002
1.351877e+003,1.326789e-002
1.353806e+003,1.329813e-002
1.355734e+003,1.305530e-002
1.357663e+003,1.313961e-002
1.359591e+003,1.344098e-002
1.361520e+003,1.422769e-002
1.363448e+003,1.552828e-002
1.365377e+003,1.681047e-002
1.367305e+003,1.771533e-002
1.369234e+003,1.823545e-002
1.371162e+003,1.799125e-002
1.373091e+003,1.820490e-002
1.375019e+003,2.018641e-002
1.376948e+003,2.185265e-002
1.378876e+003,2.015536e-002
1.380805e+003,1.566534e-002
1.382733e+003,1.134245e-002
1.384662e+003,8.857197e-003
1.386590e+003,7.350051e-003
1.388519e+003,6.620813e-003
1.390447e+003,6.104722e-003
1.392376e+003,5.910289e-003
1.394304e+003,5.635880e-003
1.396233e+003,5.681190e-003
1.398161e+003,5.523092e-003
1.400090e+003,5.765817e-003
1.402018e+003,5.609658e-003
1.403947e+003,5.778518e-003
1.405875e+003,5.847325e-003
1.407804e+003,6.102005e-003
1.409732e+003,6.127440e-003
1.411661e+003,6.455521e-003
1.413589e+003,6.481736e-003
1.415518e+003,6.802391e-003
1.417446e+003,6.859303e-003
1.419375e+003,7.760555e-003
1.421303e+003,8.239453e-003
1.423232e+003,9.310677e-003
1.425160e+003,1.077004e-002
1.427089e+003,1.274628e-002
1.429017e+003,1.519062e-002
1.430946e+003,1.909762e-002
1.432874e+003,2.224042e-002
1.434803e+003,2.521285e-002
1.436731e+003,2.857451e-002
1.438660e+003,3.175662e-002
1.440588e+003,3.352454e-002
1.442517e+003,3.612084e-002
1.444445e+003,3.814897e-002
1.446374e+003,4.102750e-002
1.448302e+003,4.511036e-002
1.450231e+003,5.135871e-002
1.452159e+003,6.036738e-002
1.454088e+003,7.179385e-002
1.456016e+003,8.275895e-002
1.457945e+003,1.076401e-001
1.459873e+003,1.497436e-001
1.461802e+003,1.953920e-001
1.463730e+003,2.010948e-001
1.465659e+003,1.604332e-001
1.467587e+003,1.459796e-001
1.469516e+003,1.434067e-001
1.471444e+003,1.598967e-001
1.473373e+003,1.366262e-001
1.475301e+003,7.444028e-002
1.477230e+003,3.417896e-002
1.479158e+003,2.226453e-002
1.481087e+003,1.626184e-002
1.483015e+003,1.349235e-002
1.484944e+003,1.130169e-002
1.486872e+003,1.056848e-002
1.488801e+003,8.932093e-003
1.490729e+003,8.678841e-003
1.492658e+003,7.523090e-003
1.494586e+003,7.397199e-003
1.496515e+003,6.584416e-003
1.498443e+003,6.742182e-003
1.500372e+003,6.019083e-003
1.502300e+003,6.012301e-003
1.504229e+003,5.401805e-003
1.506157e+003,5.715945e-003
1.508086e+003,5.066653e-003
1.510014e+003,5.448299e-003
1.511943e+003,4.947404e-003
1.513871e+003,5.042912e-003
1.515800e+003,4.691036e-003
1.517728e+003,5.042494e-003
1.519657e+003,4.593438e-003
1.521585e+003,5.066821e-003
1.523514e+003,4.563169e-003
1.525442e+003,4.670500e-003
1.527371e+003,4.522954e-003
1.529299e+003,4.724374e-003
1.531228e+003,4.355986e-003
1.533156e+003,4.616426e-003
1.535085e+003,4.514332e-003
1.537013e+003,4.532576e-003
1.538942e+003,4.122693e-003
1.540870e+003,4.841951e-003
1.542799e+003,4.359663e-003
1.544727e+003,4.487847e-003
1.546656e+003,4.195408e-003
1.548584e+003,4.249834e-003
1.550513e+003,3.966202e-003
1.552441e+003,3.942721e-003
1.554370e+003,3.678291e-003
1.556298e+003,3.716535e-003
1.558227e+003,3.411251e-003
1.560155e+003,3.858024e-003
1.562084e+003,3.339516e-003
1.564012e+003,3.288861e-003
1.565941e+003,3.086104e-003
1.567869e+003,3.042238e-003
1.569798e+003,2.915650e-003
1.571726e+003,3.011459e-003
1.573655e+003,2.748707e-003
1.575583e+003,2.883946e-003
1.577512e+003,2.905739e-003
1.579440e+003,2.918018e-003
1.581369e+003,2.752157e-003
1.583297e+003,2.790597e-003
1.585226e+003,2.709478e-003
1.587154e+003,2.790415e-003
1.589083e+003,2.733036e-003
1.591011e+003,2.816593e-003
1.592940e+003,2.747431e-003
1.594868e+003,2.849709e-003
1.596797e+003,2.788409e-003
1.598725e+003,2.835375e-003
1.600654e+003,2.715029e-003
1.602582e+003,2.735564e-003
1.604511e+003,2.683961e-003
1.606439e+003,2.802337e-003
1.608368e+003,2.765787e-003
1.610296e+003,2.927753e-003
1.612225e+003,2.871166e-003
1.614153e+003,2.860833e-003
1.616082e+003,2.920142e-003
1.618010e+003,3.272741e-003
1.619939e+003,3.076156e-003
1.621867e+003,3.197093e-003
1.623796e+003,3.428866e-003
1.625724e+003,3.525208e-003
1.627653e+003,3.491455e-003
1.629581e+003,3.727869e-003
1.631510e+003,3.709706e-003
1.633438e+003,3.793175e-003
1.635367e+003,3.946948e-003
1.637295e+003,4.441066e-003
1.639224e+003,4.385990e-003
1.641152e+003,4.523792e-003
1.643081e+003,4.507628e-003
1.645009e+003,4.520036e-003
1.646938e+003,4.525272e-003
1.648866e+003,4.632480e-003
1.650795e+003,4.280856e-003
1.652723e+003,4.389749e-003
1.654652e+003,4.718336e-003
1.656580e+003,4.638180e-003
1.658509e+003,4.424706e-003
1.660437e+003,4.391104e-003
1.662366e+003,4.267248e-003
1.664294e+003,4.281166e-003
1.666223e+003,4.039722e-003
1.668151e+003,3.952950e-003
1.670080e+003,3.809829e-003
1.672008e+003,3.784289e-003
1.673937e+003,3.564467e-003
1.675865e+003,3.608376e-003
1.677794e+003,3.346626e-003
1.679722e+003,3.227361e-003
1.681651e+003,2.906566e-003
1.683579e+003,2.955074e-003
1.685508e+003,2.986489e-003
1.687436e+003,2.852268e-003
1.689365e+003,2.569548e-003
1.691293e+003,2.508386e-003
1.693222e+003,2.194041e-003
1.695150e+003,2.123052e-003
1.697079e+003,2.096931e-003
1.699007e+003,2.068023e-003
1.700936e+003,2.130643e-003
1.702864e+003,2.259227e-003
1.704793e+003,2.145993e-003
1.706721e+003,2.377989e-003
1.708650e+003,2.384998e-003
1.710578e+003,2.554858e-003
1.712507e+003,2.608463e-003
1.714435e+003,2.803905e-003
1.716364e+003,2.938472e-003
1.718292e+003,3.574828e-003
1.720221e+003,3.647428e-003
1.722149e+003,3.652826e-003
1.724078e+003,3.456449e-003
1.726006e+003,3.211508e-003
1.727935e+003,3.022151e-003
1.729863e+003,3.112912e-003
1.731792e+003,3.021976e-003
1.733720e+003,3.234809e-003
1.735649e+003,3.375582e-003
1.737577e+003,3.359260e-003
1.739506e+003,3.350809e-003
1.741434e+003,3.465924e-003
1.743363e+003,3.366988e-003
1.745291e+003,3.319610e-003
1.747220e+003,3.078438e-003
1.749148e+003,2.923781e-003
1.751077e+003,2.590764e-003
1.753005e+003,2.206871e-003
1.754934e+003,1.770888e-003
1.756862e+003,1.550579e-003
1.758791e+003,1.137704e-003
1.760719e+003,9.991191e-004
1.762648e+003,8.433480e-004
1.764576e+003,6.623939e-004
1.766505e+003,4.876591e-004
1.768433e+003,5.655475e-004
1.770362e+003,4.385784e-004
1.772290e+003,5.495753e-004
1.774219e+003,3.578383e-004
1.776147e+003,2.367869e-004
1.778076e+003,1.447890e-004
1.780004e+003,2.927408e-004
1.781933e+003,2.337545e-004
1.783861e+003,2.924427e-004
1.785790e+003,2.522916e-004
1.787718e+003,2.432708e-004
1.789646e+003,7.376261e-005
1.791575e+003,2.070703e-004
1.793504e+003,2.901666e-004
1.795432e+003,3.018305e-004
1.797361e+003,1.800340e-004
1.799289e+003,1.759995e-004
1.801218e+003,6.703660e-005
1.803146e+003,9.465031e-005
1.805074e+003,-2.367422e-006
1.807003e+003,1.862645e-008
1.808932e+003,-1.853779e-004
1.810860e+003,-3.219508e-004
1.812789e+003,-4.587956e-004
1.814717e+003,-6.230418e-004
1.816646e+003,-8.561406e-004
1.818574e+003,-5.002283e-004
1.820502e+003,-3.279801e-004
1.822431e+003,-2.552774e-004
1.824360e+003,-4.652999e-004
1.826288e+003,-4.487000e-004
1.828217e+003,-6.808452e-004
1.830145e+003,-6.355550e-004
1.832073e+003,-6.599911e-004
1.834002e+003,-5.638711e-004
1.835931e+003,-6.918423e-004
1.837859e+003,-6.863605e-004
1.839788e+003,-8.971225e-004
1.841716e+003,-9.768307e-004
1.843645e+003,-1.014579e-003
1.845573e+003,-7.154774e-004
1.847501e+003,-8.775312e-004
1.849430e+003,-8.367971e-004
1.851359e+003,-1.003932e-003
1.853287e+003,-9.305067e-004
1.855216e+003,-1.037583e-003
1.857144e+003,-9.536967e-004
1.859073e+003,-8.965861e-004
1.861001e+003,-7.097591e-004
1.862929e+003,-1.009535e-003
1.864858e+003,-9.938665e-004
1.866787e+003,-9.738170e-004
1.868715e+003,-7.523485e-004
1.870644e+003,-1.012452e-003
1.872572e+003,-9.908583e-004
1.874500e+003,-1.056777e-003
1.876429e+003,-1.045024e-003
1.878357e+003,-1.157226e-003
1.880286e+003,-1.024261e-003
1.882215e+003,-1.215614e-003
1.884143e+003,-1.018910e-003
1.886072e+003,-1.121437e-003
1.888000e+003,-8.454006e-004
1.889928e+003,-7.192045e-004
1.891857e+003,-5.038120e-004
1.893785e+003,-5.609151e-004
1.895714e+003,-1.153648e-004
1.897643e+003,-1.009610e-004
1.899571e+003,-2.046619e-004
1.901500e+003,-2.014358e-004
1.903428e+003,-1.982190e-004
1.905356e+003,-1.950078e-004
1.907285e+003,-1.918059e-004
1.909213e+003,-1.886114e-004
1.911142e+003,-1.854245e-004
1.913071e+003,-1.822468e-004
1.914999e+003,-1.790747e-004
1.916927e+003,-1.759119e-004
1.918856e+003,-1.727566e-004
1.920784e+003,-1.696087e-004
1.922713e+003,-1.664720e-004
1.924641e+003,-1.633409e-004
1.926570e+003,-1.602136e-004
1.928499e+003,-1.570992e-004
1.930427e+003,-1.539923e-004
1.932355e+003,-1.508929e-004
1.934284e+003,-1.477990e-004
1.936212e+003,-1.447164e-004
1.938141e+003,-1.416374e-004
1.940070e+003,-1.385678e-004
1.941998e+003,-1.355093e-004
1.943927e+003,-1.324564e-004
1.945855e+003,-1.294110e-004
1.947783e+003,-1.263730e-004
1.949712e+003,-1.233444e-004
1.951640e+003,-1.203213e-004
1.953569e+003,-1.173094e-004
1.955498e+003,-1.143012e-004
1.957426e+003,-1.113042e-004
1.959354e+003,-1.083147e-004
1.961283e+003,-1.053326e-004
1.963211e+003,-1.023579e-004
1.965140e+003,-9.939075e-005
1.967068e+003,-9.643286e-005
1.968997e+003,-9.348243e-005
1.970926e+003,-9.054132e-005
1.972854e+003,-8.760393e-005
1.974782e+003,-8.467771e-005
1.976711e+003,-8.175708e-005
1.978639e+003,-7.884577e-005
1.980568e+003,-7.594191e-005
1.982496e+003,-7.304735e-005
1.984425e+003,-7.015839e-005
1.986354e+003,-6.727688e-005
1.988282e+003,-6.440468e-005
1.990210e+003,-6.154180e-005
1.992139e+003,-5.868450e-005
1.994067e+003,-5.583651e-005
1.995996e+003,-5.299598e-005
1.997924e+003,-5.016290e-005
1.999853e+003,-4.733726e-005
2.001781e+003,-4.451908e-005
2.003710e+003,-4.171021e-005
2.005638e+003,-3.890879e-005
2.007567e+003,-3.611296e-005
2.009495e+003,-3.333017e-005
2.011424e+003,-3.055297e-005
2.013352e+003,-2.778135e-005
2.015281e+003,-2.501905e-005
2.017209e+003,-2.226420e-005
2.019138e+003,-1.951866e-005
2.021066e+003,-1.678057e-005
2.022995e+003,-1.404993e-005
2.024923e+003,-1.132488e-005
2.026852e+003,-8.611009e-006
2.028781e+003,-5.902722e-006
2.030709e+003,-3.201887e-006
2.032637e+003,-5.122274e-007
2.034566e+003,2.171844e-006
2.036494e+003,4.848465e-006
2.038423e+003,7.517636e-006
2.040351e+003,1.017563e-005
2.042280e+003,1.282804e-005
2.044208e+003,1.547299e-005
2.046137e+003,1.810864e-005
2.048065e+003,2.073683e-005
2.049994e+003,2.335757e-005
2.051922e+003,2.597086e-005
2.053851e+003,2.858043e-005
2.055779e+003,3.117695e-005
2.057708e+003,3.376231e-005
2.059636e+003,3.634579e-005
2.061565e+003,3.891811e-005
2.063493e+003,4.148297e-005
2.065422e+003,4.404411e-005
2.067350e+003,4.659221e-005
2.069279e+003,4.913472e-005
2.071207e+003,5.166978e-005
2.073136e+003,5.419552e-005
2.075064e+003,5.671568e-005
2.076993e+003,5.922467e-005
2.078921e+003,6.172620e-005
2.080850e+003,6.422214e-005
2.082778e+003,6.671064e-005
2.084707e+003,6.919168e-005
2.086635e+003,7.166341e-005
2.088564e+003,7.412769e-005
2.090492e+003,7.658266e-005
2.092421e+003,7.903017e-005
2.094349e+003,8.146837e-005
2.096278e+003,8.390285e-005
2.098206e+003,8.632801e-005
2.100135e+003,8.874387e-005
2.102063e+003,9.115040e-005
2.103992e+003,9.355322e-005
2.105920e+003,9.594485e-005
2.107849e+003,9.832904e-005
2.109777e+003,1.007058e-004
2.111706e+003,1.030751e-004
2.113634e+003,1.054406e-004
2.115563e+003,1.077950e-004
2.117491e+003,1.101401e-004
2.119420e+003,1.124777e-004
2.121348e+003,1.148060e-004
2.123277e+003,1.171287e-004
2.125205e+003,1.194440e-004
2.127134e+003,1.217499e-004
2.129062e+003,1.240503e-004
2.130991e+003,1.263414e-004
2.132919e+003,1.286231e-004
2.134848e+003,1.308974e-004
2.136776e+003,1.331642e-004
2.138705e+003,1.354218e-004
2.140633e+003,1.376756e-004
2.142562e+003,1.399200e-004
2.144490e+003,1.421571e-004
2.146419e+003,1.443848e-004
2.148347e+003,1.466051e-004
2.150276e+003,1.488160e-004
2.152204e+003,1.510214e-004
2.154133e+003,1.532175e-004
2.156061e+003,1.554098e-004
2.157990e+003,1.575891e-004
2.159918e+003,1.597628e-004
2.161847e+003,1.619253e-004
2.163775e+003,1.640823e-004
2.165704e+003,1.662299e-004
2.167632e+003,1.683738e-004
2.169561e+003,1.705047e-004
2.171489e+003,1.726300e-004
2.173418e+003,1.747515e-004
2.175346e+003,1.768619e-004
2.177275e+003,1.789648e-004
2.179203e+003,1.810603e-004
2.181132e+003,1.831446e-004
2.183060e+003,1.852233e-004
2.184989e+003,1.872927e-004
2.186917e+003,1.893584e-004
2.188846e+003,1.914147e-004
2.190774e+003,1.934599e-004
2.192703e+003,1.954995e-004
2.194631e+003,1.975298e-004
2.196560e+003,1.995564e-004
2.198488e+003,2.015699e-004
2.200417e+003,2.035815e-004
2.202345e+003,2.055801e-004
2.204274e+003,2.075732e-004
2.206202e+003,2.095569e-004
2.208131e+003,2.115332e-004
2.210059e+003,2.135001e-004
2.211988e+003,2.154615e-004
2.213916e+003,2.174135e-004
2.215845e+003,2.193581e-004
2.217773e+003,2.212971e-004
2.219702e+003,2.232268e-004
2.221630e+003,2.251491e-004
2.223559e+003,2.270620e-004
2.225487e+003,2.289694e-004
2.227416e+003,2.308674e-004
2.229344e+003,2.327561e-004
2.231273e+003,2.346411e-004
2.233201e+003,2.365168e-004
2.235130e+003,2.383813e-004
2.237058e+003,2.402384e-004
2.238987e+003,2.420880e-004
2.240915e+003,2.439320e-004
2.242844e+003,2.457667e-004
2.244772e+003,2.475958e-004
2.246701e+003,2.494138e-004
2.248629e+003,2.512280e-004
2.250558e+003,2.530310e-004
2.252486e+003,2.548266e-004
2.254415e+003,2.566148e-004
2.256343e+003,2.583954e-004
2.258272e+003,2.601668e-004
2.260200e+003,2.619307e-004
2.262129e+003,2.636891e-004
2.264057e+003,2.654381e-004
2.265986e+003,2.671778e-004
2.267914e+003,2.689082e-004
2.269843e+003,2.706349e-004
2.271771e+003,2.723522e-004
2.273700e+003,2.740603e-004
2.275628e+003,2.757665e-004
2.277557e+003,2.774615e-004
2.279485e+003,2.791435e-004
2.281414e+003,2.808217e-004
2.283342e+003,2.824925e-004
2.285271e+003,2.841540e-004
2.287199e+003,2.858080e-004
2.289128e+003,2.874602e-004
2.291056e+003,2.890956e-004
2.292985e+003,2.907235e-004
2.294913e+003,2.923477e-004
2.296842e+003,2.939627e-004
2.298770e+003,2.955738e-004
2.300699e+003,2.971701e-004
2.302627e+003,2.987646e-004
2.304556e+003,3.003478e-004
2.306484e+003,3.019236e-004
2.308413e+003,3.034901e-004
2.310341e+003,3.050510e-004
2.312270e+003,3.066026e-004
2.314198e+003,3.081467e-004
2.316127e+003,3.096815e-004
2.318055e+003,3.112126e-004
2.319984e+003,3.127344e-004
2.321912e+003,3.142469e-004
2.323841e+003,3.157519e-004
2.325769e+003,3.172476e-004
2.327698e+003,3.187396e-004
2.329626e+003,3.202204e-004
2.331555e+003,3.216937e-004
2.333483e+003,3.231615e-004
2.335412e+003,3.246199e-004
2.337340e+003,3.260672e-004
2.339269e+003,3.275108e-004
2.341197e+003,3.289469e-004
2.343126e+003,3.303699e-004
2.345054e+003,3.317893e-004
2.346983e+003,3.332049e-004
2.348911e+003,3.346074e-004
2.350840e+003,3.360007e-004
2.352768e+003,3.373884e-004
2.354697e+003,3.387667e-004
2.356625e+003,3.401395e-004
2.358554e+003,3.415011e-004
2.360482e+003,3.428571e-004
2.362411e+003,3.442075e-004
2.364339e+003,3.455486e-004
2.366268e+003,3.468804e-004
2.368196e+003,3.482029e-004
2.370125e+003,3.495216e-004
2.372053e+003,3.508274e-004
2.373982e+003,3.521293e-004
2.375910e+003,3.534239e-004
2.377839e+003,3.547091e-004
2.379767e+003,3.559869e-004
2.381696e+003,3.572553e-004
2.383624e+003,3.585145e-004
2.385553e+003,3.597718e-004
2.387481e+003,3.610160e-004
2.389410e+003,3.622510e-004
2.391338e+003,3.634859e-004
2.393267e+003,3.647096e-004
2.395195e+003,3.659222e-004
2.397124e+003,3.671274e-004
2.399052e+003,3.683269e-004
2.400981e+003,5.146973e-004
2.402909e+003,4.691817e-004
2.404838e+003,5.242489e-004
2.406766e+003,8.086413e-004
2.408695e+003,1.038555e-003
2.410623e+003,9.788126e-004
2.412552e+003,9.645764e-004
2.414480e+003,9.470452e-004
2.416409e+003,9.912085e-004
2.418337e+003,9.136759e-004
2.420266e+003,8.663684e-004
2.422194e+003,8.495022e-004
2.424123e+003,8.966550e-004
2.426051e+003,8.085966e-004
2.427979e+003,8.044597e-004
2.429908e+003,7.597264e-004
2.431837e+003,8.515008e-004
2.433765e+003,7.867757e-004
2.435694e+003,7.682219e-004
2.437622e+003,7.232949e-004
2.439551e+003,7.558931e-004
2.441479e+003,7.590931e-004
2.443407e+003,8.968897e-004
2.445336e+003,9.610876e-004
2.447265e+003,1.023646e-003
2.449193e+003,9.976681e-004
2.451122e+003,1.017157e-003
2.453050e+003,9.661093e-004
2.454979e+003,9.012502e-004
2.456907e+003,9.187739e-004
2.458836e+003,1.049960e-003
2.460764e+003,1.083879e-003
2.462693e+003,1.116680e-003
2.464621e+003,1.044463e-003
2.466550e+003,1.040336e-003
2.468478e+003,1.084283e-003
2.470406e+003,1.223739e-003
2.472335e+003,1.357395e-003
2.474264e+003,1.482794e-003
2.476192e+003,1.414074e-003
2.478121e+003,1.515351e-003
2.480049e+003,1.594251e-003
2.481978e+003,1.570273e-003
2.483906e+003,1.582049e-003
2.485835e+003,1.679044e-003
2.487763e+003,1.718910e-003
2.489692e+003,1.655510e-003
2.491620e+003,1.597250e-003
2.493549e+003,1.712030e-003
2.495477e+003,1.702778e-003
2.497406e+003,1.655487e-003
2.499334e+003,1.738787e-003
2.501263e+003,1.757422e-003
2.503191e+003,1.676006e-003
2.505120e+003,1.763150e-003
2.507048e+003,1.782758e-003
2.508977e+003,1.956819e-003
2.510905e+003,2.071895e-003
2.512833e+003,2.163287e-003
2.514762e+003,2.162263e-003
2.516691e+003,2.384743e-003
2.518619e+003,2.473852e-003
2.520548e+003,2.493570e-003
2.522476e+003,2.514163e-003
2.524405e+003,2.592770e-003
2.526333e+003,2.661390e-003
2.528261e+003,2.845688e-003
2.530190e+003,2.943890e-003
2.532119e+003,2.888639e-003
2.534047e+003,2.731042e-003
2.535976e+003,2.819361e-003
2.537904e+003,2.930643e-003
2.539833e+003,2.994075e-003
2.541761e+003,3.082622e-003
2.543689e+003,3.481569e-003
2.545618e+003,3.702244e-003
2.547547e+003,3.823150e-003
2.549475e+003,4.022820e-003
2.551404e+003,4.065190e-003
2.553332e+003,3.958475e-003
2.555260e+003,4.093224e-003
2.557189e+003,4.145104e-003
2.559117e+003,4.199928e-003
2.561046e+003,4.240202e-003
2.562975e+003,4.285501e-003
2.564903e+003,4.259022e-003
2.566832e+003,4.353935e-003
2.568760e+003,4.571147e-003
2.570688e+003,4.710237e-003
2.572617e+003,4.876215e-003
2.574546e+003,5.100079e-003
2.576474e+003,5.245430e-003
2.578403e+003,5.489780e-003
2.580331e+003,5.830081e-003
2.582260e+003,5.999392e-003
2.584188e+003,6.143289e-003
2.586116e+003,6.428733e-003
2.588045e+003,6.686021e-003
2.589974e+003,6.892120e-003
2.591902e+003,7.085575e-003
2.593831e+003,7.286403e-003
2.595759e+003,7.473400e-003
2.597688e+003,7.618984e-003
2.599616e+003,7.795107e-003
2.601544e+003,8.100571e-003
2.603473e+003,8.337827e-003
2.605402e+003,8.624805e-003
2.607330e+003,8.917157e-003
2.609259e+003,9.134205e-003
2.611187e+003,9.356506e-003
2.613115e+003,9.669727e-003
2.615044e+003,1.002788e-002
2.616972e+003,1.040990e-002
2.618901e+003,1.081203e-002
2.620830e+003,1.124255e-002
2.622758e+003,1.151256e-002
2.624687e+003,1.185394e-002
2.626615e+003,1.230243e-002
2.628543e+003,1.274084e-002
2.630472e+003,1.310492e-002
2.632400e+003,1.347151e-002
2.634329e+003,1.371822e-002
2.636258e+003,1.379221e-002
2.638186e+003,1.386774e-002
2.640115e+003,1.392265e-002
2.642043e+003,1.389604e-002
2.643971e+003,1.387390e-002
2.645900e+003,1.385280e-002
2.647828e+003,1.391177e-002
2.649757e+003,1.403393e-002
2.651686e+003,1.417880e-002
2.653614e+003,1.430915e-002
2.655542e+003,1.441473e-002
2.657471e+003,1.450013e-002
2.659399e+003,1.455391e-002
2.661328e+003,1.448566e-002
2.663256e+003,1.431631e-002
2.665185e+003,1.414417e-002
2.667114e+003,1.398559e-002
2.669042e+003,1.385102e-002
2.670970e+003,1.369712e-002
2.672899e+003,1.352123e-002
2.674827e+003,1.338365e-002
2.676756e+003,1.324826e-002
2.678685e+003,1.313121e-002
2.680613e+003,1.301931e-002
2.682542e+003,1.288482e-002
2.684470e+003,1.272727e-002
2.686398e+003,1.257436e-002
2.688327e+003,1.239953e-002
2.690255e+003,1.227372e-002
2.692184e+003,1.221818e-002
2.694113e+003,1.216781e-002
2.696041e+003,1.216707e-002
2.697969e+003,1.221976e-002
2.699898e+003,1.225884e-002
2.701826e+003,1.237617e-002
2.703755e+003,1.249960e-002
2.705683e+003,1.262634e-002
2.707612e+003,1.280145e-002
2.709541e+003,1.301597e-002
2.711469e+003,1.322144e-002
2.713397e+003,1.342489e-002
2.715326e+003,1.364530e-002
2.717254e+003,1.381967e-002
2.719183e+003,1.397828e-002
2.721111e+003,1.420099e-002
2.723040e+003,1.445224e-002
2.724969e+003,1.476777e-002
2.726897e+003,1.511636e-002
2.728825e+003,1.541422e-002
2.730754e+003,1.566299e-002
2.732682e+003,1.590641e-002
2.734611e+003,1.603485e-002
2.736539e+003,1.615454e-002
2.738468e+003,1.623368e-002
2.740396e+003,1.627312e-002
2.742325e+003,1.624322e-002
2.744253e+003,1.626714e-002
2.746182e+003,1.631804e-002
2.748110e+003,1.628795e-002
2.750039e+003,1.624336e-002
2.751967e+003,1.633634e-002
2.753896e+003,1.650307e-002
2.755824e+003,1.672948e-002
2.757753e+003,1.708154e-002
2.759681e+003,1.749173e-002
2.761610e+003,1.785933e-002
2.763538e+003,1.826296e-002
2.765467e+003,1.870836e-002
2.767395e+003,1.916556e-002
2.769324e+003,1.971420e-002
2.771252e+003,2.035545e-002
2.773181e+003,2.106843e-002
2.775109e+003,2.188996e-002
2.777038e+003,2.280056e-002
2.778966e+003,2.379398e-002
2.780895e+003,2.486444e-002
2.782823e+003,2.602963e-002
2.784752e+003,2.733842e-002
2.786680e+003,2.872904e-002
2.788609e+003,3.019129e-002
2.790537e+003,3.180461e-002
2.792466e+003,3.353781e-002
2.794394e+003,3.530767e-002
2.796323e+003,3.713608e-002
2.798251e+003,3.908081e-002
2.800180e+003,4.114199e-002
2.802108e+003,4.330150e-002
2.804037e+003,4.564467e-002
2.805965e+003,4.821587e-002
2.807894e+003,5.102997e-002
2.809822e+003,5.415036e-002
2.811751e+003,5.767548e-002
2.813679e+003,6.165811e-002
2.815608e+003,6.619339e-002
2.817536e+003,7.139562e-002
2.819465e+003,7.741900e-002
2.821393e+003,8.471072e-002
2.823322e+003,9.361919e-002
2.825250e+003,1.046731e-001
2.827179e+003,1.186736e-001
2.829107e+003,1.367343e-001
2.831036e+003,1.609612e-001
2.832964e+003,1.944663e-001
2.834893e+003,2.419385e-001
2.836821e+003,3.097260e-001
2.838750e+003,4.081025e-001
2.840678e+003,5.538852e-001
2.842607e+003,7.685546e-001
2.844535e+003,1.062784e+000
2.846464e+003,1.364634e+000
2.848392e+003,1.421652e+000
2.850321e+003,1.159334e+000
2.852249e+003,8.556055e-001
2.854178e+003,6.399949e-001
2.856106e+003,4.945531e-001
2.858035e+003,3.921700e-001
2.859963e+003,3.190842e-001
2.861892e+003,2.679221e-001
2.863820e+003,2.336896e-001
2.865749e+003,2.129275e-001
2.867677e+003,2.027953e-001
2.869606e+003,1.999462e-001
2.871534e+003,2.010784e-001
2.873463e+003,2.055228e-001
2.875391e+003,2.147854e-001
2.877320e+003,2.302445e-001
2.879248e+003,2.517959e-001
2.881177e+003,2.784464e-001
2.883105e+003,3.091291e-001
2.885034e+003,3.433437e-001
2.886962e+003,3.804705e-001
2.888891e+003,4.193495e-001
2.890819e+003,4.590888e-001
2.892748e+003,4.990726e-001
2.894676e+003,5.387646e-001
2.896605e+003,5.789559e-001
2.898533e+003,6.214735e-001
2.900462e+003,6.690927e-001
2.902390e+003,7.264289e-001
2.904319e+003,8.004612e-001
2.906247e+003,9.007496e-001
2.908176e+003,1.038091e+000
2.910104e+003,1.218940e+000
2.912033e+003,1.426937e+000
2.913961e+003,1.589144e+000
2.915890e+003,1.598780e+000
2.917818e+003,1.444934e+000
2.919747e+003,1.228428e+000
2.921675e+003,1.026178e+000
2.923604e+003,8.593846e-001
2.925532e+003,7.260895e-001
2.927461e+003,6.176977e-001
2.929389e+003,5.267459e-001
2.931318e+003,4.490613e-001
2.933246e+003,3.822244e-001
2.935175e+003,3.247768e-001
2.937103e+003,2.756228e-001
2.939032e+003,2.338237e-001
2.940960e+003,1.989715e-001
2.942889e+003,1.707004e-001
2.944817e+003,1.487918e-001
2.946746e+003,1.330905e-001
2.948674e+003,1.233106e-001
2.950603e+003,1.178500e-001
2.952531e+003,1.142919e-001
2.954460e+003,1.108109e-001
2.956388e+003,1.065051e-001
2.958317e+003,1.010533e-001
2.960245e+003,9.446096e-002
2.962174e+003,8.685216e-002
2.964102e+003,7.870796e-002
2.966031e+003,7.026288e-002
2.967959e+003,6.208647e-002
2.969888e+003,5.471525e-002
2.971816e+003,4.818717e-002
2.973745e+003,4.258952e-002
2.975673e+003,3.801062e-002
2.977602e+003,3.424070e-002
2.979530e+003,3.111198e-002
2.981459e+003,2.843748e-002
2.983387e+003,2.618320e-002
2.985316e+003,2.435326e-002
2.987244e+003,2.282393e-002
2.989173e+003,2.153687e-002
2.991101e+003,2.037509e-002
2.993030e+003,1.923363e-002
2.994958e+003,1.839038e-002
2.996887e+003,1.767388e-002
2.998815e+003,1.693708e-002
3.000744e+003,1.624265e-002
3.002672e+003,1.564488e-002
3.004601e+003,1.512630e-002
3.006529e+003,1.468644e-002
3.008458e+003,1.424194e-002
3.010386e+003,1.388245e-002
3.012315e+003,1.351423e-002
3.014243e+003,1.312954e-002
3.016172e+003,1.281937e-002
3.018100e+003,1.254717e-002
3.020029e+003,1.223728e-002
3.021957e+003,1.195959e-002
3.023886e+003,1.171002e-002
3.025814e+003,1.146731e-002
3.027743e+003,1.122080e-002
3.029671e+003,1.101510e-002
3.031600e+003,1.078524e-002
3.033528e+003,1.052705e-002
3.035457e+003,1.019944e-002
3.037385e+003,9.837687e-003
3.039314e+003,9.425789e-003
3.041242e+003,9.115674e-003
3.043171e+003,8.821724e-003
3.045099e+003,8.492684e-003
3.047028e+003,8.236209e-003
3.048956e+003,7.962827e-003
3.050885e+003,7.764937e-003
3.052813e+003,7.626098e-003
3.054742e+003,7.320484e-003
3.056670e+003,7.033283e-003
3.058599e+003,6.901063e-003
3.060527e+003,6.780669e-003
3.062456e+003,6.621663e-003
3.064384e+003,6.481225e-003
3.066313e+003,6.355552e-003
3.068241e+003,6.249987e-003
3.070170e+003,6.102076e-003
3.072098e+003,5.901501e-003
3.074027e+003,5.772034e-003
3.075955e+003,5.679453e-003
3.077884e+003,5.554089e-003
3.079812e+003,5.493524e-003
3.081741e+003,5.312121e-003
3.083669e+003,5.125269e-003
3.085598e+003,4.972819e-003
3.087526e+003,4.762558e-003
3.089455e+003,4.502282e-003
3.091383e+003,4.320525e-003
3.093312e+003,4.135935e-003
3.095240e+003,3.847742e-003
3.097169e+003,3.563674e-003
3.099097e+003,3.284877e-003
3.101026e+003,3.078971e-003
3.102954e+003,2.896849e-003
3.104883e+003,2.675416e-003
3.106811e+003,2.524622e-003
3.108740e+003,2.397692e-003
3.110668e+003,2.258891e-003
3.112597e+003,2.172859e-003
3.114525e+003,2.176652e-003
3.116454e+003,2.118895e-003
3.118382e+003,1.961185e-003
3.120311e+003,1.803394e-003
3.122239e+003,1.712682e-003
3.124168e+003,1.730174e-003
3.126096e+003,1.680238e-003
3.128025e+003,1.594258e-003
3.129953e+003,1.530051e-003
3.131882e+003,1.559034e-003
3.133810e+003,1.555838e-003
3.135739e+003,1.529558e-003
3.137667e+003,1.428628e-003
3.139596e+003,1.330566e-003
3.141524e+003,1.316337e-003
3.143453e+003,1.368299e-003
3.145381e+003,1.512174e-003
3.147310e+003,1.490550e-003
3.149238e+003,1.450418e-003
3.151167e+003,1.429895e-003
3.153095e+003,1.445275e-003
3.155024e+003,1.408558e-003
3.156952e+003,1.405312e-003
3.158881e+003,1.393374e-003
3.160809e+003,1.383992e-003
3.162738e+003,1.326431e-003
3.164666e+003,1.373660e-003
3.166594e+003,1.335245e-003
3.168523e+003,1.272485e-003
3.170452e+003,1.366215e-003
3.172380e+003,1.380106e-003
3.174309e+003,1.327582e-003
3.176237e+003,1.337368e-003
3.178166e+003,1.294453e-003
3.180094e+003,1.237785e-003
3.182022e+003,1.344329e-003
3.183951e+003,1.396580e-003
3.185880e+003,1.275992e-003
3.187808e+003,1.241652e-003
3.189737e+003,1.294566e-003
3.191665e+003,1.271117e-003
3.193594e+003,1.222184e-003
3.195522e+003,1.281999e-003
3.197450e+003,1.345580e-003
3.199379e+003,1.373636e-003
3.201308e+003,1.405304e-003
3.203236e+003,1.341393e-003
3.205165e+003,1.255667e-003
3.207093e+003,1.318425e-003
3.209021e+003,1.323126e-003
3.210950e+003,1.287866e-003
3.212878e+003,1.280021e-003
3.214807e+003,1.311090e-003
3.216736e+003,1.314364e-003
3.218664e+003,1.212623e-003
3.220593e+003,1.266301e-003
3.222521e+003,1.318522e-003
3.224449e+003,1.270398e-003
3.226378e+003,1.171332e-003
3.228307e+003,1.204845e-003
3.230235e+003,1.279265e-003
3.232164e+003,1.205660e-003
3.234092e+003,1.191087e-003
3.236021e+003,1.237415e-003
3.237949e+003,1.182649e-003
3.239877e+003,1.195833e-003
3.241806e+003,1.357805e-003
3.243735e+003,1.475856e-003
3.245663e+003,1.488019e-003
3.247592e+003,1.468796e-003
3.249520e+003,1.491763e-003
3.251448e+003,1.572561e-003
3.253377e+003,1.671780e-003
3.255305e+003,1.654476e-003
3.257234e+003,1.600686e-003
3.259163e+003,1.654971e-003
3.261091e+003,1.741953e-003
3.263020e+003,1.784872e-003
3.264948e+003,1.851544e-003
3.266876e+003,1.888141e-003
3.268805e+003,1.891389e-003
3.270733e+003,1.853351e-003
3.272662e+003,1.902442e-003
3.274591e+003,2.021819e-003
3.276519e+003,2.131119e-003
3.278448e+003,2.141405e-003
3.280376e+003,2.130985e-003
3.282304e+003,2.105396e-003
3.284233e+003,2.168853e-003
3.286161e+003,2.278324e-003
3.288090e+003,2.259236e-003
3.290019e+003,2.219461e-003
3.291947e+003,2.199974e-003
3.293875e+003,2.141111e-003
3.295804e+003,2.165068e-003
3.297732e+003,2.153002e-003
3.299661e+003,2.116621e-003
3.301589e+003,2.123445e-003
3.303518e+003,2.132740e-003
3.305447e+003,2.194993e-003
3.307375e+003,2.251938e-003
3.309303e+003,2.218965e-003
3.311232e+003,2.140209e-003
3.313160e+003,2.075084e-003
3.315089e+003,2.090096e-003
3.317018e+003,2.066731e-003
3.318946e+003,2.038609e-003
3.320875e+003,2.098925e-003
3.322803e+003,2.155144e-003
3.324731e+003,2.114590e-003
3.326660e+003,2.126049e-003
3.328588e+003,2.081584e-003
3.330517e+003,2.038881e-003
3.332446e+003,2.085704e-003
3.334374e+003,2.102472e-003
3.336302e+003,2.113361e-003
3.338231e+003,2.069540e-003
3.340159e+003,1.990180e-003
3.342088e+003,1.949180e-003
3.344016e+003,1.969080e-003
3.345945e+003,2.006594e-003
3.347874e+003,1.915298e-003
3.349802e+003,1.788538e-003
3.351730e+003,1.706120e-003
3.353659e+003,1.709290e-003
3.355587e+003,1.781359e-003
3.357516e+003,1.780931e-003
3.359444e+003,1.764305e-003
3.361373e+003,1.821235e-003
3.363302e+003,1.884621e-003
3.365230e+003,1.944542e-003
3.367158e+003,1.891386e-003
3.369087e+003,1.850870e-003
3.371015e+003,1.827799e-003
3.372944e+003,1.731321e-003
3.374872e+003,1.738049e-003
3.376801e+003,1.730673e-003
3.378729e+003,1.625031e-003
3.380658e+003,1.607262e-003
3.382586e+003,1.637902e-003
3.384515e+003,1.587376e-003
3.386443e+003,1.539551e-003
3.388372e+003,1.512021e-003
3.390300e+003,1.475129e-003
3.392229e+003,1.415759e-003
3.394157e+003,1.362070e-003
3.396086e+003,1.339085e-003
3.398014e+003,1.376826e-003
3.399943e+003,1.397543e-003
3.401871e+003,1.275387e-003
3.403800e+003,1.167186e-003
3.405728e+003,1.137774e-003
3.407657e+003,1.129013e-003
3.409585e+003,1.182135e-003
3.411514e+003,1.098275e-003
3.413442e+003,1.066197e-003
3.415371e+003,1.121439e-003
3.417299e+003,1.204569e-003
3.419228e+003,1.119595e-003
3.421156e+003,1.024421e-003
3.423085e+003,1.057807e-003
3.425013e+003,1.016866e-003
3.426942e+003,1.067370e-003
3.428870e+003,1.111180e-003
3.430799e+003,1.057271e-003
3.432727e+003,9.910725e-004
3.434656e+003,9.059273e-004
3.436584e+003,8.846857e-004
3.438513e+003,9.707212e-004
3.440441e+003,9.717681e-004
3.442370e+003,8.818582e-004
3.444298e+003,7.334352e-004
3.446227e+003,6.396770e-004
3.448155e+003,7.317476e-004
3.450084e+003,8.329414e-004
3.452012e+003,8.596554e-004
3.453941e+003,8.226745e-004
3.455869e+003,6.991401e-004
3.457798e+003,6.219186e-004
3.459726e+003,6.292015e-004
3.461655e+003,7.016547e-004
3.463583e+003,7.009991e-004
3.465512e+003,5.976185e-004
3.467440e+003,5.044751e-004
3.469369e+003,4.514605e-004
3.471297e+003,4.181638e-004
3.473226e+003,4.272349e-004
3.475154e+003,4.226342e-004
3.477083e+003,3.352612e-004
3.479011e+003,1.892783e-004
3.480940e+003,2.961941e-004
3.482868e+003,4.384257e-004
3.484797e+003,2.214685e-004
3.486725e+003,1.814961e-004
3.488654e+003,2.784580e-004
3.490582e+003,2.356246e-004
3.492511e+003,2.488792e-004
3.494439e+003,2.670065e-004
3.496368e+003,1.648143e-004
3.498296e+003,1.544356e-004
3.500225e+003,1.102202e-004
3.502153e+003,-3.686547e-005
3.504082e+003,-9.842217e-006
3.506010e+003,3.350526e-005
3.507939e+003,1.728535e-006
3.509867e+003,2.168119e-006
3.511796e+003,8.296221e-005
3.513724e+003,1.565367e-005
3.515653e+003,-3.099442e-006
3.517581e+003,1.688302e-005
3.519510e+003,-8.673593e-005
3.521438e+003,-2.195872e-004
3.523367e+003,-3.716908e-004
3.525295e+003,-3.649034e-004
3.527224e+003,-2.814718e-004
3.529152e+003,-2.700873e-004
3.531081e+003,-3.312305e-004
3.533009e+003,-3.943518e-004
3.534938e+003,-3.879257e-004
3.536866e+003,-2.749190e-004
3.538795e+003,-3.108867e-004
3.540723e+003,-4.695654e-004
3.542652e+003,-5.947798e-004
3.544580e+003,-4.810542e-004
3.546509e+003,-3.607050e-004
3.548437e+003,-4.581846e-004
3.550366e+003,-6.210953e-004
3.552294e+003,-5.484410e-004
3.554223e+003,-3.683604e-004
3.556151e+003,-4.835352e-004
3.558080e+003,-6.757677e-004
3.560008e+003,-8.054525e-004
3.561937e+003,-8.534305e-004
3.563865e+003,-1.018848e-003
3.565794e+003,-1.004525e-003
3.567722e+003,-4.632436e-004
3.569651e+003,-4.904643e-004
3.571579e+003,-7.582530e-004
3.573508e+003,-9.608939e-004
3.575436e+003,-9.319708e-004
3.577365e+003,-9.684786e-004
3.579293e+003,-1.006972e-003
3.581222e+003,-8.957461e-004
3.583150e+003,-8.381903e-004
3.585079e+003,-8.958802e-004
3.587007e+003,-7.214360e-004
3.588936e+003,-7.397309e-005
3.590864e+003,1.960993e-005
3.592793e+003,-1.003928e-004
3.594721e+003,1.563691e-004
3.596650e+003,7.039383e-004
3.598578e+003,1.081932e-003
3.600507e+003,1.568582e-003
3.602435e+003,1.815453e-003
3.604364e+003,1.575358e-003
3.606292e+003,1.149390e-003
3.608221e+003,1.179487e-003
3.610149e+003,1.034189e-003
3.612078e+003,5.954951e-004
3.614006e+003,6.874800e-004
3.615935e+003,4.282668e-004
3.617863e+003,4.166663e-004
3.619792e+003,7.664487e-004
3.621720e+003,3.166683e-004
3.623649e+003,-1.679920e-004
3.625577e+003,-5.915798e-004
3.627506e+003,-7.683933e-004
3.629434e+003,7.871166e-005
3.631363e+003,-9.760261e-007
3.633291e+003,-6.534532e-005
3.635220e+003,1.727305e-004
3.637148e+003,1.415536e-004
3.639077e+003,1.091138e-004
3.641005e+003,1.647957e-004
3.642934e+003,-1.085810e-004
3.644862e+003,-5.763248e-004
3.646791e+003,-6.828941e-004
3.648719e+003,-4.126877e-004
3.650648e+003,2.635568e-004
3.652576e+003,-2.328306e-005
3.654505e+003,-7.708743e-004
3.656433e+003,-7.411242e-004
3.658362e+003,-3.784671e-004
3.660290e+003,-4.240498e-004
3.662219e+003,-5.552247e-004
3.664147e+003,-4.795901e-004
3.666076e+003,-6.925836e-004
3.668004e+003,-1.131404e-003
3.669933e+003,-5.927309e-004
3.671861e+003,-7.192418e-004
3.673790e+003,-1.514927e-003
3.675718e+003,-7.231906e-004
3.677647e+003,-4.885383e-004
3.679575e+003,-6.216317e-004
3.681504e+003,-5.751401e-004
3.683432e+003,-7.878318e-004
3.685361e+003,-1.261752e-003
3.687289e+003,-1.580629e-003
3.689218e+003,-6.208308e-004
3.691146e+003,-3.791600e-005
3.693075e+003,-4.468113e-004
3.695003e+003,-7.108636e-004
3.696932e+003,-7.197596e-004
3.698860e+003,-8.023866e-004
3.700789e+003,-7.615387e-004
3.702717e+003,-4.286580e-004
3.704646e+003,-5.317628e-004
3.706574e+003,-8.791089e-004
3.708503e+003,-1.153979e-003
3.710431e+003,-1.092974e-003
3.712360e+003,-3.694110e-004
3.714288e+003,-3.983378e-004
3.716217e+003,-6.082244e-004
3.718145e+003,-8.049496e-004
3.720074e+003,-9.615123e-004
3.722002e+003,-5.594082e-004
3.723931e+003,-3.059208e-004
3.725859e+003,-1.399629e-004
3.727788e+003,-1.324713e-004
3.729716e+003,-6.656423e-004
3.731645e+003,-8.570515e-004
3.733573e+003,-4.837438e-004
3.735502e+003,3.042072e-005
3.737430e+003,-2.816319e-006
3.739359e+003,-3.651753e-004
3.741287e+003,-8.908138e-004
3.743216e+003,-1.309879e-003
3.745144e+003,-4.204847e-004
3.747073e+003,-5.915128e-004
3.749001e+003,-9.628795e-004
3.750930e+003,-4.279129e-004
3.752858e+003,-2.805665e-004
3.754787e+003,-5.471334e-004
3.756715e+003,-7.424764e-004
3.758644e+003,-5.659126e-004
3.760572e+003,-2.670959e-004
3.762501e+003,-6.367937e-004
3.764429e+003,-6.502047e-004
3.766358e+003,-2.315678e-004
3.768286e+003,-3.178939e-004
3.770215e+003,-2.313107e-004
3.772143e+003,-1.786649e-004
3.774072e+003,-2.610050e-004
3.776000e+003,-5.251355e-004
3.777929e+003,-6.082356e-004
3.779857e+003,-1.430698e-004
3.781786e+003,-1.196302e-004
3.783714e+003,-1.577660e-004
3.785643e+003,1.393445e-004
3.787571e+003,5.966425e-005
3.789500e+003,-1.186877e-005
3.791428e+003,2.294444e-004
3.793357e+003,-5.581602e-005
3.795285e+003,-2.388693e-004
3.797214e+003,-1.758561e-004
3.799142e+003,-8.448139e-004
3.801071e+003,-5.105101e-004
3.802999e+003,3.085136e-004
3.804927e+003,-2.112165e-004
3.806856e+003,1.451038e-004
3.808785e+003,5.805716e-004
3.810713e+003,2.488419e-004
3.812642e+003,-1.824871e-004
3.814570e+003,-2.128370e-004
3.816499e+003,4.108660e-004
3.818427e+003,-5.009770e-005
3.820355e+003,4.574656e-006
3.822284e+003,9.616427e-004
3.824213e+003,4.823171e-004
3.826141e+003,3.605261e-004
3.828070e+003,4.860610e-004
3.829998e+003,1.783147e-004
3.831927e+003,3.556199e-004
3.833855e+003,3.435649e-004
3.835783e+003,-3.610216e-004
3.837712e+003,3.556907e-005
3.839641e+003,7.400326e-004
3.841569e+003,6.005019e-004
3.843498e+003,6.874017e-004
3.845426e+003,7.275380e-004
3.847354e+003,3.568381e-004
3.849283e+003,-9.860843e-006
3.851211e+003,-3.140084e-004
3.853140e+003,1.131892e-003
3.855069e+003,1.791243e-003
3.856997e+003,1.053113e-003
3.858926e+003,4.706457e-004
3.860854e+003,1.254007e-004
3.862782e+003,1.017116e-004
3.864711e+003,5.385429e-004
3.866640e+003,3.706925e-004
3.868568e+003,3.389381e-004
3.870497e+003,1.105331e-003
3.872425e+003,7.833987e-004
3.874354e+003,9.314343e-004
3.876282e+003,8.127801e-004
3.878210e+003,9.823591e-005
3.880139e+003,3.564209e-004
3.882068e+003,6.060712e-004
3.883996e+003,1.013950e-004
3.885925e+003,8.078367e-004
3.887853e+003,9.013563e-004
3.889781e+003,3.837049e-004
3.891710e+003,7.409826e-004
3.893638e+003,1.055729e-003
3.895567e+003,7.096007e-004
3.897496e+003,2.636053e-004
3.899424e+003,2.600998e-004
3.901353e+003,4.273690e-004
3.903281e+003,6.719269e-004
3.905209e+003,9.961762e-004
3.907138e+003,8.334555e-004
3.909066e+003,6.087609e-004
3.910995e+003,5.622581e-004
3.912924e+003,5.143881e-004
3.914852e+003,4.676618e-004
3.916781e+003,5.935617e-004
3.918709e+003,7.827878e-004
3.920637e+003,6.485432e-004
3.922566e+003,4.718415e-004
3.924494e+003,5.808100e-004
3.926423e+003,5.830005e-004
3.928352e+003,2.741590e-004
3.930280e+003,1.623072e-004
3.932208e+003,4.688092e-004
3.934137e+003,6.832629e-004
3.936065e+003,5.686022e-004
3.937994e+003,4.811026e-004
3.939922e+003,2.782568e-004
3.941851e+003,3.055781e-004
3.943780e+003,5.010404e-004
3.945708e+003,2.376400e-004
3.947636e+003,1.937039e-004
3.949565e+003,4.639179e-004
3.951493e+003,4.555769e-004
3.953422e+003,3.161430e-004
3.955351e+003,3.181957e-004
3.957279e+003,3.428087e-004
3.959208e+003,4.350357e-004
3.961136e+003,5.541146e-004
3.963064e+003,5.604476e-004
3.964993e+003,5.486198e-004
3.966921e+003,5.739443e-004
3.968850e+003,5.765148e-004
3.970779e+003,5.856939e-004
3.972707e+003,5.611740e-004
3.974635e+003,5.638748e-004
3.976564e+003,6.130114e-004
3.978492e+003,6.443672e-004
3.980421e+003,6.623790e-004
3.982349e+003,4.872307e-004
3.984278e+003,4.188903e-004
3.986207e+003,5.589984e-004
3.988135e+003,6.074533e-004
3.990063e+003,5.257875e-004
3.991992e+003,4.543550e-004
3.993920e+003,4.015528e-004
3.995849e+003,4.607290e-004
3.997777e+003,5.359724e-004
3.999706e+003,5.454384e-004
4.001635e+003,0.000000e+000
