3.991992e+002,0.000000e+000
4.011277e+002,0.000000e+000
4.030562e+002,0.000000e+000
4.049846e+002,0.000000e+000
4.069131e+002,0.000000e+000
4.088416e+002,0.000000e+000
4.107701e+002,0.000000e+000
4.126986e+002,0.000000e+000
4.146271e+002,0.000000e+000
4.165556e+002,0.000000e+000
4.184841e+002,0.000000e+000
4.204126e+002,0.000000e+000
4.223411e+002,0.000000e+000
4.242697e+002,0.000000e+000
4.261982e+002,0.000000e+000
4.281266e+002,0.000000e+000
4.300551e+002,0.000000e+000
4.319836e+002,0.000000e+000
4.339121e+002,0.000000e+000
4.358406e+002,0.000000e+000
4.377691e+002,0.000000e+000
4.396976e+002,0.000000e+000
4.416261e+002,0.000000e+000
4.435546e+002,0.000000e+000
4.454831e+002,0.000000e+000
4.474116e+002,0.000000e+000
4.493401e+002,0.000000e+000
4.512686e+002,0.000000e+000
4.531971e+002,0.000000e+000
4.551256e+002,0.000000e+000
4.570541e+002,0.000000e+000
4.589826e+002,0.000000e+000
4.609111e+002,0.000000e+000
4.628396e+002,0.000000e+000
4.647681e+002,0.000000e+000
4.666966e+002,0.000000e+000
4.686251e+002,0.000000e+000
4.705536e+002,0.000000e+000
4.724821e+002,0.000000e+000
4.744106e+002,0.000000e+000
4.763391e+002,0.000000e+000
4.782676e+002,0.000000e+000
4.801961e+002,0.000000e+000
4.821246e+002,0.000000e+000
4.840531e+002,0.000000e+000
4.859816e+002,0.000000e+000
4.879101e+002,0.000000e+000
4.898386e+002,0.000000e+000
4.917671e+002,0.000000e+000
4.936956e+002,0.000000e+000
4.956241e+002,0.000000e+000
4.975526e+002,0.000000e+000
4.994811e+002,0.000000e+000
5.014096e+002,0.000000e+000
5.033381e+002,0.000000e+000
5.052666e+002,0.000000e+000
5.071951e+002,0.000000e+000
5.091236e+002,0.000000e+000
5.110521e+002,0.000000e+000
5.129806e+002,0.000000e+000
5.149091e+002,0.000000e+000
5.168376e+002,0.000000e+000
5.187661e+002,0.000000e+000
5.206946e+002,0.000000e+000
5.226230e+002,0.000000e+000
5.245516e+002,-7.385481e-005
5.264800e+002,-9.588152e-005
5.284086e+002,-1.562936e-004
5.303370e+002,-1.760321e-004
5.322656e+002,-8.055568e-005
5.341940e+002,-5.400367e-005
5.361226e+002,-4.814472e-005
5.380510e+002,-2.072193e-006
5.399796e+002,-1.121312e-005
5.419081e+002,-9.627640e-005
5.438365e+002,3.852881e-006
5.457650e+002,5.023554e-005
5.476935e+002,-1.348648e-005
5.496221e+002,-7.047039e-005
5.515505e+002,-1.154328e-004
5.534790e+002,-1.501758e-005
5.554075e+002,1.943950e-004
5.573361e+002,7.595122e-005
5.592645e+002,-8.616503e-005
5.611931e+002,-6.526429e-005
5.631215e+002,-1.230724e-004
5.650500e+002,-1.665419e-004
5.669785e+002,-1.051417e-004
5.689070e+002,-8.321088e-005
5.708355e+002,-2.025561e-004
5.727640e+002,-3.779139e-004
5.746925e+002,-3.160574e-004
5.766210e+002,-1.936723e-004
5.785495e+002,-1.110323e-004
5.804780e+002,-2.090009e-004
5.824065e+002,-2.394384e-004
5.843350e+002,-7.398520e-005
5.862635e+002,-2.612174e-005
5.881920e+002,-2.157716e-004
5.901205e+002,-2.428778e-004
5.920490e+002,-1.929794e-004
5.939775e+002,-1.826528e-004
5.959060e+002,-2.181083e-004
5.978345e+002,-2.162308e-004
5.997630e+002,-1.298925e-004
6.016915e+002,-1.294147e-004
6.036200e+002,-1.913514e-004
6.055485e+002,-7.579103e-005
6.074770e+002,-4.281290e-005
6.094055e+002,-3.969017e-005
6.113340e+002,-1.311703e-004
6.132625e+002,-1.625335e-004
6.151910e+002,-1.727771e-004
6.171195e+002,-1.981333e-004
6.190480e+002,-3.197324e-004
6.209765e+002,-2.793083e-004
6.229050e+002,-1.659831e-004
6.248335e+002,-6.146729e-006
6.267620e+002,1.318753e-005
6.286905e+002,8.862745e-005
6.306190e+002,1.711007e-004
6.325475e+002,2.494045e-004
6.344760e+002,1.831371e-004
6.364045e+002,5.737506e-005
6.383330e+002,1.194868e-004
6.402615e+002,2.602721e-004
6.421899e+002,3.156196e-004
6.441185e+002,3.482532e-004
6.460470e+002,3.494117e-004
6.479755e+002,4.465748e-004
6.499039e+002,5.155141e-004
6.518325e+002,4.724758e-004
6.537610e+002,3.231680e-004
6.556895e+002,3.953874e-004
6.576179e+002,4.289001e-004
6.595464e+002,4.590861e-004
6.614750e+002,5.622851e-004
6.634034e+002,6.564949e-004
6.653319e+002,6.388444e-004
6.672604e+002,6.524120e-004
6.691890e+002,7.720403e-004
6.711174e+002,9.193495e-004
6.730460e+002,9.397389e-004
6.749745e+002,1.018751e-003
6.769030e+002,1.143841e-003
6.788314e+002,1.367281e-003
6.807599e+002,1.518622e-003
6.826885e+002,1.726317e-003
6.846169e+002,1.875649e-003
6.865454e+002,2.031115e-003
6.884739e+002,2.187083e-003
6.904025e+002,2.447457e-003
6.923309e+002,2.705846e-003
6.942594e+002,3.213716e-003
6.961879e+002,3.728461e-003
6.981165e+002,4.424290e-003
7.000449e+002,5.298633e-003
7.019734e+002,6.491168e-003
7.039019e+002,7.970519e-003
7.058304e+002,1.014137e-002
7.077589e+002,1.306330e-002
7.096874e+002,1.750992e-002
7.116159e+002,2.466504e-002
7.135444e+002,3.831482e-002
7.154729e+002,6.298110e-002
7.174014e+002,9.592927e-002
7.193299e+002,1.104838e-001
7.212584e+002,8.495985e-002
7.231869e+002,5.808333e-002
7.251154e+002,4.865794e-002
7.270439e+002,5.335700e-002
7.289724e+002,6.730817e-002
7.309009e+002,6.179775e-002
7.328294e+002,3.549613e-002
7.347579e+002,1.887782e-002
7.366864e+002,1.288170e-002
7.386149e+002,1.023769e-002
7.405434e+002,8.595747e-003
7.424719e+002,7.579872e-003
7.444004e+002,6.810311e-003
7.463289e+002,6.227636e-003
7.482574e+002,5.701285e-003
7.501859e+002,5.351152e-003
7.521144e+002,4.988600e-003
7.540428e+002,4.737017e-003
7.559714e+002,4.530266e-003
7.578999e+002,4.329872e-003
7.598284e+002,4.101382e-003
7.617568e+002,4.029226e-003
7.636854e+002,3.954779e-003
7.656139e+002,3.885804e-003
7.675424e+002,3.830178e-003
7.694709e+002,3.790872e-003
7.713994e+002,3.703551e-003
7.733279e+002,3.589539e-003
7.752563e+002,3.468666e-003
7.771849e+002,3.386397e-003
7.791134e+002,3.324758e-003
7.810419e+002,3.249016e-003
7.829703e+002,3.139405e-003
7.848989e+002,3.052076e-003
7.868274e+002,3.050692e-003
7.887559e+002,3.075873e-003
7.906843e+002,3.062047e-003
7.926129e+002,3.076620e-003
7.945414e+002,3.142677e-003
7.964698e+002,3.217885e-003
7.983983e+002,3.256578e-003
8.003268e+002,3.205357e-003
8.022554e+002,3.203448e-003
8.041838e+002,3.263202e-003
8.061123e+002,3.238730e-003
8.080408e+002,3.129061e-003
8.099694e+002,2.934499e-003
8.118978e+002,2.806157e-003
8.138263e+002,2.782008e-003
8.157548e+002,2.731990e-003
8.176833e+002,2.692297e-003
8.196118e+002,2.629053e-003
8.215403e+002,2.511863e-003
8.234689e+002,2.383873e-003
8.253973e+002,2.339706e-003
8.273258e+002,2.181869e-003
8.292543e+002,2.074208e-003
8.311829e+002,2.090113e-003
8.331113e+002,2.060071e-003
8.350398e+002,1.954114e-003
8.369683e+002,1.927529e-003
8.388969e+002,1.984399e-003
8.408253e+002,2.033070e-003
8.427538e+002,2.019117e-003
8.446823e+002,2.033992e-003
8.466108e+002,1.978677e-003
8.485393e+002,1.936723e-003
8.504678e+002,2.014216e-003
8.523963e+002,2.083898e-003
8.543248e+002,2.088357e-003
8.562533e+002,2.086457e-003
8.581818e+002,2.127383e-003
8.601103e+002,2.145654e-003
8.620388e+002,2.082201e-003
8.639673e+002,2.091512e-003
8.658958e+002,2.109643e-003
8.678243e+002,2.159903e-003
8.697528e+002,2.218485e-003
8.716813e+002,2.256518e-003
8.736098e+002,2.259746e-003
8.755383e+002,2.336523e-003
8.774668e+002,2.443261e-003
8.793953e+002,2.541255e-003
8.813238e+002,2.676139e-003
8.832523e+002,2.919817e-003
8.851808e+002,3.114715e-003
8.871093e+002,3.329074e-003
8.890378e+002,3.362047e-003
8.909663e+002,3.249969e-003
8.928948e+002,3.019700e-003
8.948232e+002,2.881086e-003
8.967518e+002,2.748182e-003
8.986803e+002,2.642222e-003
9.006088e+002,2.661513e-003
9.025372e+002,2.727250e-003
9.044658e+002,2.799610e-003
9.063943e+002,3.016375e-003
9.083228e+002,3.162947e-003
9.102512e+002,3.079705e-003
9.121797e+002,2.813976e-003
9.141083e+002,2.638999e-003
9.160367e+002,2.504693e-003
9.179653e+002,2.394466e-003
9.198937e+002,2.325363e-003
9.218223e+002,2.322426e-003
9.237507e+002,2.326429e-003
9.256793e+002,2.330793e-003
9.276077e+002,2.305409e-003
9.295363e+002,2.307890e-003
9.314647e+002,2.362188e-003
9.333932e+002,2.447132e-003
9.353217e+002,2.420602e-003
9.372502e+002,2.371773e-003
9.391787e+002,2.355017e-003
9.411072e+002,2.364064e-003
9.430358e+002,2.329426e-003
9.449642e+002,2.348324e-003
9.468928e+002,2.358323e-003
9.488212e+002,2.372660e-003
9.507498e+002,2.387270e-003
9.526782e+002,2.421612e-003
9.546068e+002,2.395397e-003
9.565352e+002,2.472788e-003
9.584637e+002,2.521031e-003
9.603922e+002,2.636801e-003
9.623207e+002,2.757629e-003
9.642492e+002,2.810558e-003
9.661777e+002,2.791718e-003
9.681062e+002,2.796993e-003
9.700347e+002,2.742736e-003
9.719632e+002,2.691589e-003
9.738917e+002,2.635634e-003
9.758202e+002,2.602048e-003
9.777487e+002,2.554633e-003
9.796772e+002,2.621038e-003
9.816057e+002,2.646938e-003
9.835342e+002,2.697099e-003
9.854627e+002,2.735032e-003
9.873912e+002,2.810843e-003
9.893197e+002,2.864921e-003
9.912482e+002,2.940357e-003
9.931767e+002,2.964461e-003
9.951052e+002,3.012838e-003
9.970337e+002,2.995582e-003
9.989622e+002,3.053129e-003
1.000891e+003,3.143257e-003
1.002819e+003,3.240198e-003
1.004748e+003,3.299551e-003
1.006676e+003,3.417570e-003
1.008605e+003,3.515992e-003
1.010533e+003,3.703538e-003
1.012462e+003,3.842797e-003
1.014390e+003,3.944235e-003
1.016319e+003,4.074557e-003
1.018247e+003,4.242463e-003
1.020176e+003,4.250359e-003
1.022104e+003,4.267523e-003
1.024033e+003,4.265122e-003
1.025961e+003,4.319349e-003
1.027890e+003,4.364304e-003
1.029818e+003,4.411949e-003
1.031747e+003,4.430322e-003
1.033675e+003,4.509985e-003
1.035604e+003,4.523257e-003
1.037532e+003,4.504327e-003
1.039461e+003,4.440900e-003
1.041389e+003,4.540216e-003
1.043318e+003,4.600173e-003
1.045246e+003,4.647307e-003
1.047175e+003,4.708836e-003
1.049103e+003,4.932817e-003
1.051032e+003,5.043291e-003
1.052960e+003,5.037207e-003
1.054889e+003,5.041404e-003
1.056817e+003,5.130935e-003
1.058746e+003,5.234713e-003
1.060674e+003,5.449250e-003
1.062603e+003,5.574888e-003
1.064531e+003,5.639307e-003
1.066460e+003,5.620383e-003
1.068388e+003,5.666215e-003
1.070317e+003,5.748451e-003
1.072245e+003,5.912598e-003
1.074174e+003,6.058767e-003
1.076102e+003,6.238518e-003
1.078031e+003,6.430637e-003
1.079959e+003,6.636132e-003
1.081888e+003,6.675569e-003
1.083816e+003,6.697331e-003
1.085745e+003,6.723840e-003
1.087673e+003,6.760785e-003
1.089602e+003,6.759981e-003
1.091530e+003,6.725451e-003
1.093459e+003,6.576894e-003
1.095387e+003,6.496606e-003
1.097316e+003,6.401230e-003
1.099244e+003,6.336145e-003
1.101173e+003,6.209783e-003
1.103101e+003,6.114073e-003
1.105030e+003,5.950069e-003
1.106958e+003,5.817387e-003
1.108887e+003,5.678102e-003
1.110815e+003,5.619820e-003
1.112744e+003,5.582206e-003
1.114672e+003,5.607005e-003
1.116601e+003,5.599882e-003
1.118529e+003,5.640909e-003
1.120458e+003,5.559288e-003
1.122386e+003,5.411606e-003
1.124315e+003,5.237764e-003
1.126243e+003,5.213453e-003
1.128172e+003,5.244618e-003
1.130100e+003,5.333161e-003
1.132029e+003,5.381092e-003
1.133957e+003,5.528087e-003
1.135885e+003,5.697407e-003
1.137814e+003,5.917910e-003
1.139743e+003,6.072115e-003
1.141671e+003,6.271958e-003
1.143600e+003,6.449923e-003
1.145528e+003,6.652486e-003
1.147457e+003,6.828964e-003
1.149385e+003,7.047534e-003
1.151314e+003,7.259371e-003
1.153242e+003,7.553194e-003
1.155171e+003,7.788712e-003
1.157099e+003,8.037847e-003
1.159028e+003,8.178815e-003
1.160956e+003,8.289456e-003
1.162885e+003,8.266773e-003
1.164813e+003,8.194046e-003
1.166742e+003,8.004341e-003
1.168670e+003,7.797226e-003
1.170599e+003,7.500634e-003
1.172527e+003,7.233128e-003
1.174456e+003,6.969716e-003
1.176384e+003,6.845942e-003
1.178313e+003,6.611381e-003
1.180241e+003,6.336814e-003
1.182170e+003,6.102800e-003
1.184098e+003,5.996022e-003
1.186027e+003,5.861802e-003
1.187955e+003,5.810171e-003
1.189884e+003,5.740063e-003
1.191812e+003,5.747683e-003
1.193740e+003,5.749015e-003
1.195669e+003,5.785616e-003
1.197598e+003,5.768528e-003
1.199526e+003,5.812462e-003
1.201455e+003,5.828707e-003
1.203383e+003,5.922366e-003
1.205312e+003,6.029392e-003
1.207240e+003,6.196730e-003
1.209168e+003,6.335152e-003
1.211097e+003,6.558167e-003
1.213026e+003,6.727967e-003
1.214954e+003,6.945834e-003
1.216883e+003,7.087851e-003
1.218811e+003,7.282896e-003
1.220740e+003,7.466385e-003
1.222668e+003,7.662922e-003
1.224596e+003,7.786827e-003
1.226525e+003,7.970506e-003
1.228453e+003,8.086281e-003
1.230382e+003,8.264482e-003
1.232311e+003,8.393612e-003
1.234239e+003,8.521629e-003
1.236167e+003,8.546302e-003
1.238096e+003,8.568868e-003
1.240025e+003,8.518511e-003
1.241953e+003,8.459179e-003
1.243882e+003,8.301696e-003
1.245810e+003,8.175900e-003
1.247739e+003,7.982245e-003
1.249667e+003,7.878704e-003
1.251595e+003,7.825794e-003
1.253524e+003,7.926978e-003
1.255453e+003,8.045841e-003
1.257381e+003,8.306434e-003
1.259310e+003,8.522484e-003
1.261238e+003,8.614160e-003
1.263167e+003,8.453615e-003
1.265095e+003,8.223845e-003
1.267023e+003,7.868383e-003
1.268952e+003,7.624401e-003
1.270880e+003,7.444339e-003
1.272809e+003,7.424373e-003
1.274738e+003,7.417731e-003
1.276666e+003,7.510221e-003
1.278594e+003,7.549856e-003
1.280523e+003,7.673614e-003
1.282451e+003,7.740524e-003
1.284380e+003,7.927898e-003
1.286308e+003,8.109832e-003
1.288237e+003,8.376148e-003
1.290166e+003,8.587886e-003
1.292094e+003,8.971931e-003
1.294022e+003,9.363379e-003
1.295951e+003,9.797279e-003
1.297879e+003,1.008607e-002
1.299808e+003,1.033792e-002
1.301736e+003,1.039162e-002
1.303665e+003,1.042987e-002
1.305594e+003,1.032342e-002
1.307522e+003,1.022705e-002
1.309450e+003,9.951705e-003
1.311379e+003,9.714648e-003
1.313307e+003,9.319684e-003
1.315236e+003,8.934626e-003
1.317164e+003,8.514473e-003
1.319093e+003,8.161388e-003
1.321021e+003,7.676741e-003
1.322950e+003,7.389892e-003
1.324878e+003,7.141501e-003
1.326807e+003,7.028183e-003
1.328735e+003,6.955201e-003
1.330664e+003,7.090162e-003
1.332592e+003,7.327395e-003
1.334521e+003,7.864622e-003
1.336449e+003,8.567480e-003
1.338378e+003,9.564904e-003
1.340306e+003,1.027331e-002
1.342235e+003,1.062139e-002
1.344163e+003,1.098718e-002
1.346092e+003,1.166291e-002
1.348021e+003,1.232207e-002
1.349949e+003,1.302142e-002
1.351877e+003,1.331516e-002
1.353806e+003,1.339421e-002
1.355734e+003,1.319636e-002
1.357663e+003,1.325998e-002
1.359591e+003,1.363588e-002
1.361520e+003,1.459292e-002
1.363448e+003,1.581984e-002
1.365377e+003,1.689543e-002
1.367305e+003,1.781277e-002
1.369234e+003,1.829534e-002
1.371162e+003,1.800209e-002
1.373091e+003,1.842620e-002
1.375019e+003,2.048447e-002
1.376948e+003,2.199323e-002
1.378876e+003,2.032408e-002
1.380805e+003,1.581724e-002
1.382733e+003,1.139278e-002
1.384662e+003,8.921394e-003
1.386590e+003,7.581484e-003
1.388519e+003,6.824620e-003
1.390447e+003,6.155798e-003
1.392376e+003,5.968330e-003
1.394304e+003,5.913174e-003
1.396233e+003,6.113648e-003
1.398161e+003,5.997775e-003
1.400090e+003,6.115699e-003
1.402018e+003,5.815720e-003
1.403947e+003,5.999053e-003
1.405875e+003,6.004728e-003
1.407804e+003,6.139275e-003
1.409732e+003,6.173903e-003
1.411661e+003,6.567070e-003
1.413589e+003,6.669620e-003
1.415518e+003,7.153165e-003
1.417446e+003,7.491043e-003
1.419375e+003,8.420836e-003
1.421303e+003,8.606158e-003
1.423232e+003,9.636864e-003
1.425160e+003,1.097673e-002
1.427089e+003,1.293242e-002
1.429017e+003,1.554956e-002
1.430946e+003,1.945903e-002
1.432874e+003,2.251702e-002
1.434803e+003,2.551001e-002
1.436731e+003,2.893849e-002
1.438660e+003,3.202084e-002
1.440588e+003,3.367114e-002
1.442517e+003,3.613535e-002
1.444445e+003,3.812873e-002
1.446374e+003,4.113861e-002
1.448302e+003,4.527015e-002
1.450231e+003,5.130907e-002
1.452159e+003,6.022625e-002
1.454088e+003,7.166204e-002
1.456016e+003,8.301322e-002
1.457945e+003,1.076838e-001
1.459873e+003,1.483228e-001
1.461802e+003,1.927058e-001
1.463730e+003,1.985882e-001
1.465659e+003,1.592559e-001
1.467587e+003,1.450576e-001
1.469516e+003,1.424677e-001
1.471444e+003,1.588720e-001
1.473373e+003,1.357271e-001
1.475301e+003,7.412888e-002
1.477230e+003,3.408194e-002
1.479158e+003,2.208981e-002
1.481087e+003,1.625755e-002
1.483015e+003,1.347825e-002
1.484944e+003,1.118829e-002
1.486872e+003,1.062123e-002
1.488801e+003,9.440970e-003
1.490729e+003,9.227483e-003
1.492658e+003,7.663120e-003
1.494586e+003,7.419089e-003
1.496515e+003,6.743735e-003
1.498443e+003,6.937783e-003
1.500372e+003,6.120641e-003
1.502300e+003,5.917080e-003
1.504229e+003,5.168345e-003
1.506157e+003,5.948037e-003
1.508086e+003,5.933853e-003
1.510014e+003,5.819332e-003
1.511943e+003,4.927177e-003
1.513871e+003,4.888315e-003
1.515800e+003,4.764304e-003
1.517728e+003,5.084824e-003
1.519657e+003,4.632145e-003
1.521585e+003,5.314700e-003
1.523514e+003,4.716756e-003
1.525442e+003,4.752206e-003
1.527371e+003,4.242782e-003
1.529299e+003,4.185757e-003
1.531228e+003,3.882810e-003
1.533156e+003,4.285881e-003
1.535085e+003,3.936240e-003
1.537013e+003,3.786189e-003
1.538942e+003,3.655177e-003
1.540870e+003,5.038129e-003
1.542799e+003,4.471440e-003
1.544727e+003,4.301047e-003
1.546656e+003,3.501818e-003
1.548584e+003,3.563935e-003
1.550513e+003,3.502177e-003
1.552441e+003,3.368229e-003
1.554370e+003,3.147688e-003
1.556298e+003,3.235517e-003
1.558227e+003,3.165938e-003
1.560155e+003,3.937002e-003
1.562084e+003,3.113454e-003
1.564012e+003,2.900425e-003
1.565941e+003,2.661314e-003
1.567869e+003,2.860855e-003
1.569798e+003,3.029022e-003
1.571726e+003,2.850886e-003
1.573655e+003,2.525587e-003
1.575583e+003,2.886681e-003
1.577512e+003,2.962843e-003
1.579440e+003,2.750734e-003
1.581369e+003,2.487715e-003
1.583297e+003,2.472442e-003
1.585226e+003,2.382405e-003
1.587154e+003,2.538474e-003
1.589083e+003,2.529623e-003
1.591011e+003,2.595318e-003
1.592940e+003,2.490738e-003
1.594868e+003,2.568768e-003
1.596797e+003,2.450321e-003
1.598725e+003,2.419434e-003
1.600654e+003,2.327725e-003
1.602582e+003,2.430044e-003
1.604511e+003,2.259273e-003
1.606439e+003,2.324283e-003
1.608368e+003,2.318148e-003
1.610296e+003,2.342600e-003
1.612225e+003,2.193060e-003
1.614153e+003,2.251614e-003
1.616082e+003,2.482194e-003
1.618010e+003,2.832673e-003
1.619939e+003,2.499156e-003
1.621867e+003,2.507605e-003
1.623796e+003,2.577458e-003
1.625724e+003,2.654698e-003
1.627653e+003,2.660207e-003
1.629581e+003,2.635561e-003
1.631510e+003,2.349120e-003
1.633438e+003,2.314996e-003
1.635367e+003,2.781656e-003
1.637295e+003,3.367878e-003
1.639224e+003,3.003009e-003
1.641152e+003,2.803858e-003
1.643081e+003,2.595302e-003
1.645009e+003,2.795327e-003
1.646938e+003,3.439125e-003
1.648866e+003,3.327761e-003
1.650795e+003,2.722699e-003
1.652723e+003,3.253940e-003
1.654652e+003,3.611807e-003
1.656580e+003,3.111046e-003
1.658509e+003,2.584755e-003
1.660437e+003,2.512068e-003
1.662366e+003,2.580773e-003
1.664294e+003,2.516903e-003
1.666223e+003,2.211682e-003
1.668151e+003,2.349392e-003
1.670080e+003,2.477560e-003
1.672008e+003,2.234023e-003
1.673937e+003,1.989238e-003
1.675865e+003,2.202138e-003
1.677794e+003,1.984023e-003
1.679722e+003,2.064973e-003
1.681651e+003,1.924261e-003
1.683579e+003,2.110153e-003
1.685508e+003,2.242051e-003
1.687436e+003,2.082989e-003
1.689365e+003,1.828551e-003
1.691293e+003,1.602225e-003
1.693222e+003,1.318298e-003
1.695150e+003,1.594774e-003
1.697079e+003,1.951102e-003
1.699007e+003,1.996789e-003
1.700936e+003,2.043691e-003
1.702864e+003,2.006244e-003
1.704793e+003,1.970954e-003
1.706721e+003,2.171513e-003
1.708650e+003,2.018608e-003
1.710578e+003,2.034288e-003
1.712507e+003,1.999360e-003
1.714435e+003,2.321187e-003
1.716364e+003,2.653528e-003
1.718292e+003,3.133960e-003
1.720221e+003,2.863400e-003
1.722149e+003,2.822023e-003
1.724078e+003,2.767891e-003
1.726006e+003,2.648070e-003
1.727935e+003,2.619509e-003
1.729863e+003,3.122821e-003
1.731792e+003,3.428236e-003
1.733720e+003,4.455313e-003
1.735649e+003,5.097594e-003
1.737577e+003,5.374346e-003
1.739506e+003,6.328017e-003
1.741434e+003,7.634569e-003
1.743363e+003,8.786455e-003
1.745291e+003,9.704974e-003
1.747220e+003,1.008900e-002
1.749148e+003,1.009762e-002
1.751077e+003,9.146392e-003
1.753005e+003,7.563729e-003
1.754934e+003,6.142166e-003
1.756862e+003,4.857190e-003
1.758791e+003,3.566954e-003
1.760719e+003,2.863694e-003
1.762648e+003,2.219200e-003
1.764576e+003,1.628727e-003
1.766505e+003,1.213804e-003
1.768433e+003,1.163423e-003
1.770362e+003,1.115203e-003
1.772290e+003,1.458585e-003
1.774219e+003,1.180992e-003
1.776147e+003,8.402802e-004
1.778076e+003,5.781353e-004
1.780004e+003,6.345697e-004
1.781933e+003,4.831068e-004
1.783861e+003,5.045198e-004
1.785790e+003,3.784709e-004
1.787718e+003,2.862513e-004
1.789646e+003,2.146736e-004
1.791575e+003,5.398057e-004
1.793504e+003,5.866140e-004
1.795432e+003,4.546829e-004
1.797361e+003,2.452806e-004
1.799289e+003,4.028566e-004
1.801218e+003,4.975311e-004
1.803146e+003,3.776178e-004
1.805074e+003,8.856878e-005
1.807003e+003,3.056228e-005
1.808932e+003,-5.508959e-005
1.810860e+003,3.409758e-005
1.812789e+003,-2.766140e-004
1.814717e+003,-5.931556e-004
1.816646e+003,-7.433295e-004
1.818574e+003,-4.492626e-004
1.820502e+003,-4.324317e-004
1.822431e+003,-3.347583e-004
1.824360e+003,-3.232732e-004
1.826288e+003,-3.199950e-004
1.828217e+003,-4.338808e-004
1.830145e+003,-1.501478e-004
1.832073e+003,-5.087256e-004
1.834002e+003,-7.400140e-004
1.835931e+003,-8.199550e-004
1.837859e+003,-6.744228e-004
1.839788e+003,-9.143502e-004
1.841716e+003,-9.275302e-004
1.843645e+003,-7.922761e-004
1.845573e+003,-4.758947e-004
1.847501e+003,-7.208660e-004
1.849430e+003,-7.197633e-004
1.851359e+003,-9.867921e-004
1.853287e+003,-1.005735e-003
1.855216e+003,-1.069546e-003
1.857144e+003,-9.598024e-004
1.859073e+003,-1.141269e-003
1.861001e+003,-1.119822e-003
1.862929e+003,-1.291178e-003
1.864858e+003,-1.172535e-003
1.866787e+003,-1.217164e-003
1.868715e+003,-1.056284e-003
1.870644e+003,-1.097731e-003
1.872572e+003,-1.100831e-003
1.874500e+003,-1.168814e-003
1.876429e+003,-1.037292e-003
1.878357e+003,-1.166157e-003
1.880286e+003,-1.157053e-003
1.882215e+003,-1.335662e-003
1.884143e+003,-1.095247e-003
1.886072e+003,-1.321174e-003
1.888000e+003,-1.125928e-003
1.889928e+003,-8.258671e-004
1.891857e+003,-5.157888e-004
1.893785e+003,-3.833659e-004
1.895714e+003,2.395362e-006
1.897643e+003,-3.195889e-004
1.899571e+003,-3.440529e-004
1.901500e+003,-3.400519e-004
1.903428e+003,-3.360473e-004
1.905356e+003,-3.320612e-004
1.907285e+003,-3.280863e-004
1.909213e+003,-3.241189e-004
1.911142e+003,-3.201589e-004
1.913071e+003,-3.162175e-004
1.914999e+003,-3.122762e-004
1.916927e+003,-3.083497e-004
1.918856e+003,-3.044307e-004
1.920784e+003,-3.005229e-004
1.922713e+003,-2.966225e-004
1.924641e+003,-2.927333e-004
1.926570e+003,-2.888553e-004
1.928499e+003,-2.849847e-004
1.930427e+003,-2.811253e-004
1.932355e+003,-2.772771e-004
1.934284e+003,-2.734326e-004
1.936212e+003,-2.696030e-004
1.938141e+003,-2.657808e-004
1.940070e+003,-2.619699e-004
1.941998e+003,-2.581626e-004
1.943927e+003,-2.543740e-004
1.945855e+003,-2.505966e-004
1.947783e+003,-2.468191e-004
1.949712e+003,-2.430566e-004
1.951640e+003,-2.393015e-004
1.953569e+003,-2.355613e-004
1.955498e+003,-2.318285e-004
1.957426e+003,-2.281033e-004
1.959354e+003,-2.243854e-004
1.961283e+003,-2.206825e-004
1.963211e+003,-2.169870e-004
1.965140e+003,-2.132989e-004
1.967068e+003,-2.096295e-004
1.968997e+003,-2.059601e-004
1.970926e+003,-2.023056e-004
1.972854e+003,-1.986548e-004
1.974782e+003,-1.950227e-004
1.976711e+003,-1.913942e-004
1.978639e+003,-1.877770e-004
1.980568e+003,-1.841709e-004
1.982496e+003,-1.805723e-004
1.984425e+003,-1.769811e-004
1.986354e+003,-1.734048e-004
1.988282e+003,-1.698360e-004
1.990210e+003,-1.662783e-004
1.992139e+003,-1.627244e-004
1.994067e+003,-1.591891e-004
1.995996e+003,-1.556575e-004
1.997924e+003,-1.521371e-004
1.999853e+003,-1.486205e-004
2.001781e+003,-1.451261e-004
2.003710e+003,-1.416355e-004
2.005638e+003,-1.381524e-004
2.007567e+003,-1.346841e-004
2.009495e+003,-1.312196e-004
2.011424e+003,-1.277663e-004
2.013352e+003,-1.243241e-004
2.015281e+003,-1.208894e-004
2.017209e+003,-1.174696e-004
2.019138e+003,-1.140572e-004
2.021066e+003,-1.106560e-004
2.022995e+003,-1.072586e-004
2.024923e+003,-1.038760e-004
2.026852e+003,-1.004972e-004
2.028781e+003,-9.713694e-005
2.030709e+003,-9.378046e-005
2.032637e+003,-9.043515e-005
2.034566e+003,-8.710101e-005
2.036494e+003,-8.377060e-005
2.038423e+003,-8.045137e-005
2.040351e+003,-7.714704e-005
2.042280e+003,-7.385015e-005
2.044208e+003,-7.056445e-005
2.046137e+003,-6.728247e-005
2.048065e+003,-6.402284e-005
2.049994e+003,-6.076321e-005
2.051922e+003,-5.751476e-005
2.053851e+003,-5.427003e-005
2.055779e+003,-5.104393e-005
2.057708e+003,-4.782528e-005
2.059636e+003,-4.461780e-005
2.061565e+003,-4.142150e-005
2.063493e+003,-3.822893e-005
2.065422e+003,-3.504753e-005
2.067350e+003,-3.187731e-005
2.069279e+003,-2.871454e-005
2.071207e+003,-2.556667e-005
2.073136e+003,-2.241880e-005
2.075064e+003,-1.929328e-005
2.076993e+003,-1.617149e-005
2.078921e+003,-1.305714e-005
2.080850e+003,-9.957701e-006
2.082778e+003,-6.865710e-006
2.084707e+003,-3.777444e-006
2.086635e+003,-7.003546e-007
2.088564e+003,2.358109e-006
2.090492e+003,5.409122e-006
2.092421e+003,8.456409e-006
2.094349e+003,1.149252e-005
2.096278e+003,1.451001e-005
2.098206e+003,1.753494e-005
2.100135e+003,2.054125e-005
2.102063e+003,2.353266e-005
2.103992e+003,2.652034e-005
2.105920e+003,2.949312e-005
2.107849e+003,3.246590e-005
2.109777e+003,3.541633e-005
2.111706e+003,3.836676e-005
2.113634e+003,4.130602e-005
2.115563e+003,4.423410e-005
2.117491e+003,4.715100e-005
2.119420e+003,5.006045e-005
2.121348e+003,5.295873e-005
2.123277e+003,5.584210e-005
2.125205e+003,5.872548e-005
2.127134e+003,6.159395e-005
2.129062e+003,6.445497e-005
2.130991e+003,6.730482e-005
2.132919e+003,7.014349e-005
2.134848e+003,7.297844e-005
2.136776e+003,7.579476e-005
2.138705e+003,7.860735e-005
2.140633e+003,8.140877e-005
2.142562e+003,8.420274e-005
2.144490e+003,8.698553e-005
2.146419e+003,8.975714e-005
2.148347e+003,9.252131e-005
2.150276e+003,9.527057e-005
2.152204e+003,9.801239e-005
2.154133e+003,1.007505e-004
2.156061e+003,1.034774e-004
2.157990e+003,1.061894e-004
2.159918e+003,1.088940e-004
2.161847e+003,1.115911e-004
2.163775e+003,1.142696e-004
2.165704e+003,1.169443e-004
2.167632e+003,1.196116e-004
2.169561e+003,1.222603e-004
2.171489e+003,1.249127e-004
2.173418e+003,1.275539e-004
2.175346e+003,1.301803e-004
2.177275e+003,1.327954e-004
2.179203e+003,1.354031e-004
2.181132e+003,1.380034e-004
2.183060e+003,1.405850e-004
2.184989e+003,1.431629e-004
2.186917e+003,1.457371e-004
2.188846e+003,1.482964e-004
2.190774e+003,1.508370e-004
2.192703e+003,1.533814e-004
2.194631e+003,1.559108e-004
2.196560e+003,1.584254e-004
2.198488e+003,1.609363e-004
2.200417e+003,1.634434e-004
2.202345e+003,1.659356e-004
2.204274e+003,1.684129e-004
2.206202e+003,1.708865e-004
2.208131e+003,1.733489e-004
2.210059e+003,1.757927e-004
2.211988e+003,1.782365e-004
2.213916e+003,1.806729e-004
2.215845e+003,1.830906e-004
2.217773e+003,1.855083e-004
2.219702e+003,1.879148e-004
2.221630e+003,1.903065e-004
2.223559e+003,1.926906e-004
2.225487e+003,1.950599e-004
2.227416e+003,1.974255e-004
2.229344e+003,1.997836e-004
2.231273e+003,2.021268e-004
2.233201e+003,2.044700e-004
2.235130e+003,2.067909e-004
2.237058e+003,2.091043e-004
2.238987e+003,2.114139e-004
2.240915e+003,2.137050e-004
2.242844e+003,2.159961e-004
2.244772e+003,2.182759e-004
2.246701e+003,2.205409e-004
2.248629e+003,2.227984e-004
2.250558e+003,2.250448e-004
2.252486e+003,2.272837e-004
2.254415e+003,2.295151e-004
2.256343e+003,2.317354e-004
2.258272e+003,2.339371e-004
2.260200e+003,2.361387e-004
2.262129e+003,2.383329e-004
2.264057e+003,2.405085e-004
2.265986e+003,2.426766e-004
2.267914e+003,2.448373e-004
2.269843e+003,2.469905e-004
2.271771e+003,2.491288e-004
2.273700e+003,2.512597e-004
2.275628e+003,2.533868e-004
2.277557e+003,2.554953e-004
2.279485e+003,2.576001e-004
2.281414e+003,2.596937e-004
2.283342e+003,2.617761e-004
2.285271e+003,2.638437e-004
2.287199e+003,2.659075e-004
2.289128e+003,2.679676e-004
2.291056e+003,2.700128e-004
2.292985e+003,2.720393e-004
2.294913e+003,2.740696e-004
2.296842e+003,2.760813e-004
2.298770e+003,2.780855e-004
2.300699e+003,2.800860e-004
2.302627e+003,2.820715e-004
2.304556e+003,2.840497e-004
2.306484e+003,2.860166e-004
2.308413e+003,2.879687e-004
2.310341e+003,2.899170e-004
2.312270e+003,2.918541e-004
2.314198e+003,2.937801e-004
2.316127e+003,2.956986e-004
2.318055e+003,2.976023e-004
2.319984e+003,2.995059e-004
2.321912e+003,3.013946e-004
2.323841e+003,3.032759e-004
2.325769e+003,3.051460e-004
2.327698e+003,3.070012e-004
2.329626e+003,3.088489e-004
2.331555e+003,3.106855e-004
2.333483e+003,3.125221e-004
2.335412e+003,3.143437e-004
2.337340e+003,3.161542e-004
2.339269e+003,3.179573e-004
2.341197e+003,3.197454e-004
2.343126e+003,3.215298e-004
2.345054e+003,3.232956e-004
2.346983e+003,3.250614e-004
2.348911e+003,3.268197e-004
2.350840e+003,3.285594e-004
2.352768e+003,3.302954e-004
2.354697e+003,3.320165e-004
2.356625e+003,3.337301e-004
2.358554e+003,3.354289e-004
2.360482e+003,3.371239e-004
2.362411e+003,3.388114e-004
2.364339e+003,3.404878e-004
2.366268e+003,3.421567e-004
2.368196e+003,3.438033e-004
2.370125e+003,3.454536e-004
2.372053e+003,3.470890e-004
2.373982e+003,3.487132e-004
2.375910e+003,3.503338e-004
2.377839e+003,3.519468e-004
2.379767e+003,3.535412e-004
2.381696e+003,3.551245e-004
2.383624e+003,3.567040e-004
2.385553e+003,3.582686e-004
2.387481e+003,3.598258e-004
2.389410e+003,3.613792e-004
2.391338e+003,3.629215e-004
2.393267e+003,3.644489e-004
2.395195e+003,3.659651e-004
2.397124e+003,3.674775e-004
2.399052e+003,3.689751e-004
2.400981e+003,4.596077e-004
2.402909e+003,5.015358e-004
2.404838e+003,4.558973e-004
2.406766e+003,5.200915e-004
2.408695e+003,7.544346e-004
2.410623e+003,9.239241e-004
2.412552e+003,1.015462e-003
2.414480e+003,9.036213e-004
2.416409e+003,9.972192e-004
2.418337e+003,9.667762e-004
2.420266e+003,8.533634e-004
2.422194e+003,7.640719e-004
2.424123e+003,8.169301e-004
2.426051e+003,8.744001e-004
2.427979e+003,9.774975e-004
2.429908e+003,1.031652e-003
2.431837e+003,9.469986e-004
2.433765e+003,8.605272e-004
2.435694e+003,9.164661e-004
2.437622e+003,8.886419e-004
2.439551e+003,8.206144e-004
2.441479e+003,6.608739e-004
2.443407e+003,8.154549e-004
2.445336e+003,9.909272e-004
2.447265e+003,9.053200e-004
2.449193e+003,8.435622e-004
2.451122e+003,1.019631e-003
2.453050e+003,1.251727e-003
2.454979e+003,1.368936e-003
2.456907e+003,1.287926e-003
2.458836e+003,1.153346e-003
2.460764e+003,1.071103e-003
2.462693e+003,1.178663e-003
2.464621e+003,1.240864e-003
2.466550e+003,1.191117e-003
2.468478e+003,1.134854e-003
2.470406e+003,1.149796e-003
2.472335e+003,1.220215e-003
2.474264e+003,1.457207e-003
2.476192e+003,1.621496e-003
2.478121e+003,1.626521e-003
2.480049e+003,1.418564e-003
2.481978e+003,1.455143e-003
2.483906e+003,1.634859e-003
2.485835e+003,1.700774e-003
2.487763e+003,1.518544e-003
2.489692e+003,1.438633e-003
2.491620e+003,1.627002e-003
2.493549e+003,1.831282e-003
2.495477e+003,1.764391e-003
2.497406e+003,1.585983e-003
2.499334e+003,1.566816e-003
2.501263e+003,1.683611e-003
2.503191e+003,1.728147e-003
2.505120e+003,1.676813e-003
2.507048e+003,1.724791e-003
2.508977e+003,1.991864e-003
2.510905e+003,2.179120e-003
2.512833e+003,2.118513e-003
2.514762e+003,2.143979e-003
2.516691e+003,2.356276e-003
2.518619e+003,2.455786e-003
2.520548e+003,2.520129e-003
2.522476e+003,2.662115e-003
2.524405e+003,2.930593e-003
2.526333e+003,3.060333e-003
2.528261e+003,3.025249e-003
2.530190e+003,2.880618e-003
2.532119e+003,2.907075e-003
2.534047e+003,2.875306e-003
2.535976e+003,2.848417e-003
2.537904e+003,2.920453e-003
2.539833e+003,2.984904e-003
2.541761e+003,3.098872e-003
2.543689e+003,3.286231e-003
2.545618e+003,3.492415e-003
2.547547e+003,3.751516e-003
2.549475e+003,3.865682e-003
2.551404e+003,3.848273e-003
2.553332e+003,3.791895e-003
2.555260e+003,3.927849e-003
2.557189e+003,4.084680e-003
2.559117e+003,4.227862e-003
2.561046e+003,4.255656e-003
2.562975e+003,4.211187e-003
2.564903e+003,4.195761e-003
2.566832e+003,4.398890e-003
2.568760e+003,4.655067e-003
2.570688e+003,4.833750e-003
2.572617e+003,5.102638e-003
2.574546e+003,5.210277e-003
2.576474e+003,5.416777e-003
2.578403e+003,5.791225e-003
2.580331e+003,5.969856e-003
2.582260e+003,6.044537e-003
2.584188e+003,6.115902e-003
2.586116e+003,6.381374e-003
2.588045e+003,6.631207e-003
2.589974e+003,6.821699e-003
2.591902e+003,7.046342e-003
2.593831e+003,7.352065e-003
2.595759e+003,7.635996e-003
2.597688e+003,7.769573e-003
2.599616e+003,7.859658e-003
2.601544e+003,8.086961e-003
2.603473e+003,8.342851e-003
2.605402e+003,8.644808e-003
2.607330e+003,8.936331e-003
2.609259e+003,9.278815e-003
2.611187e+003,9.608749e-003
2.613115e+003,9.856462e-003
2.615044e+003,1.007638e-002
2.616972e+003,1.038638e-002
2.618901e+003,1.063627e-002
2.620830e+003,1.103164e-002
2.622758e+003,1.152055e-002
2.624687e+003,1.193896e-002
2.626615e+003,1.236549e-002
2.628543e+003,1.285816e-002
2.630472e+003,1.322553e-002
2.632400e+003,1.344067e-002
2.634329e+003,1.365697e-002
2.636258e+003,1.379037e-002
2.638186e+003,1.386382e-002
2.640115e+003,1.390074e-002
2.642043e+003,1.389138e-002
2.643971e+003,1.394152e-002
2.645900e+003,1.397062e-002
2.647828e+003,1.400375e-002
2.649757e+003,1.415261e-002
2.651686e+003,1.430260e-002
2.653614e+003,1.445460e-002
2.655542e+003,1.458507e-002
2.657471e+003,1.463250e-002
2.659399e+003,1.461223e-002
2.661328e+003,1.450887e-002
2.663256e+003,1.430915e-002
2.665185e+003,1.413696e-002
2.667114e+003,1.396754e-002
2.669042e+003,1.373150e-002
2.670970e+003,1.357497e-002
2.672899e+003,1.346533e-002
2.674827e+003,1.327421e-002
2.676756e+003,1.302758e-002
2.678685e+003,1.291743e-002
2.680613e+003,1.283783e-002
2.682542e+003,1.268236e-002
2.684470e+003,1.255266e-002
2.686398e+003,1.244906e-002
2.688327e+003,1.233153e-002
2.690255e+003,1.218423e-002
2.692184e+003,1.202141e-002
2.694113e+003,1.190106e-002
2.696041e+003,1.187723e-002
2.697969e+003,1.196260e-002
2.699898e+003,1.207525e-002
2.701826e+003,1.223722e-002
2.703755e+003,1.244894e-002
2.705683e+003,1.262557e-002
2.707612e+003,1.273151e-002
2.709541e+003,1.280222e-002
2.711469e+003,1.293592e-002
2.713397e+003,1.316760e-002
2.715326e+003,1.336884e-002
2.717254e+003,1.360415e-002
2.719183e+003,1.384699e-002
2.721111e+003,1.404328e-002
2.723040e+003,1.430884e-002
2.724969e+003,1.462479e-002
2.726897e+003,1.491211e-002
2.728825e+003,1.520277e-002
2.730754e+003,1.542024e-002
2.732682e+003,1.562180e-002
2.734611e+003,1.576901e-002
2.736539e+003,1.587420e-002
2.738468e+003,1.601158e-002
2.740396e+003,1.607426e-002
2.742325e+003,1.609242e-002
2.744253e+003,1.608530e-002
2.746182e+003,1.603111e-002
2.748110e+003,1.597045e-002
2.750039e+003,1.599731e-002
2.751967e+003,1.615549e-002
2.753896e+003,1.632822e-002
2.755824e+003,1.658974e-002
2.757753e+003,1.691243e-002
2.759681e+003,1.729405e-002
2.761610e+003,1.770985e-002
2.763538e+003,1.813843e-002
2.765467e+003,1.858284e-002
2.767395e+003,1.903084e-002
2.769324e+003,1.958395e-002
2.771252e+003,2.017884e-002
2.773181e+003,2.087030e-002
2.775109e+003,2.173197e-002
2.777038e+003,2.262055e-002
2.778966e+003,2.357167e-002
2.780895e+003,2.465329e-002
2.782823e+003,2.581341e-002
2.784752e+003,2.705349e-002
2.786680e+003,2.837315e-002
2.788609e+003,2.992897e-002
2.790537e+003,3.160438e-002
2.792466e+003,3.332371e-002
2.794394e+003,3.508881e-002
2.796323e+003,3.694750e-002
2.798251e+003,3.883667e-002
2.800180e+003,4.086738e-002
2.802108e+003,4.294790e-002
2.804037e+003,4.517260e-002
2.805965e+003,4.773732e-002
2.807894e+003,5.059605e-002
2.809822e+003,5.369672e-002
2.811751e+003,5.713780e-002
2.813679e+003,6.097427e-002
2.815608e+003,6.542642e-002
2.817536e+003,7.060871e-002
2.819465e+003,7.669369e-002
2.821393e+003,8.388126e-002
2.823322e+003,9.266841e-002
2.825250e+003,1.034436e-001
2.827179e+003,1.170332e-001
2.829107e+003,1.347979e-001
2.831036e+003,1.586371e-001
2.832964e+003,1.914185e-001
2.834893e+003,2.379118e-001
2.836821e+003,3.046307e-001
2.838750e+003,4.018598e-001
2.840678e+003,5.460741e-001
2.842607e+003,7.586102e-001
2.844535e+003,1.050002e+000
2.846464e+003,1.347586e+000
2.848392e+003,1.401390e+000
2.850321e+003,1.143006e+000
2.852249e+003,8.440688e-001
2.854178e+003,6.308526e-001
2.856106e+003,4.870607e-001
2.858035e+003,3.862597e-001
2.859963e+003,3.144745e-001
2.861892e+003,2.643198e-001
2.863820e+003,2.307671e-001
2.865749e+003,2.105257e-001
2.867677e+003,2.007105e-001
2.869606e+003,1.979990e-001
2.871534e+003,1.992245e-001
2.873463e+003,2.035896e-001
2.875391e+003,2.125773e-001
2.877320e+003,2.276410e-001
2.879248e+003,2.488530e-001
2.881177e+003,2.750786e-001
2.883105e+003,3.053144e-001
2.885034e+003,3.391802e-001
2.886962e+003,3.758302e-001
2.888891e+003,4.142934e-001
2.890819e+003,4.536531e-001
2.892748e+003,4.930286e-001
2.894676e+003,5.321249e-001
2.896605e+003,5.719523e-001
2.898533e+003,6.140549e-001
2.900462e+003,6.613008e-001
2.902390e+003,7.180390e-001
2.904319e+003,7.912861e-001
2.906247e+003,8.905550e-001
2.908176e+003,1.026523e+000
2.910104e+003,1.206280e+000
2.912033e+003,1.413905e+000
2.913961e+003,1.574724e+000
2.915890e+003,1.579273e+000
2.917818e+003,1.420714e+000
2.919747e+003,1.203864e+000
2.921675e+003,1.003436e+000
2.923604e+003,8.391188e-001
2.925532e+003,7.083630e-001
2.927461e+003,6.024979e-001
2.929389e+003,5.138464e-001
2.931318e+003,4.382013e-001
2.933246e+003,3.731761e-001
2.935175e+003,3.173234e-001
2.937103e+003,2.694364e-001
2.939032e+003,2.286805e-001
2.940960e+003,1.945819e-001
2.942889e+003,1.669369e-001
2.944817e+003,1.457385e-001
2.946746e+003,1.307380e-001
2.948674e+003,1.213907e-001
2.950603e+003,1.162785e-001
2.952531e+003,1.130184e-001
2.954460e+003,1.097910e-001
2.956388e+003,1.057901e-001
2.958317e+003,1.005249e-001
2.960245e+003,9.404121e-002
2.962174e+003,8.653765e-002
2.964102e+003,7.822553e-002
2.966031e+003,6.964146e-002
2.967959e+003,6.144860e-002
2.969888e+003,5.391148e-002
2.971816e+003,4.728708e-002
2.973745e+003,4.168506e-002
2.975673e+003,3.699090e-002
2.977602e+003,3.309252e-002
2.979530e+003,2.994324e-002
2.981459e+003,2.727913e-002
2.983387e+003,2.510615e-002
2.985316e+003,2.330832e-002
2.987244e+003,2.175285e-002
2.989173e+003,2.044976e-002
2.991101e+003,1.935894e-002
2.993030e+003,1.839293e-002
2.994958e+003,1.754498e-002
2.996887e+003,1.683913e-002
2.998815e+003,1.626854e-002
3.000744e+003,1.576285e-002
3.002672e+003,1.534860e-002
3.004601e+003,1.491578e-002
3.006529e+003,1.443765e-002
3.008458e+003,1.399150e-002
3.010386e+003,1.355189e-002
3.012315e+003,1.310381e-002
3.014243e+003,1.258271e-002
3.016172e+003,1.206884e-002
3.018100e+003,1.169453e-002
3.020029e+003,1.140181e-002
3.021957e+003,1.106781e-002
3.023886e+003,1.069588e-002
3.025814e+003,1.036075e-002
3.027743e+003,1.005863e-002
3.029671e+003,9.776972e-003
3.031600e+003,9.540383e-003
3.033528e+003,9.333886e-003
3.035457e+003,8.986391e-003
3.037385e+003,8.492228e-003
3.039314e+003,8.094572e-003
3.041242e+003,7.815622e-003
3.043171e+003,7.560384e-003
3.045099e+003,7.297002e-003
3.047028e+003,7.038649e-003
3.048956e+003,6.810129e-003
3.050885e+003,6.571133e-003
3.052813e+003,6.273381e-003
3.054742e+003,6.080061e-003
3.056670e+003,5.941454e-003
3.058599e+003,5.684882e-003
3.060527e+003,5.471148e-003
3.062456e+003,5.440772e-003
3.064384e+003,5.406372e-003
3.066313e+003,5.260520e-003
3.068241e+003,5.100034e-003
3.070170e+003,4.898712e-003
3.072098e+003,4.754752e-003
3.074027e+003,4.609548e-003
3.075955e+003,4.523247e-003
3.077884e+003,4.427075e-003
3.079812e+003,4.264452e-003
3.081741e+003,4.123770e-003
3.083669e+003,4.015997e-003
3.085598e+003,3.902934e-003
3.087526e+003,3.719717e-003
3.089455e+003,3.411286e-003
3.091383e+003,3.112651e-003
3.093312e+003,2.900057e-003
3.095240e+003,2.691738e-003
3.097169e+003,2.381995e-003
3.099097e+003,2.146654e-003
3.101026e+003,1.972094e-003
3.102954e+003,1.665242e-003
3.104883e+003,1.419835e-003
3.106811e+003,1.379512e-003
3.108740e+003,1.359552e-003
3.110668e+003,1.253039e-003
3.112597e+003,1.107231e-003
3.114525e+003,9.469539e-004
3.116454e+003,8.023083e-004
3.118382e+003,7.391125e-004
3.120311e+003,7.016435e-004
3.122239e+003,7.177293e-004
3.124168e+003,7.083192e-004
3.126096e+003,6.370842e-004
3.128025e+003,5.613863e-004
3.129953e+003,5.465299e-004
3.131882e+003,5.516708e-004
3.133810e+003,4.081726e-004
3.135739e+003,3.149435e-004
3.137667e+003,3.120899e-004
3.139596e+003,3.053024e-004
3.141524e+003,3.852844e-004
3.143453e+003,4.237592e-004
3.145381e+003,2.449900e-004
3.147310e+003,1.497939e-004
3.149238e+003,9.953976e-005
3.151167e+003,4.759431e-005
3.153095e+003,8.736551e-005
3.155024e+003,6.087869e-005
3.156952e+003,9.885430e-005
3.158881e+003,9.198487e-005
3.160809e+003,6.840378e-005
3.162738e+003,1.523644e-004
3.164666e+003,2.035573e-004
3.166594e+003,1.739636e-004
3.168523e+003,1.680776e-004
3.170452e+003,1.542717e-004
3.172380e+003,8.985400e-005
3.174309e+003,5.667657e-005
3.176237e+003,7.343292e-005
3.178166e+003,1.552552e-004
3.180094e+003,1.326650e-004
3.182022e+003,7.288158e-005
3.183951e+003,1.076013e-004
3.185880e+003,1.279935e-004
3.187808e+003,9.258091e-005
3.189737e+003,5.844235e-005
3.191665e+003,1.616776e-005
3.193594e+003,-3.103912e-005
3.195522e+003,-1.557916e-005
3.197450e+003,-1.331419e-005
3.199379e+003,-5.429983e-005
3.201308e+003,-1.045614e-004
3.203236e+003,-7.788837e-005
3.205165e+003,-7.032603e-005
3.207093e+003,-1.594648e-004
3.209021e+003,-1.429245e-004
3.210950e+003,-1.111850e-004
3.212878e+003,-7.372350e-005
3.214807e+003,-1.640916e-004
3.216736e+003,-2.845153e-004
3.218664e+003,-2.295449e-004
3.220593e+003,-2.585277e-004
3.222521e+003,-2.771467e-004
3.224449e+003,-2.246425e-004
3.226378e+003,-1.285970e-004
3.228307e+003,-1.859739e-004
3.230235e+003,-2.776608e-004
3.232164e+003,-3.054366e-004
3.234092e+003,-2.994388e-004
3.236021e+003,-2.064258e-004
3.237949e+003,-1.588538e-004
3.239877e+003,-2.887249e-004
3.241806e+003,-2.903640e-004
3.243735e+003,-1.616403e-004
3.245663e+003,-1.418889e-004
3.247592e+003,-1.426637e-004
3.249520e+003,-2.368093e-004
3.251448e+003,-3.197715e-004
3.253377e+003,-1.697615e-004
3.255305e+003,-1.432970e-004
3.257234e+003,-1.769140e-004
3.259163e+003,-1.542792e-004
3.261091e+003,-1.514554e-004
3.263020e+003,-1.530349e-005
3.264948e+003,2.186745e-005
3.266876e+003,-1.298040e-004
3.268805e+003,-2.166852e-004
3.270733e+003,-2.003759e-004
3.272662e+003,-6.840378e-005
3.274591e+003,5.257875e-005
3.276519e+003,6.736815e-005
3.278448e+003,6.827712e-005
3.280376e+003,7.498264e-005
3.282304e+003,4.510581e-005
3.284233e+003,8.946657e-005
3.286161e+003,6.137788e-005
3.288090e+003,2.273917e-005
3.290019e+003,-2.259016e-005
3.291947e+003,-6.018579e-005
3.293875e+003,-9.924173e-006
3.295804e+003,1.005828e-006
3.297732e+003,2.282113e-005
3.299661e+003,6.932020e-005
3.301589e+003,8.225441e-005
3.303518e+003,6.546825e-005
3.305447e+003,-8.545816e-006
3.307375e+003,-5.517900e-005
3.309303e+003,-1.467764e-006
3.311232e+003,9.418279e-005
3.313160e+003,1.599193e-004
3.315089e+003,1.512766e-004
3.317018e+003,2.177879e-004
3.318946e+003,1.693815e-004
3.320875e+003,7.520616e-005
3.322803e+003,5.390495e-005
3.324731e+003,1.325160e-004
3.326660e+003,2.189875e-004
3.328588e+003,1.248494e-004
3.330517e+003,-4.059821e-005
3.332446e+003,-4.152954e-005
3.334374e+003,1.162812e-004
3.336302e+003,2.708137e-004
3.338231e+003,2.655238e-004
3.340159e+003,1.424998e-004
3.342088e+003,9.077042e-005
3.344016e+003,3.480911e-005
3.345945e+003,5.761534e-005
3.347874e+003,8.230656e-005
3.349802e+003,9.142607e-005
3.351730e+003,9.228289e-005
3.353659e+003,9.954721e-005
3.355587e+003,1.707450e-004
3.357516e+003,1.278743e-004
3.359444e+003,1.076087e-004
3.361373e+003,2.215728e-004
3.363302e+003,3.165007e-004
3.365230e+003,4.075468e-004
3.367158e+003,4.076436e-004
3.369087e+003,2.379194e-004
3.371015e+003,1.291558e-004
3.372944e+003,2.100989e-004
3.374872e+003,2.569929e-004
3.376801e+003,1.974702e-004
3.378729e+003,1.322478e-004
3.380658e+003,1.888722e-005
3.382586e+003,6.823242e-005
3.384515e+003,2.456382e-004
3.386443e+003,1.835749e-004
3.388372e+003,5.290657e-005
3.390300e+003,2.058595e-005
3.392229e+003,2.089888e-005
3.394157e+003,-1.655445e-004
3.396086e+003,-1.567230e-004
3.398014e+003,-1.846254e-005
3.399943e+003,2.543628e-005
3.401871e+003,8.936226e-005
3.403800e+003,1.063868e-004
3.405728e+003,6.109476e-006
3.407657e+003,-1.177341e-004
3.409585e+003,-2.247468e-004
3.411514e+003,-2.132282e-004
3.413442e+003,-1.703575e-004
3.415371e+003,-2.237186e-004
3.417299e+003,-2.847165e-004
3.419228e+003,-1.144335e-004
3.421156e+003,1.058951e-004
3.423085e+003,4.792213e-005
3.425013e+003,-1.721457e-004
3.426942e+003,-3.385991e-004
3.428870e+003,-3.511608e-004
3.430799e+003,-2.033561e-004
3.432727e+003,-1.955852e-004
3.434656e+003,-2.930760e-004
3.436584e+003,-2.392307e-004
3.438513e+003,-2.332553e-004
3.440441e+003,-3.048852e-004
3.442370e+003,-2.854168e-004
3.444298e+003,-2.977774e-004
3.446227e+003,-1.226887e-004
3.448155e+003,-1.163781e-005
3.450084e+003,-1.849309e-004
3.452012e+003,-2.523512e-004
3.453941e+003,-2.963096e-004
3.455869e+003,-4.099756e-004
3.457798e+003,-5.475506e-004
3.459726e+003,-5.788803e-004
3.461655e+003,-5.043820e-004
3.463583e+003,-4.690513e-004
3.465512e+003,-4.406571e-004
3.467440e+003,-3.647432e-004
3.469369e+003,-5.384758e-004
3.471297e+003,-6.350502e-004
3.473226e+003,-6.378368e-004
3.475154e+003,-7.094592e-004
3.477083e+003,-7.863566e-004
3.479011e+003,-6.705225e-004
3.480940e+003,-4.157946e-004
3.482868e+003,-2.922118e-004
3.484797e+003,-4.510656e-004
3.486725e+003,-5.405396e-004
3.488654e+003,-5.717874e-004
3.490582e+003,-7.874444e-004
3.492511e+003,-8.771271e-004
3.494439e+003,-7.968917e-004
3.496368e+003,-7.666349e-004
3.498296e+003,-9.510219e-004
3.500225e+003,-9.820014e-004
3.502153e+003,-5.001649e-004
3.504082e+003,-2.634749e-004
3.506010e+003,-5.162954e-004
3.507939e+003,-6.069690e-004
3.509867e+003,-4.719496e-004
3.511796e+003,-5.625933e-004
3.513724e+003,-7.881373e-004
3.515653e+003,-8.963794e-004
3.517581e+003,-8.743182e-004
3.519510e+003,-1.054883e-003
3.521438e+003,-1.085863e-003
3.523367e+003,-8.158386e-004
3.525295e+003,-7.079244e-004
3.527224e+003,-6.354526e-004
3.529152e+003,-5.773753e-004
3.531081e+003,-6.455034e-004
3.533009e+003,-9.193644e-004
3.534938e+003,-1.000516e-003
3.536866e+003,-9.507537e-004
3.538795e+003,-1.168385e-003
3.540723e+003,-1.286596e-003
3.542652e+003,-1.199134e-003
3.544580e+003,-6.874800e-004
3.546509e+003,-1.066700e-004
3.548437e+003,-3.111139e-004
3.550366e+003,-7.156581e-004
3.552294e+003,-5.550161e-004
3.554223e+003,-6.990880e-004
3.556151e+003,-9.901226e-004
3.558080e+003,-1.047634e-003
3.560008e+003,-9.226203e-004
3.561937e+003,-1.085125e-003
3.563865e+003,-1.207545e-003
3.565794e+003,-3.106743e-004
3.567722e+003,8.084849e-004
3.569651e+003,1.657605e-004
3.571579e+003,-6.035343e-004
3.573508e+003,-1.003161e-003
3.575436e+003,-1.194656e-003
3.577365e+003,-1.097210e-003
3.579293e+003,-9.241700e-004
3.581222e+003,-1.095906e-003
3.583150e+003,-1.381859e-003
3.585079e+003,-1.362681e-003
3.587007e+003,3.601611e-005
3.588936e+003,7.446036e-004
3.590864e+003,1.741648e-004
3.592793e+003,9.316951e-005
3.594721e+003,5.430803e-004
3.596650e+003,7.136539e-004
3.598578e+003,1.185216e-003
3.600507e+003,1.770124e-003
3.602435e+003,1.586460e-003
3.604364e+003,9.670854e-004
3.606292e+003,6.831363e-004
3.608221e+003,1.274988e-003
3.610149e+003,1.404077e-003
3.612078e+003,1.413986e-003
3.614006e+003,1.410812e-003
3.615935e+003,4.068390e-004
3.617863e+003,1.557320e-004
3.619792e+003,1.293570e-003
3.621720e+003,1.085117e-003
3.623649e+003,2.872199e-005
3.625577e+003,-7.358491e-004
3.627506e+003,-1.447871e-004
3.629434e+003,2.443701e-003
3.631363e+003,1.812160e-003
3.633291e+003,7.628053e-004
3.635220e+003,-1.453608e-005
3.637148e+003,-4.198328e-004
3.639077e+003,-1.566485e-004
3.641005e+003,2.718717e-004
3.642934e+003,-8.889288e-005
3.644862e+003,-9.288043e-004
3.646791e+003,-9.186938e-004
3.648719e+003,1.504011e-003
3.650648e+003,3.311463e-003
3.652576e+003,1.669146e-003
3.654505e+003,5.465895e-004
3.656433e+003,8.332208e-004
3.658362e+003,7.247552e-004
3.660290e+003,2.720952e-004
3.662219e+003,-1.330227e-004
3.664147e+003,-8.123592e-004
3.666076e+003,-1.603983e-003
3.668004e+003,-1.957513e-003
3.669933e+003,-3.990605e-004
3.671861e+003,7.557124e-005
3.673790e+003,-7.013604e-004
3.675718e+003,1.070246e-003
3.677647e+003,1.338013e-003
3.679575e+003,8.433983e-004
3.681504e+003,3.888607e-004
3.683432e+003,-1.522377e-004
3.685361e+003,-6.263182e-004
3.687289e+003,-5.384088e-004
3.689218e+003,1.072705e-003
3.691146e+003,1.716569e-003
3.693075e+003,9.260774e-004
3.695003e+003,2.587736e-004
3.696932e+003,-7.309765e-005
3.698860e+003,-5.080327e-004
3.700789e+003,-2.225637e-004
3.702717e+003,3.082603e-004
3.704646e+003,-6.607175e-005
3.706574e+003,-6.211400e-004
3.708503e+003,-7.542670e-004
3.710431e+003,6.130263e-004
3.712360e+003,2.098374e-003
3.714288e+003,1.475394e-003
3.716217e+003,4.792884e-004
3.718145e+003,2.152547e-004
3.720074e+003,4.842058e-004
3.722002e+003,9.341910e-004
3.723931e+003,8.396804e-004
3.725859e+003,8.414239e-004
3.727788e+003,4.446432e-004
3.729716e+003,-5.066544e-004
3.731645e+003,-1.089878e-003
3.733573e+003,-3.029481e-004
3.735502e+003,1.490690e-003
3.737430e+003,1.413383e-003
3.739359e+003,3.732741e-004
3.741287e+003,-6.236658e-004
3.743216e+003,-7.306114e-004
3.745144e+003,1.444593e-003
3.747073e+003,1.221463e-003
3.749001e+003,7.980689e-004
3.750930e+003,2.240553e-003
3.752858e+003,2.267584e-003
3.754787e+003,1.171641e-003
3.756715e+003,6.324351e-004
3.758644e+003,1.054779e-003
3.760572e+003,1.295283e-003
3.762501e+003,6.562471e-004
3.764429e+003,4.711822e-004
3.766358e+003,4.163533e-004
3.768286e+003,2.393797e-004
3.770215e+003,1.140580e-003
3.772143e+003,1.110002e-003
3.774072e+003,3.594235e-004
3.776000e+003,-1.080334e-005
3.777929e+003,3.948137e-004
3.779857e+003,1.184255e-003
3.781786e+003,9.542778e-004
3.783714e+003,6.115213e-004
3.785643e+003,8.548945e-004
3.787571e+003,6.432906e-004
3.789500e+003,2.126023e-004
3.791428e+003,1.018420e-004
3.793357e+003,-3.155842e-004
3.795285e+003,-1.445487e-004
3.797214e+003,5.700216e-004
3.799142e+003,5.212426e-005
3.801071e+003,1.020208e-003
3.802999e+003,1.703732e-003
3.804927e+003,8.464232e-004
3.806856e+003,1.668498e-003
3.808785e+003,1.784571e-003
3.810713e+003,8.353218e-004
3.812642e+003,2.016127e-005
3.814570e+003,-6.523728e-005
3.816499e+003,1.326576e-003
3.818427e+003,1.155399e-003
3.820355e+003,1.484372e-003
3.822284e+003,2.598673e-003
3.824213e+003,1.653552e-003
3.826141e+003,1.448438e-003
3.828070e+003,1.285784e-003
3.829998e+003,8.112267e-004
3.831927e+003,1.173511e-003
3.833855e+003,1.203530e-003
3.835783e+003,1.085579e-003
3.837712e+003,1.922213e-003
3.839641e+003,2.774686e-003
3.841569e+003,2.387479e-003
3.843498e+003,2.426356e-003
3.845426e+003,2.010532e-003
3.847354e+003,1.150221e-003
3.849283e+003,3.545806e-004
3.851211e+003,-8.854270e-005
3.853140e+003,2.354674e-003
3.855069e+003,4.258372e-003
3.856997e+003,2.933674e-003
3.858926e+003,1.345664e-003
3.860854e+003,1.054496e-003
3.862782e+003,1.820557e-003
3.864711e+003,2.909534e-003
3.866640e+003,1.836427e-003
3.868568e+003,1.183070e-003
3.870497e+003,2.504818e-003
3.872425e+003,2.497181e-003
3.874354e+003,2.743810e-003
3.876282e+003,1.971602e-003
3.878210e+003,7.776320e-004
3.880139e+003,1.418754e-003
3.882068e+003,1.965545e-003
3.883996e+003,1.666546e-003
3.885925e+003,2.356812e-003
3.887853e+003,1.513712e-003
3.889781e+003,8.430034e-004
3.891710e+003,1.884542e-003
3.893638e+003,2.114214e-003
3.895567e+003,1.302525e-003
3.897496e+003,9.684488e-004
3.899424e+003,1.429714e-003
3.901353e+003,2.196468e-003
3.903281e+003,3.142595e-003
3.905209e+003,3.487729e-003
3.907138e+003,2.544910e-003
3.909066e+003,1.724117e-003
3.910995e+003,1.497835e-003
3.912924e+003,1.328073e-003
3.914852e+003,1.365930e-003
3.916781e+003,1.825325e-003
3.918709e+003,1.931086e-003
3.920637e+003,1.583979e-003
3.922566e+003,1.561657e-003
3.924494e+003,2.092659e-003
3.926423e+003,1.963966e-003
3.928352e+003,1.520529e-003
3.930280e+003,1.576297e-003
3.932208e+003,2.136581e-003
3.934137e+003,2.004214e-003
3.936065e+003,1.443081e-003
3.937994e+003,1.210712e-003
3.939922e+003,1.091197e-003
3.941851e+003,1.488924e-003
3.943780e+003,1.631826e-003
3.945708e+003,1.215704e-003
3.947636e+003,1.327775e-003
3.949565e+003,1.564361e-003
3.951493e+003,1.478359e-003
3.953422e+003,1.413345e-003
3.955351e+003,1.510315e-003
3.957279e+003,1.484551e-003
3.959208e+003,1.302481e-003
3.961136e+003,1.339637e-003
3.963064e+003,1.453720e-003
3.964993e+003,1.242094e-003
3.966921e+003,1.027249e-003
3.968850e+003,1.024663e-003
3.970779e+003,1.165889e-003
3.972707e+003,1.363195e-003
3.974635e+003,1.455583e-003
3.976564e+003,1.407340e-003
3.978492e+003,1.232505e-003
3.980421e+003,1.198247e-003
3.982349e+003,1.295872e-003
3.984278e+003,1.273535e-003
3.986207e+003,1.121916e-003
3.988135e+003,1.181014e-003
3.990063e+003,1.425736e-003
3.991992e+003,1.500756e-003
3.993920e+003,1.640849e-003
3.995849e+003,1.653410e-003
3.997777e+003,1.550101e-003
3.999706e+003,1.456849e-003
4.001635e+003,0.000000e+000
