3.991992e+002,0.000000e+000
4.011277e+002,0.000000e+000
4.030562e+002,0.000000e+000
4.049846e+002,0.000000e+000
4.069131e+002,0.000000e+000
4.088416e+002,0.000000e+000
4.107701e+002,0.000000e+000
4.126986e+002,0.000000e+000
4.146271e+002,0.000000e+000
4.165556e+002,0.000000e+000
4.184841e+002,0.000000e+000
4.204126e+002,0.000000e+000
4.223411e+002,0.000000e+000
4.242697e+002,0.000000e+000
4.261982e+002,0.000000e+000
4.281266e+002,0.000000e+000
4.300551e+002,0.000000e+000
4.319836e+002,0.000000e+000
4.339121e+002,0.000000e+000
4.358406e+002,0.000000e+000
4.377691e+002,0.000000e+000
4.396976e+002,0.000000e+000
4.416261e+002,0.000000e+000
4.435546e+002,0.000000e+000
4.454831e+002,0.000000e+000
4.474116e+002,0.000000e+000
4.493401e+002,0.000000e+000
4.512686e+002,0.000000e+000
4.531971e+002,0.000000e+000
4.551256e+002,0.000000e+000
4.570541e+002,0.000000e+000
4.589826e+002,0.000000e+000
4.609111e+002,0.000000e+000
4.628396e+002,0.000000e+000
4.647681e+002,0.000000e+000
4.666966e+002,0.000000e+000
4.686251e+002,0.000000e+000
4.705536e+002,0.000000e+000
4.724821e+002,0.000000e+000
4.744106e+002,0.000000e+000
4.763391e+002,0.000000e+000
4.782676e+002,0.000000e+000
4.801961e+002,0.000000e+000
4.821246e+002,0.000000e+000
4.840531e+002,0.000000e+000
4.859816e+002,0.000000e+000
4.879101e+002,0.000000e+000
4.898386e+002,0.000000e+000
4.917671e+002,0.000000e+000
4.936956e+002,0.000000e+000
4.956241e+002,0.000000e+000
4.975526e+002,0.000000e+000
4.994811e+002,0.000000e+000
5.014096e+002,0.000000e+000
5.033381e+002,0.000000e+000
5.052666e+002,0.000000e+000
5.071951e+002,0.000000e+000
5.091236e+002,0.000000e+000
5.110521e+002,0.000000e+000
5.129806e+002,0.000000e+000
5.149091e+002,0.000000e+000
5.168376e+002,0.000000e+000
5.187661e+002,0.000000e+000
5.206946e+002,0.000000e+000
5.226230e+002,0.000000e+000
5.245516e+002,-7.107761e-005
5.264800e+002,-1.245495e-004
5.284086e+002,-9.397417e-005
5.303370e+002,-9.820703e-005
5.322656e+002,-9.582844e-005
5.341940e+002,-2.010316e-004
5.361226e+002,-1.567835e-004
5.380510e+002,-2.151355e-007
5.399796e+002,-1.366716e-005
5.419081e+002,-1.587393e-004
5.438365e+002,-5.525816e-005
5.457650e+002,6.715767e-005
5.476935e+002,6.304402e-005
5.496221e+002,-7.374957e-005
5.515505e+002,-1.498172e-004
5.534790e+002,-3.860332e-006
5.554075e+002,1.715515e-004
5.573361e+002,4.840922e-005
5.592645e+002,7.589348e-006
5.611931e+002,5.935319e-005
5.631215e+002,5.335361e-005
5.650500e+002,7.027574e-005
5.669785e+002,1.381077e-004
5.689070e+002,3.128033e-005
5.708355e+002,-1.179883e-004
5.727640e+002,-3.032675e-004
5.746925e+002,-2.630232e-004
5.766210e+002,-1.741350e-004
5.785495e+002,-1.569018e-004
5.804780e+002,-2.163928e-004
5.824065e+002,-2.016146e-004
5.843350e+002,-1.350436e-004
5.862635e+002,-9.354949e-005
5.881920e+002,-2.628518e-004
5.901205e+002,-2.492797e-004
5.920490e+002,-2.382668e-004
5.939775e+002,-1.732027e-004
5.959060e+002,-1.302995e-004
5.978345e+002,-1.228331e-004
5.997630e+002,-7.363409e-005
6.016915e+002,-1.045829e-004
6.036200e+002,-9.318348e-005
6.055485e+002,2.386980e-006
6.074770e+002,-6.742124e-005
6.094055e+002,-5.851872e-005
6.113340e+002,-9.152107e-005
6.132625e+002,-1.322255e-004
6.151910e+002,-1.818361e-004
6.171195e+002,-1.297239e-004
6.190480e+002,-2.105664e-004
6.209765e+002,-1.939945e-004
6.229050e+002,-1.447042e-004
6.248335e+002,-5.940162e-005
6.267620e+002,6.056391e-006
6.286905e+002,1.518922e-004
6.306190e+002,2.201851e-004
6.325475e+002,2.527023e-004
6.344760e+002,2.308562e-004
6.364045e+002,2.005929e-004
6.383330e+002,2.514524e-004
6.402615e+002,3.799060e-004
6.421899e+002,4.563862e-004
6.441185e+002,4.896540e-004
6.460470e+002,4.551616e-004
6.479755e+002,5.302522e-004
6.499039e+002,5.799299e-004
6.518325e+002,5.501220e-004
6.537610e+002,4.060175e-004
6.556895e+002,4.803995e-004
6.576179e+002,5.535763e-004
6.595464e+002,6.100126e-004
6.614750e+002,7.091481e-004
6.634034e+002,8.182209e-004
6.653319e+002,8.030403e-004
6.672604e+002,7.661181e-004
6.691890e+002,8.718828e-004
6.711174e+002,1.039594e-003
6.730460e+002,1.079265e-003
6.749745e+002,1.123634e-003
6.769030e+002,1.313517e-003
6.788314e+002,1.574523e-003
6.807599e+002,1.675155e-003
6.826885e+002,1.821714e-003
6.846169e+002,1.963025e-003
6.865454e+002,2.218300e-003
6.884739e+002,2.436616e-003
6.904025e+002,2.678329e-003
6.923309e+002,2.952104e-003
6.942594e+002,3.447337e-003
6.961879e+002,3.927140e-003
6.981165e+002,4.652189e-003
7.000449e+002,5.589450e-003
7.019734e+002,6.824926e-003
7.039019e+002,8.332407e-003
7.058304e+002,1.047283e-002
7.077589e+002,1.343927e-002
7.096874e+002,1.796952e-002
7.116159e+002,2.540145e-002
7.135444e+002,3.984337e-002
7.154729e+002,6.504261e-002
7.174014e+002,9.622539e-002
7.193299e+002,1.088917e-001
7.212584e+002,8.426432e-002
7.231869e+002,5.837604e-002
7.251154e+002,4.936657e-002
7.270439e+002,5.436017e-002
7.289724e+002,6.833322e-002
7.309009e+002,6.242421e-002
7.328294e+002,3.590246e-002
7.347579e+002,1.923584e-002
7.366864e+002,1.321833e-002
7.386149e+002,1.056472e-002
7.405434e+002,8.869871e-003
7.424719e+002,7.752463e-003
7.444004e+002,6.930511e-003
7.463289e+002,6.325560e-003
7.482574e+002,5.802622e-003
7.501859e+002,5.466571e-003
7.521144e+002,5.176578e-003
7.540428e+002,4.920781e-003
7.559714e+002,4.661418e-003
7.578999e+002,4.437756e-003
7.598284e+002,4.253810e-003
7.617568e+002,4.163120e-003
7.636854e+002,4.074419e-003
7.656139e+002,4.015133e-003
7.675424e+002,3.931740e-003
7.694709e+002,3.877964e-003
7.713994e+002,3.802093e-003
7.733279e+002,3.694426e-003
7.752563e+002,3.550449e-003
7.771849e+002,3.456065e-003
7.791134e+002,3.360668e-003
7.810419e+002,3.226727e-003
7.829703e+002,3.093574e-003
7.848989e+002,3.005031e-003
7.868274e+002,3.028715e-003
7.887559e+002,3.015462e-003
7.906843e+002,2.914742e-003
7.926129e+002,2.872199e-003
7.945414e+002,2.851645e-003
7.964698e+002,2.852270e-003
7.983983e+002,2.866887e-003
8.003268e+002,2.794985e-003
8.022554e+002,2.802819e-003
8.041838e+002,2.849083e-003
8.061123e+002,2.774067e-003
8.080408e+002,2.704201e-003
8.099694e+002,2.623113e-003
8.118978e+002,2.542617e-003
8.138263e+002,2.471874e-003
8.157548e+002,2.441000e-003
8.176833e+002,2.424087e-003
8.196118e+002,2.377138e-003
8.215403e+002,2.334008e-003
8.234689e+002,2.254527e-003
8.253973e+002,2.179245e-003
8.273258e+002,2.133451e-003
8.292543e+002,2.136664e-003
8.311829e+002,2.065856e-003
8.331113e+002,1.968859e-003
8.350398e+002,1.905130e-003
8.369683e+002,1.920212e-003
8.388969e+002,1.992729e-003
8.408253e+002,2.093218e-003
8.427538e+002,2.087707e-003
8.446823e+002,2.088664e-003
8.466108e+002,2.095049e-003
8.485393e+002,2.073869e-003
8.504678e+002,2.106724e-003
8.523963e+002,2.124591e-003
8.543248e+002,2.111178e-003
8.562533e+002,2.120581e-003
8.581818e+002,2.159782e-003
8.601103e+002,2.177630e-003
8.620388e+002,2.167519e-003
8.639673e+002,2.226772e-003
8.658958e+002,2.213297e-003
8.678243e+002,2.221448e-003
8.697528e+002,2.239402e-003
8.716813e+002,2.307609e-003
8.736098e+002,2.329847e-003
8.755383e+002,2.406079e-003
8.774668e+002,2.509441e-003
8.793953e+002,2.599763e-003
8.813238e+002,2.697192e-003
8.832523e+002,2.929399e-003
8.851808e+002,3.198173e-003
8.871093e+002,3.423197e-003
8.890378e+002,3.385447e-003
8.909663e+002,3.263306e-003
8.928948e+002,3.047602e-003
8.948232e+002,2.890687e-003
8.967518e+002,2.823016e-003
8.986803e+002,2.760381e-003
9.006088e+002,2.706420e-003
9.025372e+002,2.744226e-003
9.044658e+002,2.856672e-003
9.063943e+002,3.127998e-003
9.083228e+002,3.264688e-003
9.102512e+002,3.145082e-003
9.121797e+002,2.871303e-003
9.141083e+002,2.725050e-003
9.160367e+002,2.574125e-003
9.179653e+002,2.480553e-003
9.198937e+002,2.456183e-003
9.218223e+002,2.448665e-003
9.237507e+002,2.457432e-003
9.256793e+002,2.464158e-003
9.276077e+002,2.398457e-003
9.295363e+002,2.471209e-003
9.314647e+002,2.530864e-003
9.333932e+002,2.533423e-003
9.353217e+002,2.497345e-003
9.372502e+002,2.465507e-003
9.391787e+002,2.444440e-003
9.411072e+002,2.470773e-003
9.430358e+002,2.479261e-003
9.449642e+002,2.514226e-003
9.468928e+002,2.480846e-003
9.488212e+002,2.448337e-003
9.507498e+002,2.494438e-003
9.526782e+002,2.596093e-003
9.546068e+002,2.565892e-003
9.565352e+002,2.590880e-003
9.584637e+002,2.676660e-003
9.603922e+002,2.833050e-003
9.623207e+002,2.990777e-003
9.642492e+002,3.035245e-003
9.661777e+002,2.981538e-003
9.681062e+002,2.993301e-003
9.700347e+002,2.971673e-003
9.719632e+002,2.900112e-003
9.738917e+002,2.822857e-003
9.758202e+002,2.796851e-003
9.777487e+002,2.775827e-003
9.796772e+002,2.847182e-003
9.816057e+002,2.861720e-003
9.835342e+002,2.886171e-003
9.854627e+002,2.932148e-003
9.873912e+002,3.018897e-003
9.893197e+002,3.054438e-003
9.912482e+002,3.141381e-003
9.931767e+002,3.150169e-003
9.951052e+002,3.178248e-003
9.970337e+002,3.176685e-003
9.989622e+002,3.234381e-003
1.000891e+003,3.284182e-003
1.002819e+003,3.407894e-003
1.004748e+003,3.481327e-003
1.006676e+003,3.544254e-003
1.008605e+003,3.589757e-003
1.010533e+003,3.737275e-003
1.012462e+003,3.841292e-003
1.014390e+003,3.920894e-003
1.016319e+003,4.003773e-003
1.018247e+003,4.100027e-003
1.020176e+003,4.071271e-003
1.022104e+003,4.108161e-003
1.024033e+003,4.115287e-003
1.025961e+003,4.131377e-003
1.027890e+003,4.167348e-003
1.029818e+003,4.244749e-003
1.031747e+003,4.288802e-003
1.033675e+003,4.364384e-003
1.035604e+003,4.402040e-003
1.037532e+003,4.418006e-003
1.039461e+003,4.396738e-003
1.041389e+003,4.494574e-003
1.043318e+003,4.519738e-003
1.045246e+003,4.542135e-003
1.047175e+003,4.627066e-003
1.049103e+003,4.871592e-003
1.051032e+003,4.959319e-003
1.052960e+003,4.985010e-003
1.054889e+003,5.025299e-003
1.056817e+003,5.127680e-003
1.058746e+003,5.215509e-003
1.060674e+003,5.403351e-003
1.062603e+003,5.510844e-003
1.064531e+003,5.580395e-003
1.066460e+003,5.613824e-003
1.068388e+003,5.690809e-003
1.070317e+003,5.752390e-003
1.072245e+003,5.909378e-003
1.074174e+003,6.076887e-003
1.076102e+003,6.328348e-003
1.078031e+003,6.497407e-003
1.079959e+003,6.691441e-003
1.081888e+003,6.746130e-003
1.083816e+003,6.764913e-003
1.085745e+003,6.813785e-003
1.087673e+003,6.883748e-003
1.089602e+003,6.845353e-003
1.091530e+003,6.799566e-003
1.093459e+003,6.702330e-003
1.095387e+003,6.647874e-003
1.097316e+003,6.540982e-003
1.099244e+003,6.440494e-003
1.101173e+003,6.315935e-003
1.103101e+003,6.248672e-003
1.105030e+003,6.087033e-003
1.106958e+003,5.978370e-003
1.108887e+003,5.866092e-003
1.110815e+003,5.847050e-003
1.112744e+003,5.866699e-003
1.114672e+003,5.962932e-003
1.116601e+003,5.990945e-003
1.118529e+003,6.028557e-003
1.120458e+003,5.981412e-003
1.122386e+003,5.874017e-003
1.124315e+003,5.730633e-003
1.126243e+003,5.712112e-003
1.128172e+003,5.720768e-003
1.130100e+003,5.821103e-003
1.132029e+003,5.934643e-003
1.133957e+003,6.181445e-003
1.135885e+003,6.449001e-003
1.137814e+003,6.760586e-003
1.139743e+003,6.988714e-003
1.141671e+003,7.278673e-003
1.143600e+003,7.549232e-003
1.145528e+003,7.801071e-003
1.147457e+003,8.036066e-003
1.149385e+003,8.359419e-003
1.151314e+003,8.672312e-003
1.153242e+003,9.035917e-003
1.155171e+003,9.346973e-003
1.157099e+003,9.665033e-003
1.159028e+003,9.814056e-003
1.160956e+003,9.925760e-003
1.162885e+003,9.928862e-003
1.164813e+003,9.824414e-003
1.166742e+003,9.569172e-003
1.168670e+003,9.297885e-003
1.170599e+003,8.961886e-003
1.172527e+003,8.652946e-003
1.174456e+003,8.324733e-003
1.176384e+003,8.111250e-003
1.178313e+003,7.785702e-003
1.180241e+003,7.464269e-003
1.182170e+003,7.186607e-003
1.184098e+003,7.037563e-003
1.186027e+003,6.837601e-003
1.187955e+003,6.714376e-003
1.189884e+003,6.596478e-003
1.191812e+003,6.590506e-003
1.193740e+003,6.586725e-003
1.195669e+003,6.618015e-003
1.197598e+003,6.597517e-003
1.199526e+003,6.623155e-003
1.201455e+003,6.640118e-003
1.203383e+003,6.733963e-003
1.205312e+003,6.853130e-003
1.207240e+003,7.039534e-003
1.209168e+003,7.193148e-003
1.211097e+003,7.428607e-003
1.213026e+003,7.595319e-003
1.214954e+003,7.805618e-003
1.216883e+003,7.970620e-003
1.218811e+003,8.180616e-003
1.220740e+003,8.388203e-003
1.222668e+003,8.621618e-003
1.224596e+003,8.771826e-003
1.226525e+003,8.978846e-003
1.228453e+003,9.116177e-003
1.230382e+003,9.302652e-003
1.232311e+003,9.438748e-003
1.234239e+003,9.587720e-003
1.236167e+003,9.609224e-003
1.238096e+003,9.669105e-003
1.240025e+003,9.638973e-003
1.241953e+003,9.575019e-003
1.243882e+003,9.416806e-003
1.245810e+003,9.240398e-003
1.247739e+003,8.949134e-003
1.249667e+003,8.766688e-003
1.251595e+003,8.636251e-003
1.253524e+003,8.606227e-003
1.255453e+003,8.571258e-003
1.257381e+003,8.618036e-003
1.259310e+003,8.603986e-003
1.261238e+003,8.607594e-003
1.263167e+003,8.438626e-003
1.265095e+003,8.239456e-003
1.267023e+003,7.971922e-003
1.268952e+003,7.874787e-003
1.270880e+003,7.811701e-003
1.272809e+003,7.831026e-003
1.274738e+003,7.825477e-003
1.276666e+003,7.949116e-003
1.278594e+003,8.005191e-003
1.280523e+003,8.111849e-003
1.282451e+003,8.172072e-003
1.284380e+003,8.344613e-003
1.286308e+003,8.498041e-003
1.288237e+003,8.761263e-003
1.290166e+003,8.989094e-003
1.292094e+003,9.367360e-003
1.294022e+003,9.750027e-003
1.295951e+003,1.018335e-002
1.297879e+003,1.046290e-002
1.299808e+003,1.071156e-002
1.301736e+003,1.078551e-002
1.303665e+003,1.085333e-002
1.305594e+003,1.077072e-002
1.307522e+003,1.067599e-002
1.309450e+003,1.037795e-002
1.311379e+003,1.011470e-002
1.313307e+003,9.722251e-003
1.315236e+003,9.334194e-003
1.317164e+003,8.908112e-003
1.319093e+003,8.549385e-003
1.321021e+003,8.025751e-003
1.322950e+003,7.728169e-003
1.324878e+003,7.494291e-003
1.326807e+003,7.386586e-003
1.328735e+003,7.290062e-003
1.330664e+003,7.421272e-003
1.332592e+003,7.651171e-003
1.334521e+003,8.197315e-003
1.336449e+003,8.927746e-003
1.338378e+003,9.956721e-003
1.340306e+003,1.065503e-002
1.342235e+003,1.098949e-002
1.344163e+003,1.137843e-002
1.346092e+003,1.207764e-002
1.348021e+003,1.274112e-002
1.349949e+003,1.345053e-002
1.351877e+003,1.375938e-002
1.353806e+003,1.383581e-002
1.355734e+003,1.365665e-002
1.357663e+003,1.373445e-002
1.359591e+003,1.412081e-002
1.361520e+003,1.511880e-002
1.363448e+003,1.634428e-002
1.365377e+003,1.739153e-002
1.367305e+003,1.834161e-002
1.369234e+003,1.885912e-002
1.371162e+003,1.856265e-002
1.373091e+003,1.902865e-002
1.375019e+003,2.115420e-002
1.376948e+003,2.269336e-002
1.378876e+003,2.097971e-002
1.380805e+003,1.635779e-002
1.382733e+003,1.181287e-002
1.384662e+003,9.248646e-003
1.386590e+003,7.890584e-003
1.388519e+003,7.085821e-003
1.390447e+003,6.368026e-003
1.392376e+003,6.191816e-003
1.394304e+003,6.158657e-003
1.396233e+003,6.356655e-003
1.398161e+003,6.233368e-003
1.400090e+003,6.294567e-003
1.402018e+003,6.003158e-003
1.403947e+003,6.217789e-003
1.405875e+003,6.174807e-003
1.407804e+003,6.279584e-003
1.409732e+003,6.348457e-003
1.411661e+003,6.805517e-003
1.413589e+003,6.919717e-003
1.415518e+003,7.459914e-003
1.417446e+003,7.858843e-003
1.419375e+003,8.780403e-003
1.421303e+003,8.913919e-003
1.423232e+003,9.886401e-003
1.425160e+003,1.123563e-002
1.427089e+003,1.320565e-002
1.429017e+003,1.591624e-002
1.430946e+003,1.990521e-002
1.432874e+003,2.297409e-002
1.434803e+003,2.603485e-002
1.436731e+003,2.955101e-002
1.438660e+003,3.262128e-002
1.440588e+003,3.428259e-002
1.442517e+003,3.674480e-002
1.444445e+003,3.872806e-002
1.446374e+003,4.174645e-002
1.448302e+003,4.591206e-002
1.450231e+003,5.196957e-002
1.452159e+003,6.090516e-002
1.454088e+003,7.235064e-002
1.456016e+003,8.364826e-002
1.457945e+003,1.069754e-001
1.459873e+003,1.444701e-001
1.461802e+003,1.865127e-001
1.463730e+003,1.942349e-001
1.465659e+003,1.595519e-001
1.467587e+003,1.471155e-001
1.469516e+003,1.456126e-001
1.471444e+003,1.631746e-001
1.473373e+003,1.389104e-001
1.475301e+003,7.564911e-002
1.477230e+003,3.493458e-002
1.479158e+003,2.270933e-002
1.481087e+003,1.674440e-002
1.483015e+003,1.385007e-002
1.484944e+003,1.147690e-002
1.486872e+003,1.092730e-002
1.488801e+003,9.784963e-003
1.490729e+003,9.519275e-003
1.492658e+003,7.919170e-003
1.494586e+003,7.689085e-003
1.496515e+003,7.044993e-003
1.498443e+003,7.153910e-003
1.500372e+003,6.270358e-003
1.502300e+003,6.071959e-003
1.504229e+003,5.351601e-003
1.506157e+003,6.255828e-003
1.508086e+003,6.241439e-003
1.510014e+003,5.992705e-003
1.511943e+003,5.058059e-003
1.513871e+003,5.073164e-003
1.515800e+003,4.991308e-003
1.517728e+003,5.267248e-003
1.519657e+003,4.806617e-003
1.521585e+003,5.479533e-003
1.523514e+003,4.780095e-003
1.525442e+003,4.866546e-003
1.527371e+003,4.442774e-003
1.529299e+003,4.308831e-003
1.531228e+003,4.011827e-003
1.533156e+003,4.480742e-003
1.535085e+003,4.084975e-003
1.537013e+003,3.978243e-003
1.538942e+003,4.012443e-003
1.540870e+003,5.579334e-003
1.542799e+003,4.888833e-003
1.544727e+003,4.481589e-003
1.546656e+003,3.555816e-003
1.548584e+003,3.635114e-003
1.550513e+003,3.655693e-003
1.552441e+003,3.543304e-003
1.554370e+003,3.371602e-003
1.556298e+003,3.551397e-003
1.558227e+003,3.637830e-003
1.560155e+003,4.218752e-003
1.562084e+003,3.307015e-003
1.564012e+003,3.085723e-003
1.565941e+003,2.848947e-003
1.567869e+003,3.016984e-003
1.569798e+003,3.184145e-003
1.571726e+003,3.021277e-003
1.573655e+003,2.723720e-003
1.575583e+003,3.140301e-003
1.577512e+003,3.207261e-003
1.579440e+003,2.945136e-003
1.581369e+003,2.669785e-003
1.583297e+003,2.650503e-003
1.585226e+003,2.556194e-003
1.587154e+003,2.682289e-003
1.589083e+003,2.648793e-003
1.591011e+003,2.737992e-003
1.592940e+003,2.638878e-003
1.594868e+003,2.730399e-003
1.596797e+003,2.628233e-003
1.598725e+003,2.607903e-003
1.600654e+003,2.526246e-003
1.602582e+003,2.627816e-003
1.604511e+003,2.471022e-003
1.606439e+003,2.547445e-003
1.608368e+003,2.565838e-003
1.610296e+003,2.551591e-003
1.612225e+003,2.373841e-003
1.614153e+003,2.505595e-003
1.616082e+003,2.815692e-003
1.618010e+003,3.100660e-003
1.619939e+003,2.740718e-003
1.621867e+003,2.772860e-003
1.623796e+003,2.847074e-003
1.625724e+003,2.894778e-003
1.627653e+003,2.935413e-003
1.629581e+003,2.925992e-003
1.631510e+003,2.641084e-003
1.633438e+003,2.666032e-003
1.635367e+003,3.151836e-003
1.637295e+003,3.691906e-003
1.639224e+003,3.271136e-003
1.641152e+003,3.023606e-003
1.643081e+003,2.810707e-003
1.645009e+003,3.088275e-003
1.646938e+003,3.777264e-003
1.648866e+003,3.574871e-003
1.650795e+003,2.976196e-003
1.652723e+003,3.606545e-003
1.654652e+003,3.851939e-003
1.656580e+003,3.263341e-003
1.658509e+003,2.698438e-003
1.660437e+003,2.592843e-003
1.662366e+003,2.709417e-003
1.664294e+003,2.611509e-003
1.666223e+003,2.285367e-003
1.668151e+003,2.544630e-003
1.670080e+003,2.715919e-003
1.672008e+003,2.421923e-003
1.673937e+003,2.108330e-003
1.675865e+003,2.333568e-003
1.677794e+003,2.152817e-003
1.679722e+003,2.272729e-003
1.681651e+003,2.195289e-003
1.683579e+003,2.507335e-003
1.685508e+003,2.483957e-003
1.687436e+003,2.258381e-003
1.689365e+003,1.973959e-003
1.691293e+003,1.758602e-003
1.693222e+003,1.496328e-003
1.695150e+003,1.777092e-003
1.697079e+003,2.215141e-003
1.699007e+003,2.264831e-003
1.700936e+003,2.365071e-003
1.702864e+003,2.301030e-003
1.704793e+003,2.219478e-003
1.706721e+003,2.386956e-003
1.708650e+003,2.225181e-003
1.710578e+003,2.243541e-003
1.712507e+003,2.233407e-003
1.714435e+003,2.721621e-003
1.716364e+003,3.166463e-003
1.718292e+003,3.525192e-003
1.720221e+003,3.127610e-003
1.722149e+003,3.041562e-003
1.724078e+003,3.037998e-003
1.726006e+003,3.059605e-003
1.727935e+003,3.167428e-003
1.729863e+003,3.838032e-003
1.731792e+003,4.338689e-003
1.733720e+003,5.691618e-003
1.735649e+003,6.632730e-003
1.737577e+003,7.118750e-003
1.739506e+003,8.536384e-003
1.741434e+003,1.034096e-002
1.743363e+003,1.192264e-002
1.745291e+003,1.313695e-002
1.747220e+003,1.374494e-002
1.749148e+003,1.373473e-002
1.751077e+003,1.230670e-002
1.753005e+003,1.016316e-002
1.754934e+003,8.362718e-003
1.756862e+003,6.502483e-003
1.758791e+003,4.742514e-003
1.760719e+003,3.793921e-003
1.762648e+003,2.824575e-003
1.764576e+003,2.081256e-003
1.766505e+003,1.674727e-003
1.768433e+003,1.558229e-003
1.770362e+003,1.415450e-003
1.772290e+003,1.755875e-003
1.774219e+003,1.377594e-003
1.776147e+003,9.712726e-004
1.778076e+003,6.354414e-004
1.780004e+003,6.995723e-004
1.781933e+003,5.725734e-004
1.783861e+003,5.245917e-004
1.785790e+003,4.016422e-004
1.787718e+003,3.077127e-004
1.789646e+003,2.805442e-004
1.791575e+003,6.993711e-004
1.793504e+003,7.067621e-004
1.795432e+003,5.792230e-004
1.797361e+003,3.386959e-004
1.799289e+003,3.877170e-004
1.801218e+003,4.646033e-004
1.803146e+003,4.082359e-004
1.805074e+003,1.134947e-004
1.807003e+003,6.274506e-005
1.808932e+003,7.327646e-006
1.810860e+003,1.129061e-004
1.812789e+003,-2.330877e-004
1.814717e+003,-6.475784e-004
1.816646e+003,-8.541048e-004
1.818574e+003,-5.027875e-004
1.820502e+003,-4.181005e-004
1.822431e+003,-3.916845e-004
1.824360e+003,-4.011802e-004
1.826288e+003,-2.559721e-004
1.828217e+003,-2.424382e-004
1.830145e+003,-2.006441e-005
1.832073e+003,-5.545244e-004
1.834002e+003,-7.694699e-004
1.835931e+003,-8.136779e-004
1.837859e+003,-6.559193e-004
1.839788e+003,-8.856133e-004
1.841716e+003,-8.748099e-004
1.843645e+003,-7.750541e-004
1.845573e+003,-6.256588e-004
1.847501e+003,-8.928403e-004
1.849430e+003,-7.943399e-004
1.851359e+003,-9.385161e-004
1.853287e+003,-8.967258e-004
1.855216e+003,-9.929799e-004
1.857144e+003,-9.125397e-004
1.859073e+003,-1.148295e-003
1.861001e+003,-1.155887e-003
1.862929e+003,-1.407877e-003
1.864858e+003,-1.366183e-003
1.866787e+003,-1.229569e-003
1.868715e+003,-6.466657e-004
1.870644e+003,-8.375943e-004
1.872572e+003,-1.001038e-003
1.874500e+003,-1.292136e-003
1.876429e+003,-1.187634e-003
1.878357e+003,-1.298647e-003
1.880286e+003,-1.281813e-003
1.882215e+003,-1.407035e-003
1.884143e+003,-1.288671e-003
1.886072e+003,-1.558274e-003
1.888000e+003,-1.256842e-003
1.889928e+003,-7.861108e-004
1.891857e+003,-2.961941e-004
1.893785e+003,-1.504496e-004
1.895714e+003,5.559251e-005
1.897643e+003,-4.041865e-004
1.899571e+003,-3.800727e-004
1.901500e+003,-3.770143e-004
1.903428e+003,-3.739633e-004
1.905356e+003,-3.709234e-004
1.907285e+003,-3.678873e-004
1.909213e+003,-3.648698e-004
1.911142e+003,-3.618561e-004
1.913071e+003,-3.588572e-004
1.914999e+003,-3.558621e-004
1.916927e+003,-3.528856e-004
1.918856e+003,-3.499128e-004
1.920784e+003,-3.469586e-004
1.922713e+003,-3.440082e-004
1.924641e+003,-3.410652e-004
1.926570e+003,-3.381297e-004
1.928499e+003,-3.352091e-004
1.930427e+003,-3.322959e-004
1.932355e+003,-3.294013e-004
1.934284e+003,-3.265068e-004
1.936212e+003,-3.236271e-004
1.938141e+003,-3.207587e-004
1.940070e+003,-3.178902e-004
1.941998e+003,-3.150441e-004
1.943927e+003,-3.122054e-004
1.945855e+003,-3.093742e-004
1.947783e+003,-3.065504e-004
1.949712e+003,-3.037415e-004
1.951640e+003,-3.009401e-004
1.953569e+003,-2.981536e-004
1.955498e+003,-2.953671e-004
1.957426e+003,-2.925955e-004
1.959354e+003,-2.898350e-004
1.961283e+003,-2.870858e-004
1.963211e+003,-2.843440e-004
1.965140e+003,-2.816133e-004
1.967068e+003,-2.788939e-004
1.968997e+003,-2.761856e-004
1.970926e+003,-2.734810e-004
1.972854e+003,-2.707914e-004
1.974782e+003,-2.681129e-004
1.976711e+003,-2.654418e-004
1.978639e+003,-2.627820e-004
1.980568e+003,-2.601258e-004
1.982496e+003,-2.574921e-004
1.984425e+003,-2.548620e-004
1.986354e+003,-2.522394e-004
1.988282e+003,-2.496243e-004
1.990210e+003,-2.470277e-004
1.992139e+003,-2.444349e-004
1.994067e+003,-2.418607e-004
1.995996e+003,-2.392828e-004
1.997924e+003,-2.367273e-004
1.999853e+003,-2.341717e-004
2.001781e+003,-2.316348e-004
2.003710e+003,-2.291016e-004
2.005638e+003,-2.265871e-004
2.007567e+003,-2.240725e-004
2.009495e+003,-2.215728e-004
2.011424e+003,-2.190806e-004
2.013352e+003,-2.165958e-004
2.015281e+003,-2.141260e-004
2.017209e+003,-2.116710e-004
2.019138e+003,-2.092235e-004
2.021066e+003,-2.067760e-004
2.022995e+003,-2.043471e-004
2.024923e+003,-2.019294e-004
2.026852e+003,-1.995116e-004
2.028781e+003,-1.971126e-004
2.030709e+003,-1.947246e-004
2.032637e+003,-1.923442e-004
2.034566e+003,-1.899749e-004
2.036494e+003,-1.876131e-004
2.038423e+003,-1.852624e-004
2.040351e+003,-1.829229e-004
2.042280e+003,-1.805946e-004
2.044208e+003,-1.782738e-004
2.046137e+003,-1.759641e-004
2.048065e+003,-1.736656e-004
2.049994e+003,-1.713745e-004
2.051922e+003,-1.690909e-004
2.053851e+003,-1.668185e-004
2.055779e+003,-1.645610e-004
2.057708e+003,-1.623109e-004
2.059636e+003,-1.600720e-004
2.061565e+003,-1.578405e-004
2.063493e+003,-1.556240e-004
2.065422e+003,-1.534149e-004
2.067350e+003,-1.512095e-004
2.069279e+003,-1.490191e-004
2.071207e+003,-1.468360e-004
2.073136e+003,-1.446716e-004
2.075064e+003,-1.425110e-004
2.076993e+003,-1.403578e-004
2.078921e+003,-1.382194e-004
2.080850e+003,-1.360886e-004
2.082778e+003,-1.339763e-004
2.084707e+003,-1.318529e-004
2.086635e+003,-1.297556e-004
2.088564e+003,-1.276657e-004
2.090492e+003,-1.255870e-004
2.092421e+003,-1.235195e-004
2.094349e+003,-1.214594e-004
2.096278e+003,-1.194105e-004
2.098206e+003,-1.173690e-004
2.100135e+003,-1.153387e-004
2.102063e+003,-1.133159e-004
2.103992e+003,-1.113079e-004
2.105920e+003,-1.093075e-004
2.107849e+003,-1.073144e-004
2.109777e+003,-1.053363e-004
2.111706e+003,-1.033694e-004
2.113634e+003,-1.014099e-004
2.115563e+003,-9.946153e-005
2.117491e+003,-9.751692e-005
2.119420e+003,-9.558722e-005
2.121348e+003,-9.366870e-005
2.123277e+003,-9.176135e-005
2.125205e+003,-8.985773e-005
2.127134e+003,-8.796901e-005
2.129062e+003,-8.608773e-005
2.130991e+003,-8.422136e-005
2.132919e+003,-8.235872e-005
2.134848e+003,-8.051097e-005
2.136776e+003,-7.867068e-005
2.138705e+003,-7.684156e-005
2.140633e+003,-7.502362e-005
2.142562e+003,-7.320568e-005
2.144490e+003,-7.141009e-005
2.146419e+003,-6.961823e-005
2.148347e+003,-6.783754e-005
2.150276e+003,-6.606802e-005
2.152204e+003,-6.430969e-005
2.154133e+003,-6.255880e-005
2.156061e+003,-6.081909e-005
2.157990e+003,-5.908683e-005
2.159918e+003,-5.736947e-005
2.161847e+003,-5.565956e-005
2.163775e+003,-5.396083e-005
2.165704e+003,-5.227700e-005
2.167632e+003,-5.059317e-005
2.169561e+003,-4.892424e-005
2.171489e+003,-4.726648e-005
2.173418e+003,-4.561245e-005
2.175346e+003,-4.397333e-005
2.177275e+003,-4.234537e-005
2.179203e+003,-4.072487e-005
2.181132e+003,-3.911555e-005
2.183060e+003,-3.751740e-005
2.184989e+003,-3.592670e-005
2.186917e+003,-3.434718e-005
2.188846e+003,-3.277510e-005
2.190774e+003,-3.121793e-005
2.192703e+003,-2.966821e-005
2.194631e+003,-2.812967e-005
2.196560e+003,-2.660230e-005
2.198488e+003,-2.507865e-005
2.200417e+003,-2.356619e-005
2.202345e+003,-2.206862e-005
2.204274e+003,-2.057850e-005
2.206202e+003,-1.909584e-005
2.208131e+003,-1.762807e-005
2.210059e+003,-1.617521e-005
2.211988e+003,-1.472607e-005
2.213916e+003,-1.328439e-005
2.215845e+003,-1.185387e-005
2.217773e+003,-1.043454e-005
2.219702e+003,-9.026378e-006
2.221630e+003,-7.621944e-006
2.223559e+003,-6.236136e-006
2.225487e+003,-4.857779e-006
2.227416e+003,-3.486872e-006
2.229344e+003,-2.127141e-006
2.231273e+003,-7.748604e-007
2.233201e+003,5.625188e-007
2.235130e+003,1.892447e-006
2.237058e+003,3.211200e-006
2.238987e+003,4.518777e-006
2.240915e+003,5.818903e-006
2.242844e+003,7.100403e-006
2.244772e+003,8.393079e-006
2.246701e+003,9.659678e-006
2.248629e+003,1.091883e-005
2.250558e+003,1.216680e-005
2.252486e+003,1.340359e-005
2.254415e+003,1.463667e-005
2.256343e+003,1.585484e-005
2.258272e+003,1.706183e-005
2.260200e+003,1.825765e-005
2.262129e+003,1.945719e-005
2.264057e+003,2.063066e-005
2.265986e+003,2.180040e-005
2.267914e+003,2.295524e-005
2.269843e+003,2.411008e-005
2.271771e+003,2.524629e-005
2.273700e+003,2.637506e-005
2.275628e+003,2.750009e-005
2.277557e+003,2.860278e-005
2.279485e+003,2.970546e-005
2.281414e+003,3.079325e-005
2.283342e+003,3.186986e-005
2.285271e+003,3.294274e-005
2.287199e+003,3.400072e-005
2.289128e+003,3.505126e-005
2.291056e+003,3.608689e-005
2.292985e+003,3.711507e-005
2.294913e+003,3.813952e-005
2.296842e+003,3.914535e-005
2.298770e+003,4.014373e-005
2.300699e+003,4.113093e-005
2.302627e+003,4.211813e-005
2.304556e+003,4.308671e-005
2.306484e+003,4.404411e-005
2.308413e+003,4.499033e-005
2.310341e+003,4.593283e-005
2.312270e+003,4.686043e-005
2.314198e+003,4.777312e-005
2.316127e+003,4.868209e-005
2.318055e+003,4.957989e-005
2.319984e+003,5.047396e-005
2.321912e+003,5.135313e-005
2.323841e+003,5.222112e-005
2.325769e+003,5.308166e-005
2.327698e+003,5.393103e-005
2.329626e+003,5.476922e-005
2.331555e+003,5.559251e-005
2.333483e+003,5.641207e-005
2.335412e+003,5.722418e-005
2.337340e+003,5.802512e-005
2.339269e+003,5.881116e-005
2.341197e+003,5.959347e-005
2.343126e+003,6.036088e-005
2.345054e+003,6.111711e-005
2.346983e+003,6.186962e-005
2.348911e+003,6.260723e-005
2.350840e+003,6.333739e-005
2.352768e+003,6.405637e-005
2.354697e+003,6.476417e-005
2.356625e+003,6.546080e-005
2.358554e+003,6.614998e-005
2.360482e+003,6.682798e-005
2.362411e+003,6.749481e-005
2.364339e+003,6.815791e-005
2.366268e+003,6.880984e-005
2.368196e+003,6.944314e-005
2.370125e+003,7.006899e-005
2.372053e+003,7.069111e-005
2.373982e+003,7.129833e-005
2.375910e+003,7.189810e-005
2.377839e+003,7.249415e-005
2.379767e+003,7.306784e-005
2.381696e+003,7.363036e-005
2.383624e+003,7.419288e-005
2.385553e+003,7.474050e-005
2.387481e+003,7.527694e-005
2.389410e+003,7.580593e-005
2.391338e+003,7.633120e-005
2.393267e+003,7.683784e-005
2.395195e+003,7.733330e-005
2.397124e+003,7.782131e-005
2.399052e+003,7.829815e-005
2.400981e+003,1.928322e-004
2.402909e+003,2.393574e-004
2.404838e+003,2.305768e-004
2.406766e+003,2.307668e-004
2.408695e+003,4.571453e-004
2.410623e+003,6.896742e-004
2.412552e+003,7.709898e-004
2.414480e+003,6.499998e-004
2.416409e+003,7.253066e-004
2.418337e+003,6.716624e-004
2.420266e+003,5.622730e-004
2.422194e+003,4.848838e-004
2.424123e+003,4.964657e-004
2.426051e+003,5.017668e-004
2.427979e+003,5.655997e-004
2.429908e+003,5.783476e-004
2.431837e+003,5.589053e-004
2.433765e+003,5.519725e-004
2.435694e+003,6.144196e-004
2.437622e+003,6.141625e-004
2.439551e+003,4.616268e-004
2.441479e+003,2.580397e-004
2.443407e+003,3.326759e-004
2.445336e+003,5.865172e-004
2.447265e+003,6.511323e-004
2.449193e+003,6.164797e-004
2.451122e+003,7.076561e-004
2.453050e+003,7.373020e-004
2.454979e+003,7.770844e-004
2.456907e+003,7.265024e-004
2.458836e+003,6.946363e-004
2.460764e+003,6.712228e-004
2.462693e+003,7.478483e-004
2.464621e+003,7.979199e-004
2.466550e+003,7.801503e-004
2.468478e+003,7.848851e-004
2.470406e+003,8.655116e-004
2.472335e+003,9.570383e-004
2.474264e+003,1.123533e-003
2.476192e+003,1.217049e-003
2.478121e+003,1.173325e-003
2.480049e+003,9.351708e-004
2.481978e+003,9.968579e-004
2.483906e+003,1.183882e-003
2.485835e+003,1.242165e-003
2.487763e+003,1.082819e-003
2.489692e+003,1.085356e-003
2.491620e+003,1.183167e-003
2.493549e+003,1.217529e-003
2.495477e+003,1.197107e-003
2.497406e+003,1.113303e-003
2.499334e+003,1.126740e-003
2.501263e+003,1.246154e-003
2.503191e+003,1.318444e-003
2.505120e+003,1.316193e-003
2.507048e+003,1.271244e-003
2.508977e+003,1.488209e-003
2.510905e+003,1.612719e-003
2.512833e+003,1.612328e-003
2.514762e+003,1.797717e-003
2.516691e+003,1.965988e-003
2.518619e+003,1.860041e-003
2.520548e+003,1.987766e-003
2.522476e+003,2.214331e-003
2.524405e+003,2.495870e-003
2.526333e+003,2.679761e-003
2.528261e+003,2.676360e-003
2.530190e+003,2.452180e-003
2.532119e+003,2.406731e-003
2.534047e+003,2.475347e-003
2.535976e+003,2.427019e-003
2.537904e+003,2.399813e-003
2.539833e+003,2.558142e-003
2.541761e+003,2.733372e-003
2.543689e+003,2.920192e-003
2.545618e+003,3.010504e-003
2.547547e+003,3.178403e-003
2.549475e+003,3.281165e-003
2.551404e+003,3.304541e-003
2.553332e+003,3.278010e-003
2.555260e+003,3.329583e-003
2.557189e+003,3.467780e-003
2.559117e+003,3.661226e-003
2.561046e+003,3.626056e-003
2.562975e+003,3.581669e-003
2.564903e+003,3.628295e-003
2.566832e+003,3.858678e-003
2.568760e+003,4.065923e-003
2.570688e+003,4.330795e-003
2.572617e+003,4.598957e-003
2.574546e+003,4.637957e-003
2.576474e+003,4.884981e-003
2.578403e+003,5.234517e-003
2.580331e+003,5.321845e-003
2.582260e+003,5.446967e-003
2.584188e+003,5.543649e-003
2.586116e+003,5.693398e-003
2.588045e+003,5.937826e-003
2.589974e+003,6.156817e-003
2.591902e+003,6.378330e-003
2.593831e+003,6.619789e-003
2.595759e+003,6.904431e-003
2.597688e+003,7.136147e-003
2.599616e+003,7.215001e-003
2.601544e+003,7.317957e-003
2.603473e+003,7.530514e-003
2.605402e+003,7.885922e-003
2.607330e+003,8.222420e-003
2.609259e+003,8.552961e-003
2.611187e+003,8.890621e-003
2.613115e+003,9.174123e-003
2.615044e+003,9.425920e-003
2.616972e+003,9.735711e-003
2.618901e+003,1.004978e-002
2.620830e+003,1.040864e-002
2.622758e+003,1.081216e-002
2.624687e+003,1.123289e-002
2.626615e+003,1.172538e-002
2.628543e+003,1.224966e-002
2.630472e+003,1.260277e-002
2.632400e+003,1.284318e-002
2.634329e+003,1.312091e-002
2.636258e+003,1.325303e-002
2.638186e+003,1.323398e-002
2.640115e+003,1.323003e-002
2.642043e+003,1.325832e-002
2.643971e+003,1.328394e-002
2.645900e+003,1.332050e-002
2.647828e+003,1.334117e-002
2.649757e+003,1.340347e-002
2.651686e+003,1.349989e-002
2.653614e+003,1.363803e-002
2.655542e+003,1.379775e-002
2.657471e+003,1.386571e-002
2.659399e+003,1.382916e-002
2.661328e+003,1.369251e-002
2.663256e+003,1.347033e-002
2.665185e+003,1.330593e-002
2.667114e+003,1.320594e-002
2.669042e+003,1.305697e-002
2.670970e+003,1.289033e-002
2.672899e+003,1.268468e-002
2.674827e+003,1.252681e-002
2.676756e+003,1.236890e-002
2.678685e+003,1.226789e-002
2.680613e+003,1.218084e-002
2.682542e+003,1.205178e-002
2.684470e+003,1.187789e-002
2.686398e+003,1.171389e-002
2.688327e+003,1.157369e-002
2.690255e+003,1.148019e-002
2.692184e+003,1.136285e-002
2.694113e+003,1.120009e-002
2.696041e+003,1.113199e-002
2.697969e+003,1.120251e-002
2.699898e+003,1.128669e-002
2.701826e+003,1.142343e-002
2.703755e+003,1.159786e-002
2.705683e+003,1.180175e-002
2.707612e+003,1.195563e-002
2.709541e+003,1.206893e-002
2.711469e+003,1.222776e-002
2.713397e+003,1.237792e-002
2.715326e+003,1.254271e-002
2.717254e+003,1.280244e-002
2.719183e+003,1.299508e-002
2.721111e+003,1.313995e-002
2.723040e+003,1.342951e-002
2.724969e+003,1.374688e-002
2.726897e+003,1.404426e-002
2.728825e+003,1.433905e-002
2.730754e+003,1.453315e-002
2.732682e+003,1.469129e-002
2.734611e+003,1.480550e-002
2.736539e+003,1.489401e-002
2.738468e+003,1.499574e-002
2.740396e+003,1.509705e-002
2.742325e+003,1.516293e-002
2.744253e+003,1.513547e-002
2.746182e+003,1.499532e-002
2.748110e+003,1.491098e-002
2.750039e+003,1.495691e-002
2.751967e+003,1.510226e-002
2.753896e+003,1.527885e-002
2.755824e+003,1.554232e-002
2.757753e+003,1.583769e-002
2.759681e+003,1.622389e-002
2.761610e+003,1.662293e-002
2.763538e+003,1.696776e-002
2.765467e+003,1.737117e-002
2.767395e+003,1.785618e-002
2.769324e+003,1.835322e-002
2.771252e+003,1.891587e-002
2.773181e+003,1.965549e-002
2.775109e+003,2.054680e-002
2.777038e+003,2.139619e-002
2.778966e+003,2.230076e-002
2.780895e+003,2.335021e-002
2.782823e+003,2.446894e-002
2.784752e+003,2.570905e-002
2.786680e+003,2.706900e-002
2.788609e+003,2.855673e-002
2.790537e+003,3.018005e-002
2.792466e+003,3.189629e-002
2.794394e+003,3.361764e-002
2.796323e+003,3.542620e-002
2.798251e+003,3.726728e-002
2.800180e+003,3.931015e-002
2.802108e+003,4.142966e-002
2.804037e+003,4.359940e-002
2.805965e+003,4.603880e-002
2.807894e+003,4.878606e-002
2.809822e+003,5.181984e-002
2.811751e+003,5.520038e-002
2.813679e+003,5.896093e-002
2.815608e+003,6.334203e-002
2.817536e+003,6.846716e-002
2.819465e+003,7.440254e-002
2.821393e+003,8.139454e-002
2.823322e+003,8.992393e-002
2.825250e+003,1.004963e-001
2.827179e+003,1.138616e-001
2.829107e+003,1.312268e-001
2.831036e+003,1.544020e-001
2.832964e+003,1.863830e-001
2.834893e+003,2.317884e-001
2.836821e+003,2.969226e-001
2.838750e+003,3.917849e-001
2.840678e+003,5.321344e-001
2.842607e+003,7.380285e-001
2.844535e+003,1.018323e+000
2.846464e+003,1.304115e+000
2.848392e+003,1.364270e+000
2.850321e+003,1.127414e+000
2.852249e+003,8.422362e-001
2.854178e+003,6.341679e-001
2.856106e+003,4.915630e-001
2.858035e+003,3.904907e-001
2.859963e+003,3.179060e-001
2.861892e+003,2.668552e-001
2.863820e+003,2.325835e-001
2.865749e+003,2.117672e-001
2.867677e+003,2.015787e-001
2.869606e+003,1.985776e-001
2.871534e+003,1.993628e-001
2.873463e+003,2.029855e-001
2.875391e+003,2.110128e-001
2.877320e+003,2.250455e-001
2.879248e+003,2.451065e-001
2.881177e+003,2.701713e-001
2.883105e+003,2.992838e-001
2.885034e+003,3.320789e-001
2.886962e+003,3.677737e-001
2.888891e+003,4.054998e-001
2.890819e+003,4.442813e-001
2.892748e+003,4.831791e-001
2.894676e+003,5.220003e-001
2.896605e+003,5.615594e-001
2.898533e+003,6.033700e-001
2.900462e+003,6.503060e-001
2.902390e+003,7.066215e-001
2.904319e+003,7.791706e-001
2.906247e+003,8.772503e-001
2.908176e+003,1.010750e+000
2.910104e+003,1.185427e+000
2.912033e+003,1.385014e+000
2.913961e+003,1.542057e+000
2.915890e+003,1.558418e+000
2.917818e+003,1.418580e+000
2.919747e+003,1.214409e+000
2.921675e+003,1.020231e+000
2.923604e+003,8.582317e-001
2.925532e+003,7.274127e-001
2.927461e+003,6.201949e-001
2.929389e+003,5.297654e-001
2.931318e+003,4.521576e-001
2.933246e+003,3.852318e-001
2.935175e+003,3.277138e-001
2.937103e+003,2.784093e-001
2.939032e+003,2.364303e-001
2.940960e+003,2.012978e-001
2.942889e+003,1.727867e-001
2.944817e+003,1.509476e-001
2.946746e+003,1.354792e-001
2.948674e+003,1.258308e-001
2.950603e+003,1.204779e-001
2.952531e+003,1.171079e-001
2.954460e+003,1.137478e-001
2.956388e+003,1.094863e-001
2.958317e+003,1.039536e-001
2.960245e+003,9.727009e-002
2.962174e+003,8.955540e-002
2.964102e+003,8.098939e-002
2.966031e+003,7.218049e-002
2.967959e+003,6.371012e-002
2.969888e+003,5.599822e-002
2.971816e+003,4.925403e-002
2.973745e+003,4.344369e-002
2.975673e+003,3.856802e-002
2.977602e+003,3.454144e-002
2.979530e+003,3.124831e-002
2.981459e+003,2.849693e-002
2.983387e+003,2.629154e-002
2.985316e+003,2.443236e-002
2.987244e+003,2.281475e-002
2.989173e+003,2.141230e-002
2.991101e+003,2.028431e-002
2.993030e+003,1.938150e-002
2.994958e+003,1.857211e-002
2.996887e+003,1.786470e-002
2.998815e+003,1.729310e-002
3.000744e+003,1.681651e-002
3.002672e+003,1.642017e-002
3.004601e+003,1.593681e-002
3.006529e+003,1.542056e-002
3.008458e+003,1.495945e-002
3.010386e+003,1.447524e-002
3.012315e+003,1.393833e-002
3.014243e+003,1.335932e-002
3.016172e+003,1.279298e-002
3.018100e+003,1.231999e-002
3.020029e+003,1.194251e-002
3.021957e+003,1.159460e-002
3.023886e+003,1.121983e-002
3.025814e+003,1.089399e-002
3.027743e+003,1.054319e-002
3.029671e+003,1.016477e-002
3.031600e+003,9.915974e-003
3.033528e+003,9.656537e-003
3.035457e+003,9.285934e-003
3.037385e+003,8.909147e-003
3.039314e+003,8.526471e-003
3.041242e+003,8.139171e-003
3.043171e+003,7.831030e-003
3.045099e+003,7.569209e-003
3.047028e+003,7.371556e-003
3.048956e+003,7.118300e-003
3.050885e+003,6.801721e-003
3.052813e+003,6.504659e-003
3.054742e+003,6.244671e-003
3.056670e+003,6.090440e-003
3.058599e+003,5.958240e-003
3.060527e+003,5.803127e-003
3.062456e+003,5.695831e-003
3.064384e+003,5.599894e-003
3.066313e+003,5.429678e-003
3.068241e+003,5.216829e-003
3.070170e+003,4.994903e-003
3.072098e+003,4.870337e-003
3.074027e+003,4.762497e-003
3.075955e+003,4.694272e-003
3.077884e+003,4.625194e-003
3.079812e+003,4.495498e-003
3.081741e+003,4.317284e-003
3.083669e+003,4.122920e-003
3.085598e+003,3.952641e-003
3.087526e+003,3.825884e-003
3.089455e+003,3.496993e-003
3.091383e+003,3.135476e-003
3.093312e+003,2.982173e-003
3.095240e+003,2.831265e-003
3.097169e+003,2.532184e-003
3.099097e+003,2.251167e-003
3.101026e+003,2.039604e-003
3.102954e+003,1.805216e-003
3.104883e+003,1.569718e-003
3.106811e+003,1.402102e-003
3.108740e+003,1.328733e-003
3.110668e+003,1.201283e-003
3.112597e+003,1.119833e-003
3.114525e+003,1.055751e-003
3.116454e+003,9.486340e-004
3.118382e+003,8.204393e-004
3.120311e+003,7.541105e-004
3.122239e+003,7.212237e-004
3.124168e+003,6.258674e-004
3.126096e+003,5.818233e-004
3.128025e+003,6.449297e-004
3.129953e+003,6.692186e-004
3.131882e+003,6.230362e-004
3.133810e+003,5.134195e-004
3.135739e+003,4.743673e-004
3.137667e+003,4.151538e-004
3.139596e+003,2.931505e-004
3.141524e+003,2.871528e-004
3.143453e+003,3.317520e-004
3.145381e+003,2.916828e-004
3.147310e+003,2.960190e-004
3.149238e+003,2.602339e-004
3.151167e+003,1.269951e-004
3.153095e+003,7.369742e-005
3.155024e+003,6.250292e-005
3.156952e+003,1.577288e-004
3.158881e+003,1.878925e-004
3.160809e+003,1.950078e-004
3.162738e+003,2.282895e-004
3.164666e+003,2.126396e-004
3.166594e+003,1.727566e-004
3.168523e+003,1.484938e-004
3.170452e+003,5.658343e-005
3.172380e+003,5.758554e-005
3.174309e+003,1.295693e-004
3.176237e+003,1.596361e-004
3.178166e+003,2.006292e-004
3.180094e+003,2.033748e-004
3.182022e+003,1.371503e-004
3.183951e+003,1.317859e-004
3.185880e+003,1.296215e-004
3.187808e+003,1.180731e-004
3.189737e+003,2.024584e-004
3.191665e+003,2.536997e-004
3.193594e+003,1.451150e-004
3.195522e+003,3.717840e-005
3.197450e+003,3.106147e-005
3.199379e+003,6.546453e-005
3.201308e+003,8.183345e-005
3.203236e+003,1.151115e-005
3.205165e+003,-6.577000e-005
3.207093e+003,-1.730025e-004
3.209021e+003,-1.696274e-004
3.210950e+003,-7.010996e-005
3.212878e+003,1.451001e-005
3.214807e+003,-6.034970e-006
3.216736e+003,-1.371801e-004
3.218664e+003,-1.069382e-004
3.220593e+003,-6.283820e-005
3.222521e+003,-1.076944e-004
3.224449e+003,-1.134276e-004
3.226378e+003,-2.324954e-005
3.228307e+003,-2.123788e-005
3.230235e+003,-8.488074e-005
3.232164e+003,-1.639128e-004
3.234092e+003,-1.869611e-004
3.236021e+003,-1.019426e-004
3.237949e+003,-1.411885e-005
3.239877e+003,-1.300499e-005
3.241806e+003,-9.416416e-005
3.243735e+003,-6.043911e-005
3.245663e+003,4.446134e-005
3.247592e+003,1.266226e-005
3.249520e+003,-1.278631e-004
3.251448e+003,-1.443997e-004
3.253377e+003,-2.083555e-005
3.255305e+003,-2.235174e-008
3.257234e+003,3.885478e-005
3.259163e+003,1.875684e-005
3.261091e+003,3.702193e-005
3.263020e+003,1.242273e-004
3.264948e+003,1.815856e-004
3.266876e+003,1.745149e-004
3.268805e+003,1.371130e-004
3.270733e+003,1.081564e-004
3.272662e+003,1.462474e-004
3.274591e+003,1.678243e-004
3.276519e+003,8.618087e-005
3.278448e+003,1.036599e-004
3.280376e+003,1.802146e-004
3.282304e+003,1.670793e-004
3.284233e+003,1.505092e-004
3.286161e+003,1.549646e-004
3.288090e+003,2.057701e-004
3.290019e+003,1.195744e-004
3.291947e+003,1.323372e-004
3.293875e+003,3.210008e-004
3.295804e+003,2.800152e-004
3.297732e+003,2.610311e-004
3.299661e+003,3.005192e-004
3.301589e+003,2.374873e-004
3.303518e+003,1.884624e-004
3.305447e+003,1.663864e-004
3.307375e+003,1.834556e-004
3.309303e+003,2.938285e-004
3.311232e+003,2.970994e-004
3.313160e+003,3.098026e-004
3.315089e+003,3.477633e-004
3.317018e+003,4.019663e-004
3.318946e+003,3.632456e-004
3.320875e+003,2.945662e-004
3.322803e+003,3.699884e-004
3.324731e+003,4.217848e-004
3.326660e+003,4.258230e-004
3.328588e+003,4.213452e-004
3.330517e+003,3.641322e-004
3.332446e+003,3.429726e-004
3.334374e+003,3.973246e-004
3.336302e+003,4.740357e-004
3.338231e+003,4.681647e-004
3.340159e+003,3.648698e-004
3.342088e+003,3.776625e-004
3.344016e+003,3.960505e-004
3.345945e+003,4.056245e-004
3.347874e+003,5.126297e-004
3.349802e+003,5.677789e-004
3.351730e+003,5.166382e-004
3.353659e+003,4.441664e-004
3.355587e+003,4.901811e-004
3.357516e+003,5.549639e-004
3.359444e+003,5.423203e-004
3.361373e+003,6.147847e-004
3.363302e+003,7.408187e-004
3.365230e+003,8.715466e-004
3.367158e+003,8.587986e-004
3.369087e+003,7.406399e-004
3.371015e+003,5.770251e-004
3.372944e+003,5.361512e-004
3.374872e+003,5.936995e-004
3.376801e+003,6.454363e-004
3.378729e+003,5.990267e-004
3.380658e+003,4.653037e-004
3.382586e+003,4.976019e-004
3.384515e+003,6.627887e-004
3.386443e+003,6.521717e-004
3.388372e+003,5.363598e-004
3.390300e+003,4.585907e-004
3.392229e+003,4.157573e-004
3.394157e+003,2.855062e-004
3.396086e+003,3.629774e-004
3.398014e+003,4.571304e-004
3.399943e+003,5.206838e-004
3.401871e+003,6.065592e-004
3.403800e+003,5.510151e-004
3.405728e+003,3.786087e-004
3.407657e+003,2.855659e-004
3.409585e+003,1.403615e-004
3.411514e+003,1.763627e-004
3.413442e+003,2.671406e-004
3.415371e+003,1.236796e-004
3.417299e+003,2.218783e-005
3.419228e+003,3.070384e-004
3.421156e+003,5.389154e-004
3.423085e+003,3.838465e-004
3.425013e+003,2.335981e-004
3.426942e+003,1.864731e-004
3.428870e+003,2.172068e-004
3.430799e+003,2.961010e-004
3.432727e+003,2.675802e-004
3.434656e+003,1.248196e-004
3.436584e+003,1.028553e-004
3.438513e+003,1.908913e-004
3.440441e+003,2.317280e-004
3.442370e+003,2.346858e-004
3.444298e+003,1.807287e-004
3.446227e+003,4.120544e-004
3.448155e+003,4.813001e-004
3.450084e+003,1.885593e-004
3.452012e+003,1.389906e-004
3.453941e+003,1.479909e-004
3.455869e+003,-9.626150e-006
3.457798e+003,-1.428649e-004
3.459726e+003,-1.545027e-004
3.461655e+003,-9.506196e-005
3.463583e+003,-1.011789e-004
3.465512e+003,-9.745359e-005
3.467440e+003,-1.134202e-004
3.469369e+003,-2.718121e-004
3.471297e+003,-2.785251e-004
3.473226e+003,-2.498850e-004
3.475154e+003,-3.715307e-004
3.477083e+003,-5.256981e-004
3.479011e+003,-3.896877e-004
3.480940e+003,-1.543015e-004
3.482868e+003,-7.787347e-005
3.484797e+003,-3.615171e-004
3.486725e+003,-4.127622e-004
3.488654e+003,-4.082546e-004
3.490582e+003,-5.409271e-004
3.492511e+003,-6.166771e-004
3.494439e+003,-6.292090e-004
3.496368e+003,-6.389767e-004
3.498296e+003,-8.148253e-004
3.500225e+003,-7.693395e-004
3.502153e+003,-3.454164e-004
3.504082e+003,-2.472997e-004
3.506010e+003,-5.849674e-004
3.507939e+003,-5.862489e-004
3.509867e+003,-4.235804e-004
3.511796e+003,-5.623400e-004
3.513724e+003,-6.928444e-004
3.515653e+003,-8.753240e-004
3.517581e+003,-9.529069e-004
3.519510e+003,-1.019731e-003
3.521438e+003,-9.412840e-004
3.523367e+003,-5.894899e-004
3.525295e+003,-5.425811e-004
3.527224e+003,-5.022213e-004
3.529152e+003,-5.248860e-004
3.531081e+003,-7.591099e-004
3.533009e+003,-1.099117e-003
3.534938e+003,-1.129843e-003
3.536866e+003,-9.513423e-004
3.538795e+003,-1.237474e-003
3.540723e+003,-1.524359e-003
3.542652e+003,-1.463301e-003
3.544580e+003,-7.823631e-004
3.546509e+003,-1.840293e-004
3.548437e+003,-5.254820e-004
3.550366e+003,-8.854344e-004
3.552294e+003,-6.558150e-004
3.554223e+003,-9.743646e-004
3.556151e+003,-1.266852e-003
3.558080e+003,-1.181118e-003
3.560008e+003,-9.954646e-004
3.561937e+003,-1.163162e-003
3.563865e+003,-1.174100e-003
3.565794e+003,-2.026930e-004
3.567722e+003,8.518547e-004
3.569651e+003,2.610683e-005
3.571579e+003,-8.766577e-004
3.573508e+003,-1.273617e-003
3.575436e+003,-1.382440e-003
3.577365e+003,-1.301408e-003
3.579293e+003,-1.102187e-003
3.581222e+003,-1.326524e-003
3.583150e+003,-1.724087e-003
3.585079e+003,-1.741737e-003
3.587007e+003,-2.328008e-004
3.588936e+003,5.241111e-004
3.590864e+003,-2.140701e-004
3.592793e+003,-2.681687e-004
3.594721e+003,2.832562e-004
3.596650e+003,4.626662e-004
3.598578e+003,8.349270e-004
3.600507e+003,1.421303e-003
3.602435e+003,1.263812e-003
3.604364e+003,5.949512e-004
3.606292e+003,3.356785e-004
3.608221e+003,9.399876e-004
3.610149e+003,9.799451e-004
3.612078e+003,8.302182e-004
3.614006e+003,8.535981e-004
3.615935e+003,-8.475035e-005
3.617863e+003,-2.290532e-004
3.619792e+003,7.676557e-004
3.621720e+003,4.460514e-004
3.623649e+003,-5.102456e-004
3.625577e+003,-1.068667e-003
3.627506e+003,-5.582944e-004
3.629434e+003,1.796298e-003
3.631363e+003,1.014374e-003
3.633291e+003,-9.094924e-005
3.635220e+003,-7.351786e-004
3.637148e+003,-1.074933e-003
3.639077e+003,-8.306429e-004
3.641005e+003,-3.717691e-004
3.642934e+003,-6.242543e-004
3.644862e+003,-1.500972e-003
3.646791e+003,-1.392201e-003
3.648719e+003,1.038469e-003
3.650648e+003,2.757512e-003
3.652576e+003,9.666905e-004
3.654505e+003,-2.692640e-004
3.656433e+003,1.493171e-004
3.658362e+003,1.663566e-004
3.660290e+003,-3.484264e-004
3.662219e+003,-9.342507e-004
3.664147e+003,-1.763143e-003
3.666076e+003,-2.498880e-003
3.668004e+003,-2.642378e-003
3.669933e+003,-9.422600e-004
3.671861e+003,-4.589707e-004
3.673790e+003,-1.223907e-003
3.675718e+003,5.780235e-004
3.677647e+003,6.415173e-004
3.679575e+003,6.350130e-005
3.681504e+003,-3.892928e-004
3.683432e+003,-8.092597e-004
3.685361e+003,-1.291201e-003
3.687289e+003,-1.434438e-003
3.689218e+003,-3.422052e-005
3.691146e+003,7.979050e-004
3.693075e+003,1.695007e-004
3.695003e+003,-5.613714e-004
3.696932e+003,-9.792373e-004
3.698860e+003,-1.387425e-003
3.700789e+003,-1.139358e-003
3.702717e+003,-6.834567e-004
3.704646e+003,-9.274706e-004
3.706574e+003,-1.336910e-003
3.708503e+003,-1.229949e-003
3.710431e+003,2.278090e-004
3.712360e+003,1.383193e-003
3.714288e+003,6.124899e-004
3.716217e+003,-3.944486e-004
3.718145e+003,-6.108060e-004
3.720074e+003,-4.849136e-004
3.722002e+003,4.512072e-005
3.723931e+003,7.924438e-005
3.725859e+003,2.377480e-005
3.727788e+003,-4.925579e-004
3.729716e+003,-1.302890e-003
3.731645e+003,-1.527771e-003
3.733573e+003,-5.875900e-004
3.735502e+003,9.337440e-004
3.737430e+003,5.570948e-004
3.739359e+003,-3.303662e-004
3.741287e+003,-1.073137e-003
3.743216e+003,-1.048543e-003
3.745144e+003,1.310460e-003
3.747073e+003,8.246750e-004
3.749001e+003,2.799258e-004
3.750930e+003,1.844898e-003
3.752858e+003,1.876198e-003
3.754787e+003,6.552786e-004
3.756715e+003,3.003329e-005
3.758644e+003,2.369508e-004
3.760572e+003,3.364086e-004
3.762501e+003,-3.428012e-004
3.764429e+003,-3.003255e-004
3.766358e+003,-1.975149e-004
3.768286e+003,-4.720241e-004
3.770215e+003,4.468411e-004
3.772143e+003,2.298206e-004
3.774072e+003,-4.963651e-004
3.776000e+003,-7.935315e-004
3.777929e+003,-6.194860e-004
3.779857e+003,1.421124e-004
3.781786e+003,6.459653e-006
3.783714e+003,-2.571940e-004
3.785643e+003,-7.116795e-005
3.787571e+003,-2.122447e-004
3.789500e+003,-5.782917e-004
3.791428e+003,-7.628277e-004
3.793357e+003,-1.156487e-003
3.795285e+003,-1.168169e-003
3.797214e+003,-5.363822e-004
3.799142e+003,-7.723570e-004
3.801071e+003,6.238818e-004
3.802999e+003,1.059435e-003
3.804927e+003,-3.192574e-005
3.806856e+003,7.919520e-004
3.808785e+003,7.502884e-004
3.810713e+003,-1.330897e-004
3.812642e+003,-6.705299e-004
3.814570e+003,-6.793886e-004
3.816499e+003,5.494356e-004
3.818427e+003,3.230795e-004
3.820355e+003,9.114593e-004
3.822284e+003,1.951501e-003
3.824213e+003,9.408742e-004
3.826141e+003,6.551519e-004
3.828070e+003,2.093613e-004
3.829998e+003,-2.879947e-004
3.831927e+003,5.981326e-005
3.833855e+003,2.405420e-004
3.835783e+003,6.109029e-004
3.837712e+003,1.474366e-003
3.839641e+003,1.885042e-003
3.841569e+003,1.385294e-003
3.843498e+003,1.257740e-003
3.845426e+003,7.386804e-004
3.847354e+003,2.755225e-005
3.849283e+003,-4.124939e-004
3.851211e+003,-7.841289e-004
3.853140e+003,1.525953e-003
3.855069e+003,3.048003e-003
3.856997e+003,1.628198e-003
3.858926e+003,1.339018e-004
3.860854e+003,-1.741201e-005
3.862782e+003,7.848963e-004
3.864711e+003,1.892075e-003
3.866640e+003,1.012668e-003
3.868568e+003,3.869236e-004
3.870497e+003,1.636222e-003
3.872425e+003,1.524702e-003
3.874354e+003,1.791984e-003
3.876282e+003,9.056702e-004
3.878210e+003,-2.088696e-004
3.880139e+003,4.922971e-004
3.882068e+003,9.405687e-004
3.883996e+003,7.005334e-004
3.885925e+003,1.277231e-003
3.887853e+003,3.584325e-004
3.889781e+003,-1.749843e-004
3.891710e+003,9.646490e-004
3.893638e+003,9.333789e-004
3.895567e+003,5.394220e-005
3.897496e+003,-1.429543e-004
3.899424e+003,5.249903e-004
3.901353e+003,1.198471e-003
3.903281e+003,1.975045e-003
3.905209e+003,2.086088e-003
3.907138e+003,1.054451e-003
3.909066e+003,3.317669e-004
3.910995e+003,3.149435e-004
3.912924e+003,2.507493e-004
3.914852e+003,3.514439e-004
3.916781e+003,8.216947e-004
3.918709e+003,6.863996e-004
3.920637e+003,3.173351e-004
3.922566e+003,3.558174e-004
3.924494e+003,1.006052e-003
3.926423e+003,8.292720e-004
3.928352e+003,3.434271e-004
3.930280e+003,3.503636e-004
3.932208e+003,7.552058e-004
3.934137e+003,6.387010e-004
3.936065e+003,1.069233e-004
3.937994e+003,-2.126172e-004
3.939922e+003,-3.771260e-004
3.941851e+003,1.178533e-004
3.943780e+003,3.669485e-004
3.945708e+003,-1.087412e-004
3.947636e+003,2.214313e-005
3.949565e+003,2.611354e-004
3.951493e+003,1.035929e-004
3.953422e+003,3.926456e-005
3.955351e+003,9.202957e-005
3.957279e+003,5.042553e-005
3.959208e+003,-9.544194e-005
3.961136e+003,-2.124906e-005
3.963064e+003,1.537800e-004
3.964993e+003,-2.513081e-005
3.966921e+003,-3.813654e-004
3.968850e+003,-3.655255e-004
3.970779e+003,-2.729893e-004
3.972707e+003,-1.941398e-004
3.974635e+003,3.408641e-005
3.976564e+003,5.746633e-005
3.978492e+003,-1.023859e-004
3.980421e+003,-9.272248e-005
3.982349e+003,1.750886e-006
3.984278e+003,-3.124028e-005
3.986207e+003,-1.264513e-004
3.988135e+003,-1.129285e-004
3.990063e+003,6.891787e-006
3.991992e+003,-3.542751e-005
3.993920e+003,3.911555e-005
3.995849e+003,9.724498e-005
3.997777e+003,-8.195639e-005
3.999706e+003,-1.563281e-004
4.001635e+003,0.000000e+000
