3.991992e+002,0.000000e+000
4.011277e+002,0.000000e+000
4.030562e+002,0.000000e+000
4.049846e+002,0.000000e+000
4.069131e+002,0.000000e+000
4.088416e+002,0.000000e+000
4.107701e+002,0.000000e+000
4.126986e+002,0.000000e+000
4.146271e+002,0.000000e+000
4.165556e+002,0.000000e+000
4.184841e+002,0.000000e+000
4.204126e+002,0.000000e+000
4.223411e+002,0.000000e+000
4.242697e+002,0.000000e+000
4.261982e+002,0.000000e+000
4.281266e+002,0.000000e+000
4.300551e+002,0.000000e+000
4.319836e+002,0.000000e+000
4.339121e+002,0.000000e+000
4.358406e+002,0.000000e+000
4.377691e+002,0.000000e+000
4.396976e+002,0.000000e+000
4.416261e+002,0.000000e+000
4.435546e+002,0.000000e+000
4.454831e+002,0.000000e+000
4.474116e+002,0.000000e+000
4.493401e+002,0.000000e+000
4.512686e+002,0.000000e+000
4.531971e+002,0.000000e+000
4.551256e+002,0.000000e+000
4.570541e+002,0.000000e+000
4.589826e+002,0.000000e+000
4.609111e+002,0.000000e+000
4.628396e+002,0.000000e+000
4.647681e+002,0.000000e+000
4.666966e+002,0.000000e+000
4.686251e+002,0.000000e+000
4.705536e+002,0.000000e+000
4.724821e+002,0.000000e+000
4.744106e+002,0.000000e+000
4.763391e+002,0.000000e+000
4.782676e+002,0.000000e+000
4.801961e+002,0.000000e+000
4.821246e+002,0.000000e+000
4.840531e+002,0.000000e+000
4.859816e+002,0.000000e+000
4.879101e+002,0.000000e+000
4.898386e+002,0.000000e+000
4.917671e+002,0.000000e+000
4.936956e+002,0.000000e+000
4.956241e+002,0.000000e+000
4.975526e+002,0.000000e+000
4.994811e+002,0.000000e+000
5.014096e+002,0.000000e+000
5.033381e+002,0.000000e+000
5.052666e+002,0.000000e+000
5.071951e+002,0.000000e+000
5.091236e+002,0.000000e+000
5.110521e+002,0.000000e+000
5.129806e+002,0.000000e+000
5.149091e+002,0.000000e+000
5.168376e+002,0.000000e+000
5.187661e+002,0.000000e+000
5.206946e+002,0.000000e+000
5.226230e+002,0.000000e+000
5.245516e+002,1.602001e-004
5.264800e+002,1.558205e-004
5.284086e+002,1.808107e-004
5.303370e+002,1.007002e-004
5.322656e+002,8.384231e-005
5.341940e+002,7.746927e-005
5.361226e+002,9.799981e-005
5.380510e+002,-8.937251e-005
5.399796e+002,-1.019482e-004
5.419081e+002,2.752990e-005
5.438365e+002,6.482238e-005
5.457650e+002,5.320599e-005
5.476935e+002,3.869692e-005
5.496221e+002,8.385396e-005
5.515505e+002,2.305266e-004
5.534790e+002,2.109106e-004
5.554075e+002,1.622098e-004
5.573361e+002,8.380739e-005
5.592645e+002,1.378991e-004
5.611931e+002,1.493688e-004
5.631215e+002,4.583457e-005
5.650500e+002,-1.342595e-005
5.669785e+002,-2.658181e-005
5.689070e+002,-1.347545e-004
5.708355e+002,-1.647230e-004
5.727640e+002,-1.503569e-004
5.746925e+002,-7.299986e-005
5.766210e+002,-1.024338e-004
5.785495e+002,-6.022304e-005
5.804780e+002,-8.214684e-005
5.824065e+002,-9.842729e-005
5.843350e+002,-1.309752e-004
5.862635e+002,-1.601339e-004
5.881920e+002,-1.792433e-004
5.901205e+002,-9.687152e-005
5.920490e+002,-7.358799e-005
5.939775e+002,-1.261276e-004
5.959060e+002,-2.094726e-004
5.978345e+002,-9.860983e-005
5.997630e+002,-8.646399e-005
6.016915e+002,-1.140162e-004
6.036200e+002,-1.822026e-004
6.055485e+002,-6.342959e-005
6.074770e+002,-6.178021e-005
6.094055e+002,-1.906366e-004
6.113340e+002,-2.441746e-004
6.132625e+002,-2.492545e-004
6.151910e+002,-4.033973e-004
6.171195e+002,-4.372848e-004
6.190480e+002,-3.976184e-004
6.209765e+002,-2.866671e-004
6.229050e+002,-1.433385e-004
6.248335e+002,-4.458893e-005
6.267620e+002,-7.296866e-005
6.286905e+002,-1.383247e-005
6.306190e+002,-2.877647e-005
6.325475e+002,-8.187722e-006
6.344760e+002,9.775162e-006
6.364045e+002,1.569130e-004
6.383330e+002,1.699342e-004
6.402615e+002,1.963302e-004
6.421899e+002,1.770863e-004
6.441185e+002,2.414556e-004
6.460470e+002,2.198154e-004
6.479755e+002,2.418375e-004
6.499039e+002,2.795649e-004
6.518325e+002,3.265860e-004
6.537610e+002,3.014011e-004
6.556895e+002,3.641318e-004
6.576179e+002,3.505796e-004
6.595464e+002,3.814450e-004
6.614750e+002,3.368352e-004
6.634034e+002,3.168467e-004
6.653319e+002,3.114776e-004
6.672604e+002,5.139271e-004
6.691890e+002,5.809357e-004
6.711174e+002,5.946583e-004
6.730460e+002,6.435448e-004
6.749745e+002,7.629278e-004
6.769030e+002,8.558542e-004
6.788314e+002,1.033182e-003
6.807599e+002,1.030248e-003
6.826885e+002,1.144968e-003
6.846169e+002,1.364292e-003
6.865454e+002,1.539027e-003
6.884739e+002,1.583261e-003
6.904025e+002,1.891154e-003
6.923309e+002,2.241323e-003
6.942594e+002,2.642507e-003
6.961879e+002,3.097554e-003
6.981165e+002,3.770467e-003
7.000449e+002,4.596292e-003
7.019734e+002,5.896236e-003
7.039019e+002,7.446087e-003
7.058304e+002,9.561047e-003
7.077589e+002,1.245197e-002
7.096874e+002,1.686298e-002
7.116159e+002,2.390009e-002
7.135444e+002,3.733407e-002
7.154729e+002,6.197610e-002
7.174014e+002,9.679724e-002
7.193299e+002,1.130773e-001
7.212584e+002,8.605833e-002
7.231869e+002,5.787723e-002
7.251154e+002,4.815723e-002
7.270439e+002,5.302474e-002
7.289724e+002,6.728558e-002
7.309009e+002,6.177459e-002
7.328294e+002,3.512984e-002
7.347579e+002,1.839404e-002
7.366864e+002,1.237233e-002
7.386149e+002,9.718442e-003
7.405434e+002,8.060676e-003
7.424719e+002,7.005358e-003
7.444004e+002,6.217366e-003
7.463289e+002,5.690428e-003
7.482574e+002,5.171916e-003
7.501859e+002,4.734839e-003
7.521144e+002,4.399045e-003
7.540428e+002,4.135771e-003
7.559714e+002,3.874010e-003
7.578999e+002,3.730561e-003
7.598284e+002,3.633332e-003
7.617568e+002,3.543134e-003
7.636854e+002,3.473564e-003
7.656139e+002,3.408398e-003
7.675424e+002,3.350463e-003
7.694709e+002,3.350511e-003
7.713994e+002,3.229598e-003
7.733279e+002,3.070288e-003
7.752563e+002,3.011093e-003
7.771849e+002,2.926740e-003
7.791134e+002,2.734633e-003
7.810419e+002,2.581784e-003
7.829703e+002,2.477218e-003
7.848989e+002,2.389253e-003
7.868274e+002,2.296357e-003
7.887559e+002,2.197075e-003
7.906843e+002,2.123519e-003
7.926129e+002,2.118676e-003
7.945414e+002,2.105077e-003
7.964698e+002,2.073387e-003
7.983983e+002,2.008309e-003
8.003268e+002,1.955903e-003
8.022554e+002,1.922006e-003
8.041838e+002,1.886463e-003
8.061123e+002,1.818420e-003
8.080408e+002,1.767796e-003
8.099694e+002,1.752242e-003
8.118978e+002,1.662706e-003
8.138263e+002,1.598397e-003
8.157548e+002,1.518496e-003
8.176833e+002,1.451234e-003
8.196118e+002,1.396196e-003
8.215403e+002,1.382862e-003
8.234689e+002,1.402383e-003
8.253973e+002,1.348210e-003
8.273258e+002,1.280599e-003
8.292543e+002,1.247124e-003
8.311829e+002,1.215000e-003
8.331113e+002,1.246073e-003
8.350398e+002,1.242005e-003
8.369683e+002,1.227054e-003
8.388969e+002,1.212220e-003
8.408253e+002,1.212097e-003
8.427538e+002,1.217286e-003
8.446823e+002,1.212282e-003
8.466108e+002,1.165711e-003
8.485393e+002,1.238785e-003
8.504678e+002,1.241717e-003
8.523963e+002,1.219147e-003
8.543248e+002,1.257495e-003
8.562533e+002,1.259184e-003
8.581818e+002,1.201934e-003
8.601103e+002,1.181046e-003
8.620388e+002,1.204578e-003
8.639673e+002,1.227875e-003
8.658958e+002,1.189964e-003
8.678243e+002,1.231140e-003
8.697528e+002,1.292237e-003
8.716813e+002,1.327222e-003
8.736098e+002,1.347436e-003
8.755383e+002,1.401033e-003
8.774668e+002,1.466818e-003
8.793953e+002,1.673353e-003
8.813238e+002,1.812216e-003
8.832523e+002,2.014593e-003
8.851808e+002,2.255352e-003
8.871093e+002,2.444156e-003
8.890378e+002,2.421904e-003
8.909663e+002,2.307148e-003
8.928948e+002,2.201126e-003
8.948232e+002,2.059987e-003
8.967518e+002,1.935677e-003
8.986803e+002,1.913024e-003
9.006088e+002,1.877573e-003
9.025372e+002,1.948043e-003
9.044658e+002,2.033615e-003
9.063943e+002,2.243505e-003
9.083228e+002,2.382754e-003
9.102512e+002,2.351535e-003
9.121797e+002,2.149802e-003
9.141083e+002,1.916301e-003
9.160367e+002,1.681290e-003
9.179653e+002,1.616109e-003
9.198937e+002,1.539180e-003
9.218223e+002,1.510619e-003
9.237507e+002,1.506890e-003
9.256793e+002,1.565656e-003
9.276077e+002,1.585527e-003
9.295363e+002,1.593741e-003
9.314647e+002,1.645966e-003
9.333932e+002,1.697448e-003
9.353217e+002,1.664952e-003
9.372502e+002,1.641492e-003
9.391787e+002,1.549133e-003
9.411072e+002,1.479852e-003
9.430358e+002,1.472541e-003
9.449642e+002,1.547466e-003
9.468928e+002,1.562321e-003
9.488212e+002,1.511806e-003
9.507498e+002,1.501882e-003
9.526782e+002,1.542637e-003
9.546068e+002,1.572881e-003
9.565352e+002,1.647382e-003
9.584637e+002,1.708898e-003
9.603922e+002,1.823714e-003
9.623207e+002,1.936234e-003
9.642492e+002,2.042328e-003
9.661777e+002,1.999437e-003
9.681062e+002,1.988374e-003
9.700347e+002,1.930712e-003
9.719632e+002,1.859537e-003
9.738917e+002,1.810660e-003
9.758202e+002,1.812676e-003
9.777487e+002,1.739744e-003
9.796772e+002,1.706617e-003
9.816057e+002,1.688368e-003
9.835342e+002,1.743610e-003
9.854627e+002,1.803556e-003
9.873912e+002,1.907572e-003
9.893197e+002,1.926605e-003
9.912482e+002,1.973037e-003
9.931767e+002,2.023393e-003
9.951052e+002,2.070015e-003
9.970337e+002,2.060289e-003
9.989622e+002,2.058166e-003
1.000891e+003,2.041694e-003
1.002819e+003,2.133023e-003
1.004748e+003,2.161894e-003
1.006676e+003,2.183028e-003
1.008605e+003,2.210550e-003
1.010533e+003,2.310259e-003
1.012462e+003,2.365747e-003
1.014390e+003,2.491244e-003
1.016319e+003,2.595620e-003
1.018247e+003,2.674087e-003
1.020176e+003,2.656680e-003
1.022104e+003,2.693999e-003
1.024033e+003,2.705267e-003
1.025961e+003,2.741613e-003
1.027890e+003,2.769168e-003
1.029818e+003,2.804115e-003
1.031747e+003,2.817218e-003
1.033675e+003,2.867224e-003
1.035604e+003,2.870252e-003
1.037532e+003,2.927171e-003
1.039461e+003,2.957356e-003
1.041389e+003,3.023504e-003
1.043318e+003,3.059046e-003
1.045246e+003,3.148627e-003
1.047175e+003,3.266703e-003
1.049103e+003,3.447643e-003
1.051032e+003,3.496899e-003
1.052960e+003,3.555378e-003
1.054889e+003,3.625144e-003
1.056817e+003,3.701654e-003
1.058746e+003,3.756336e-003
1.060674e+003,3.894881e-003
1.062603e+003,3.963558e-003
1.064531e+003,4.053848e-003
1.066460e+003,4.108165e-003
1.068388e+003,4.162204e-003
1.070317e+003,4.164501e-003
1.072245e+003,4.303120e-003
1.074174e+003,4.443033e-003
1.076102e+003,4.606958e-003
1.078031e+003,4.699157e-003
1.079959e+003,4.729602e-003
1.081888e+003,4.633150e-003
1.083816e+003,4.632408e-003
1.085745e+003,4.585434e-003
1.087673e+003,4.540181e-003
1.089602e+003,4.367849e-003
1.091530e+003,4.195376e-003
1.093459e+003,4.049920e-003
1.095387e+003,3.941768e-003
1.097316e+003,3.793779e-003
1.099244e+003,3.744019e-003
1.101173e+003,3.659477e-003
1.103101e+003,3.593110e-003
1.105030e+003,3.492403e-003
1.106958e+003,3.396755e-003
1.108887e+003,3.278064e-003
1.110815e+003,3.280370e-003
1.112744e+003,3.231370e-003
1.114672e+003,3.208359e-003
1.116601e+003,3.155348e-003
1.118529e+003,3.142907e-003
1.120458e+003,3.121722e-003
1.122386e+003,3.147999e-003
1.124315e+003,3.140260e-003
1.126243e+003,3.196029e-003
1.128172e+003,3.218686e-003
1.130100e+003,3.271898e-003
1.132029e+003,3.253945e-003
1.133957e+003,3.260950e-003
1.135885e+003,3.249342e-003
1.137814e+003,3.250436e-003
1.139743e+003,3.218785e-003
1.141671e+003,3.209495e-003
1.143600e+003,3.234587e-003
1.145528e+003,3.403186e-003
1.147457e+003,3.528783e-003
1.149385e+003,3.670573e-003
1.151314e+003,3.794862e-003
1.153242e+003,4.035847e-003
1.155171e+003,4.244293e-003
1.157099e+003,4.404278e-003
1.159028e+003,4.475528e-003
1.160956e+003,4.569564e-003
1.162885e+003,4.558947e-003
1.164813e+003,4.547331e-003
1.166742e+003,4.404639e-003
1.168670e+003,4.279364e-003
1.170599e+003,4.116274e-003
1.172527e+003,4.022962e-003
1.174456e+003,3.914678e-003
1.176384e+003,3.886629e-003
1.178313e+003,3.747892e-003
1.180241e+003,3.591945e-003
1.182170e+003,3.472088e-003
1.184098e+003,3.482843e-003
1.186027e+003,3.486606e-003
1.187955e+003,3.527799e-003
1.189884e+003,3.549644e-003
1.191812e+003,3.645265e-003
1.193740e+003,3.680598e-003
1.195669e+003,3.779981e-003
1.197598e+003,3.845030e-003
1.199526e+003,3.958315e-003
1.201455e+003,4.051315e-003
1.203383e+003,4.212188e-003
1.205312e+003,4.352166e-003
1.207240e+003,4.533968e-003
1.209168e+003,4.677913e-003
1.211097e+003,4.899733e-003
1.213026e+003,5.080098e-003
1.214954e+003,5.330759e-003
1.216883e+003,5.469229e-003
1.218811e+003,5.637863e-003
1.220740e+003,5.785584e-003
1.222668e+003,5.966036e-003
1.224596e+003,6.091486e-003
1.226525e+003,6.276722e-003
1.228453e+003,6.393601e-003
1.230382e+003,6.564386e-003
1.232311e+003,6.693943e-003
1.234239e+003,6.823496e-003
1.236167e+003,6.823327e-003
1.238096e+003,6.860211e-003
1.240025e+003,6.820723e-003
1.241953e+003,6.780479e-003
1.243882e+003,6.669375e-003
1.245810e+003,6.594229e-003
1.247739e+003,6.456831e-003
1.249667e+003,6.369696e-003
1.251595e+003,6.218703e-003
1.253524e+003,6.178722e-003
1.255453e+003,6.142485e-003
1.257381e+003,6.146076e-003
1.259310e+003,6.108772e-003
1.261238e+003,6.154667e-003
1.263167e+003,6.085177e-003
1.265095e+003,6.032908e-003
1.267023e+003,5.943552e-003
1.268952e+003,5.987897e-003
1.270880e+003,6.001231e-003
1.272809e+003,6.052235e-003
1.274738e+003,6.053681e-003
1.276666e+003,6.151048e-003
1.278594e+003,6.190151e-003
1.280523e+003,6.311156e-003
1.282451e+003,6.426496e-003
1.284380e+003,6.646764e-003
1.286308e+003,6.828113e-003
1.288237e+003,7.106155e-003
1.290166e+003,7.352410e-003
1.292094e+003,7.750493e-003
1.294022e+003,8.138750e-003
1.295951e+003,8.580541e-003
1.297879e+003,8.873690e-003
1.299808e+003,9.147125e-003
1.301736e+003,9.228032e-003
1.303665e+003,9.300795e-003
1.305594e+003,9.221545e-003
1.307522e+003,9.103528e-003
1.309450e+003,8.830062e-003
1.311379e+003,8.548676e-003
1.313307e+003,8.079492e-003
1.315236e+003,7.691971e-003
1.317164e+003,7.285463e-003
1.319093e+003,6.927941e-003
1.321021e+003,6.464422e-003
1.322950e+003,6.205099e-003
1.324878e+003,5.978681e-003
1.326807e+003,5.926370e-003
1.328735e+003,5.869828e-003
1.330664e+003,5.978142e-003
1.332592e+003,6.210844e-003
1.334521e+003,6.725914e-003
1.336449e+003,7.370870e-003
1.338378e+003,8.294168e-003
1.340306e+003,8.974804e-003
1.342235e+003,9.409068e-003
1.344163e+003,9.840496e-003
1.346092e+003,1.052902e-002
1.348021e+003,1.118039e-002
1.349949e+003,1.191011e-002
1.351877e+003,1.226778e-002
1.353806e+003,1.233170e-002
1.355734e+003,1.211614e-002
1.357663e+003,1.217555e-002
1.359591e+003,1.254859e-002
1.361520e+003,1.344211e-002
1.363448e+003,1.465077e-002
1.365377e+003,1.583635e-002
1.367305e+003,1.679231e-002
1.369234e+003,1.729758e-002
1.371162e+003,1.705661e-002
1.373091e+003,1.738763e-002
1.375019e+003,1.933042e-002
1.376948e+003,2.088100e-002
1.378876e+003,1.920256e-002
1.380805e+003,1.475075e-002
1.382733e+003,1.040651e-002
1.384662e+003,7.902889e-003
1.386590e+003,6.487994e-003
1.388519e+003,5.761125e-003
1.390447e+003,5.243824e-003
1.392376e+003,5.148823e-003
1.394304e+003,4.947585e-003
1.396233e+003,5.012183e-003
1.398161e+003,4.857677e-003
1.400090e+003,4.967911e-003
1.402018e+003,4.816070e-003
1.403947e+003,5.063396e-003
1.405875e+003,5.101616e-003
1.407804e+003,5.358693e-003
1.409732e+003,5.417651e-003
1.411661e+003,5.708381e-003
1.413589e+003,5.698350e-003
1.415518e+003,6.114629e-003
1.417446e+003,6.355378e-003
1.419375e+003,7.160024e-003
1.421303e+003,7.440502e-003
1.423232e+003,8.518608e-003
1.425160e+003,9.875790e-003
1.427089e+003,1.184052e-002
1.429017e+003,1.436521e-002
1.430946e+003,1.823124e-002
1.432874e+003,2.135913e-002
1.434803e+003,2.443406e-002
1.436731e+003,2.772656e-002
1.438660e+003,3.075502e-002
1.440588e+003,3.254795e-002
1.442517e+003,3.509492e-002
1.444445e+003,3.714000e-002
1.446374e+003,4.012817e-002
1.448302e+003,4.424011e-002
1.450231e+003,5.045862e-002
1.452159e+003,5.955750e-002
1.454088e+003,7.113460e-002
1.456016e+003,8.258360e-002
1.457945e+003,1.083812e-001
1.459873e+003,1.523693e-001
1.461802e+003,1.992483e-001
1.463730e+003,2.033132e-001
1.465659e+003,1.592019e-001
1.467587e+003,1.436228e-001
1.469516e+003,1.402531e-001
1.471444e+003,1.560331e-001
1.473373e+003,1.335609e-001
1.475301e+003,7.257845e-002
1.477230e+003,3.279852e-002
1.479158e+003,2.111705e-002
1.481087e+003,1.532788e-002
1.483015e+003,1.260611e-002
1.484944e+003,1.039984e-002
1.486872e+003,9.737047e-003
1.488801e+003,8.266838e-003
1.490729e+003,7.905449e-003
1.492658e+003,6.649131e-003
1.494586e+003,6.627102e-003
1.496515e+003,5.805545e-003
1.498443e+003,5.827921e-003
1.500372e+003,5.065719e-003
1.502300e+003,5.041233e-003
1.504229e+003,4.601117e-003
1.506157e+003,5.289883e-003
1.508086e+003,4.358625e-003
1.510014e+003,4.474663e-003
1.511943e+003,3.863324e-003
1.513871e+003,4.026038e-003
1.515800e+003,3.807569e-003
1.517728e+003,4.094924e-003
1.519657e+003,3.722573e-003
1.521585e+003,4.097429e-003
1.523514e+003,3.519937e-003
1.525442e+003,3.729310e-003
1.527371e+003,3.339591e-003
1.529299e+003,3.357216e-003
1.531228e+003,3.151232e-003
1.533156e+003,3.523515e-003
1.535085e+003,3.175085e-003
1.537013e+003,3.302156e-003
1.538942e+003,3.257236e-003
1.540870e+003,3.820766e-003
1.542799e+003,3.352666e-003
1.544727e+003,3.303797e-003
1.546656e+003,2.766930e-003
1.548584e+003,2.890093e-003
1.550513e+003,2.794567e-003
1.552441e+003,2.910239e-003
1.554370e+003,2.782441e-003
1.556298e+003,2.982266e-003
1.558227e+003,2.971954e-003
1.560155e+003,2.782547e-003
1.562084e+003,2.319994e-003
1.564012e+003,2.397715e-003
1.565941e+003,2.217839e-003
1.567869e+003,2.440290e-003
1.569798e+003,2.395594e-003
1.571726e+003,2.256398e-003
1.573655e+003,2.133890e-003
1.575583e+003,2.432397e-003
1.577512e+003,2.161018e-003
1.579440e+003,2.120781e-003
1.581369e+003,2.056683e-003
1.583297e+003,2.143315e-003
1.585226e+003,2.096410e-003
1.587154e+003,2.182676e-003
1.589083e+003,2.093068e-003
1.591011e+003,2.117223e-003
1.592940e+003,2.005915e-003
1.594868e+003,2.106957e-003
1.596797e+003,2.028130e-003
1.598725e+003,2.063960e-003
1.600654e+003,2.013722e-003
1.602582e+003,2.088364e-003
1.604511e+003,1.976667e-003
1.606439e+003,2.047052e-003
1.608368e+003,2.039987e-003
1.610296e+003,2.103387e-003
1.612225e+003,1.998755e-003
1.614153e+003,2.179676e-003
1.616082e+003,2.366866e-003
1.618010e+003,2.418253e-003
1.619939e+003,2.299165e-003
1.621867e+003,2.582237e-003
1.623796e+003,2.680786e-003
1.625724e+003,2.792247e-003
1.627653e+003,2.845936e-003
1.629581e+003,2.868944e-003
1.631510e+003,2.751742e-003
1.633438e+003,2.978082e-003
1.635367e+003,3.330353e-003
1.637295e+003,3.337474e-003
1.639224e+003,3.085331e-003
1.641152e+003,3.098770e-003
1.643081e+003,3.078042e-003
1.645009e+003,3.471438e-003
1.646938e+003,3.693820e-003
1.648866e+003,3.296821e-003
1.650795e+003,3.109139e-003
1.652723e+003,3.703644e-003
1.654652e+003,2.959880e-003
1.656580e+003,2.683541e-003
1.658509e+003,2.505325e-003
1.660437e+003,2.613325e-003
1.662366e+003,2.667506e-003
1.664294e+003,2.545037e-003
1.666223e+003,2.366829e-003
1.668151e+003,2.575870e-003
1.670080e+003,2.443384e-003
1.672008e+003,2.279207e-003
1.673937e+003,2.177412e-003
1.675865e+003,2.181352e-003
1.677794e+003,1.969027e-003
1.679722e+003,2.077646e-003
1.681651e+003,2.021269e-003
1.683579e+003,2.407663e-003
1.685508e+003,1.743053e-003
1.687436e+003,1.545066e-003
1.689365e+003,1.351125e-003
1.691293e+003,1.258723e-003
1.693222e+003,1.244785e-003
1.695150e+003,1.590312e-003
1.697079e+003,1.541584e-003
1.699007e+003,1.646036e-003
1.700936e+003,1.321348e-003
1.702864e+003,1.264058e-003
1.704793e+003,1.324737e-003
1.706721e+003,1.389014e-003
1.708650e+003,1.295937e-003
1.710578e+003,1.458326e-003
1.712507e+003,1.678403e-003
1.714435e+003,2.362758e-003
1.716364e+003,2.877339e-003
1.718292e+003,3.000910e-003
1.720221e+003,2.546550e-003
1.722149e+003,2.474117e-003
1.724078e+003,2.162431e-003
1.726006e+003,1.768913e-003
1.727935e+003,1.488243e-003
1.729863e+003,1.499850e-003
1.731792e+003,1.563357e-003
1.733720e+003,2.054359e-003
1.735649e+003,1.346161e-003
1.737577e+003,1.139862e-003
1.739506e+003,1.066682e-003
1.741434e+003,1.002882e-003
1.743363e+003,9.854054e-004
1.745291e+003,1.002715e-003
1.747220e+003,9.559169e-004
1.749148e+003,1.063334e-003
1.751077e+003,7.209834e-004
1.753005e+003,3.770767e-004
1.754934e+003,1.347875e-004
1.756862e+003,1.051864e-004
1.758791e+003,-5.557574e-005
1.760719e+003,4.968885e-005
1.762648e+003,-1.048809e-004
1.764576e+003,-2.003470e-004
1.766505e+003,-2.629636e-004
1.768433e+003,-1.660679e-004
1.770362e+003,-1.162626e-004
1.772290e+003,-1.557451e-005
1.774219e+003,-4.104106e-004
1.776147e+003,-4.426735e-004
1.778076e+003,-4.399549e-004
1.780004e+003,-2.401853e-004
1.781933e+003,-3.515929e-004
1.783861e+003,-3.375793e-004
1.785790e+003,-4.879264e-004
1.787718e+003,-4.846677e-004
1.789646e+003,-3.571669e-004
1.791575e+003,3.447756e-006
1.793504e+003,-2.248809e-004
1.795432e+003,-3.320184e-004
1.797361e+003,-4.825266e-004
1.799289e+003,-3.729640e-004
1.801218e+003,-3.397372e-004
1.803146e+003,-4.234212e-004
1.805074e+003,-6.493973e-004
1.807003e+003,-6.281100e-004
1.808932e+003,-6.741369e-004
1.810860e+003,-6.337082e-004
1.812789e+003,-9.023165e-004
1.814717e+003,-1.168229e-003
1.816646e+003,-1.259141e-003
1.818574e+003,-8.271784e-004
1.820502e+003,-7.644957e-004
1.822431e+003,-6.834092e-004
1.824360e+003,-7.528430e-004
1.826288e+003,-7.559145e-004
1.828217e+003,-7.096296e-004
1.830145e+003,-5.349834e-004
1.832073e+003,-9.467974e-004
1.834002e+003,-1.004382e-003
1.835931e+003,-1.035516e-003
1.837859e+003,-8.925181e-004
1.839788e+003,-1.071115e-003
1.841716e+003,-9.115860e-004
1.843645e+003,-6.793197e-004
1.845573e+003,-5.816622e-004
1.847501e+003,-9.517577e-004
1.849430e+003,-1.061921e-003
1.851359e+003,-1.125776e-003
1.853287e+003,-8.918559e-004
1.855216e+003,-1.092904e-003
1.857144e+003,-9.072889e-004
1.859073e+003,-8.527022e-004
1.861001e+003,-7.030927e-004
1.862929e+003,-8.629812e-004
1.864858e+003,-6.515197e-004
1.866787e+003,-4.415866e-004
1.868715e+003,-7.235259e-005
1.870644e+003,-4.720120e-004
1.872572e+003,-6.011473e-004
1.874500e+003,-8.311290e-004
1.876429e+003,-7.289397e-004
1.878357e+003,-9.029014e-004
1.880286e+003,-8.030720e-004
1.882215e+003,-7.796511e-004
1.884143e+003,-6.182352e-004
1.886072e+003,-9.022672e-004
1.888000e+003,-3.983863e-004
1.889928e+003,-3.627241e-004
1.891857e+003,-4.442241e-004
1.893785e+003,-2.984237e-004
1.895714e+003,2.454463e-004
1.897643e+003,8.748844e-006
1.899571e+003,1.134761e-004
1.901500e+003,1.138393e-004
1.903428e+003,1.141913e-004
1.905356e+003,1.145359e-004
1.907285e+003,1.148731e-004
1.909213e+003,1.152065e-004
1.911142e+003,1.155306e-004
1.913071e+003,1.158472e-004
1.914999e+003,1.161583e-004
1.916927e+003,1.164600e-004
1.918856e+003,1.167562e-004
1.920784e+003,1.170449e-004
1.922713e+003,1.173262e-004
1.924641e+003,1.175981e-004
1.926570e+003,1.178663e-004
1.928499e+003,1.181252e-004
1.930427e+003,1.183785e-004
1.932355e+003,1.186226e-004
1.934284e+003,1.188610e-004
1.936212e+003,1.190919e-004
1.938141e+003,1.193155e-004
1.940070e+003,1.195334e-004
1.941998e+003,1.197420e-004
1.943927e+003,1.199432e-004
1.945855e+003,1.201387e-004
1.947783e+003,1.203250e-004
1.949712e+003,1.205076e-004
1.951640e+003,1.206808e-004
1.953569e+003,1.208466e-004
1.955498e+003,1.210067e-004
1.957426e+003,1.211576e-004
1.959354e+003,1.213010e-004
1.961283e+003,1.214389e-004
1.963211e+003,1.215711e-004
1.965140e+003,1.216922e-004
1.967068e+003,1.218077e-004
1.968997e+003,1.219157e-004
1.970926e+003,1.220182e-004
1.972854e+003,1.221113e-004
1.974782e+003,1.221988e-004
1.976711e+003,1.222808e-004
1.978639e+003,1.223516e-004
1.980568e+003,1.224168e-004
1.982496e+003,1.224764e-004
1.984425e+003,1.225285e-004
1.986354e+003,1.225714e-004
1.988282e+003,1.226086e-004
1.990210e+003,1.226366e-004
1.992139e+003,1.226608e-004
1.994067e+003,1.226757e-004
1.995996e+003,1.226813e-004
1.997924e+003,1.226831e-004
1.999853e+003,1.226775e-004
2.001781e+003,1.226626e-004
2.003710e+003,1.226421e-004
2.005638e+003,1.226142e-004
2.007567e+003,1.225807e-004
2.009495e+003,1.225360e-004
2.011424e+003,1.224875e-004
2.013352e+003,1.224317e-004
2.015281e+003,1.223665e-004
2.017209e+003,1.222957e-004
2.019138e+003,1.222175e-004
2.021066e+003,1.221336e-004
2.022995e+003,1.220405e-004
2.024923e+003,1.219399e-004
2.026852e+003,1.218319e-004
2.028781e+003,1.217183e-004
2.030709e+003,1.215972e-004
2.032637e+003,1.214668e-004
2.034566e+003,1.213308e-004
2.036494e+003,1.211893e-004
2.038423e+003,1.210384e-004
2.040351e+003,1.208801e-004
2.042280e+003,1.207199e-004
2.044208e+003,1.205467e-004
2.046137e+003,1.203679e-004
2.048065e+003,1.201816e-004
2.049994e+003,1.199860e-004
2.051922e+003,1.197867e-004
2.053851e+003,1.195781e-004
2.055779e+003,1.193658e-004
2.057708e+003,1.191422e-004
2.059636e+003,1.189131e-004
2.061565e+003,1.186766e-004
2.063493e+003,1.184307e-004
2.065422e+003,1.181830e-004
2.067350e+003,1.179222e-004
2.069279e+003,1.176596e-004
2.071207e+003,1.173858e-004
2.073136e+003,1.171064e-004
2.075064e+003,1.168195e-004
2.076993e+003,1.165234e-004
2.078921e+003,1.162253e-004
2.080850e+003,1.159143e-004
2.082778e+003,1.156013e-004
2.084707e+003,1.152791e-004
2.086635e+003,1.149494e-004
2.088564e+003,1.146104e-004
2.090492e+003,1.142677e-004
2.092421e+003,1.139157e-004
2.094349e+003,1.135543e-004
2.096278e+003,1.131911e-004
2.098206e+003,1.128186e-004
2.100135e+003,1.124367e-004
2.102063e+003,1.120511e-004
2.103992e+003,1.116563e-004
2.105920e+003,1.112539e-004
2.107849e+003,1.108442e-004
2.109777e+003,1.104269e-004
2.111706e+003,1.100022e-004
2.113634e+003,1.095757e-004
2.115563e+003,1.091380e-004
2.117491e+003,1.086928e-004
2.119420e+003,1.082402e-004
2.121348e+003,1.077782e-004
2.123277e+003,1.073126e-004
2.125205e+003,1.068395e-004
2.127134e+003,1.063570e-004
2.129062e+003,1.058709e-004
2.130991e+003,1.053754e-004
2.132919e+003,1.048725e-004
2.134848e+003,1.043603e-004
2.136776e+003,1.038443e-004
2.138705e+003,1.033209e-004
2.140633e+003,1.027901e-004
2.142562e+003,1.022518e-004
2.144490e+003,1.017060e-004
2.146419e+003,1.011528e-004
2.148347e+003,1.005922e-004
2.150276e+003,1.000278e-004
2.152204e+003,9.945221e-005
2.154133e+003,9.887107e-005
2.156061e+003,9.828433e-005
2.157990e+003,9.768642e-005
2.159918e+003,9.708293e-005
2.161847e+003,9.647198e-005
2.163775e+003,9.585731e-005
2.165704e+003,9.522960e-005
2.167632e+003,9.459816e-005
2.169561e+003,9.395927e-005
2.171489e+003,9.331107e-005
2.173418e+003,9.265915e-005
2.175346e+003,9.199977e-005
2.177275e+003,9.133108e-005
2.179203e+003,9.065494e-005
2.181132e+003,8.997507e-005
2.183060e+003,8.928217e-005
2.184989e+003,8.858554e-005
2.186917e+003,8.788519e-005
2.188846e+003,8.717366e-005
2.190774e+003,8.645467e-005
2.192703e+003,8.572824e-005
2.194631e+003,8.499622e-005
2.196560e+003,8.425675e-005
2.198488e+003,8.350983e-005
2.200417e+003,8.275732e-005
2.202345e+003,8.199550e-005
2.204274e+003,8.122809e-005
2.206202e+003,8.045137e-005
2.208131e+003,7.967092e-005
2.210059e+003,7.887743e-005
2.211988e+003,7.808208e-005
2.213916e+003,7.727370e-005
2.215845e+003,7.646158e-005
2.217773e+003,7.564574e-005
2.219702e+003,7.482059e-005
2.221630e+003,7.398613e-005
2.223559e+003,7.314608e-005
2.225487e+003,7.229857e-005
2.227416e+003,7.144362e-005
2.229344e+003,7.058121e-005
2.231273e+003,6.971508e-005
2.233201e+003,6.883778e-005
2.235130e+003,6.795302e-005
2.237058e+003,6.706268e-005
2.238987e+003,6.616488e-005
2.240915e+003,6.525777e-005
2.242844e+003,6.434508e-005
2.244772e+003,6.342679e-005
2.246701e+003,6.250292e-005
2.248629e+003,6.156787e-005
2.250558e+003,6.062537e-005
2.252486e+003,5.967729e-005
2.254415e+003,5.872175e-005
2.256343e+003,5.776063e-005
2.258272e+003,5.678833e-005
2.260200e+003,5.581230e-005
2.262129e+003,5.482882e-005
2.264057e+003,5.383790e-005
2.265986e+003,5.283765e-005
2.267914e+003,5.182996e-005
2.269843e+003,5.081855e-005
2.271771e+003,4.979782e-005
2.273700e+003,4.877150e-005
2.275628e+003,4.773960e-005
2.277557e+003,4.669651e-005
2.279485e+003,4.564784e-005
2.281414e+003,4.459172e-005
2.283342e+003,4.352815e-005
2.285271e+003,4.245713e-005
2.287199e+003,4.137866e-005
2.289128e+003,4.029647e-005
2.291056e+003,3.920496e-005
2.292985e+003,3.810413e-005
2.294913e+003,3.699586e-005
2.296842e+003,3.588572e-005
2.298770e+003,3.476255e-005
2.300699e+003,3.363378e-005
2.302627e+003,3.250130e-005
2.304556e+003,3.135949e-005
2.306484e+003,3.021024e-005
2.308413e+003,2.904981e-005
2.310341e+003,2.788752e-005
2.312270e+003,2.671778e-005
2.314198e+003,2.553873e-005
2.316127e+003,2.435036e-005
2.318055e+003,2.315640e-005
2.319984e+003,2.196059e-005
2.321912e+003,2.075173e-005
2.323841e+003,1.953915e-005
2.325769e+003,1.831725e-005
2.327698e+003,1.708977e-005
2.329626e+003,1.585297e-005
2.331555e+003,1.460873e-005
2.333483e+003,1.335889e-005
2.335412e+003,1.210161e-005
2.337340e+003,1.083873e-005
2.339269e+003,9.564683e-006
2.341197e+003,8.288771e-006
2.343126e+003,6.999820e-006
2.345054e+003,5.705282e-006
2.346983e+003,4.408881e-006
2.348911e+003,3.099442e-006
2.350840e+003,1.786277e-006
2.352768e+003,4.619360e-007
2.354697e+003,-8.661300e-007
2.356625e+003,-2.203509e-006
2.358554e+003,-3.548339e-006
2.360482e+003,-4.898757e-006
2.362411e+003,-6.258488e-006
2.364339e+003,-7.620081e-006
2.366268e+003,-8.992851e-006
2.368196e+003,-1.037493e-005
2.370125e+003,-1.176074e-005
2.372053e+003,-1.315400e-005
2.373982e+003,-1.455657e-005
2.375910e+003,-1.596473e-005
2.377839e+003,-1.737848e-005
2.379767e+003,-1.880154e-005
2.381696e+003,-2.023205e-005
2.383624e+003,-2.167001e-005
2.385553e+003,-2.311170e-005
2.387481e+003,-2.456456e-005
2.389410e+003,-2.602488e-005
2.391338e+003,-2.748705e-005
2.393267e+003,-2.896041e-005
2.395195e+003,-3.044307e-005
2.397124e+003,-3.193319e-005
2.399052e+003,-3.342517e-005
2.400981e+003,-1.028143e-004
2.402909e+003,-2.076253e-004
2.404838e+003,-1.897551e-004
2.406766e+003,6.594136e-005
2.408695e+003,4.231632e-004
2.410623e+003,4.776046e-004
2.412552e+003,4.673656e-004
2.414480e+003,4.486963e-004
2.416409e+003,5.429797e-004
2.418337e+003,3.972743e-004
2.420266e+003,3.838129e-004
2.422194e+003,3.800709e-004
2.424123e+003,4.024543e-004
2.426051e+003,3.670473e-004
2.427979e+003,4.364848e-004
2.429908e+003,4.504118e-004
2.431837e+003,3.347881e-004
2.433765e+003,1.254603e-004
2.435694e+003,5.584769e-005
2.437622e+003,1.672022e-004
2.439551e+003,1.520030e-004
2.441479e+003,1.345426e-004
2.443407e+003,3.221259e-004
2.445336e+003,4.621614e-004
2.447265e+003,4.183333e-004
2.449193e+003,2.909694e-004
2.451122e+003,2.789982e-004
2.453050e+003,3.289469e-004
2.454979e+003,4.707631e-004
2.456907e+003,4.257448e-004
2.458836e+003,2.705175e-004
2.460764e+003,1.687054e-004
2.462693e+003,2.919082e-004
2.464621e+003,2.296008e-004
2.466550e+003,2.962612e-004
2.468478e+003,3.598481e-004
2.470406e+003,5.816557e-004
2.472335e+003,7.217415e-004
2.474264e+003,7.158704e-004
2.476192e+003,6.652717e-004
2.478121e+003,6.496198e-004
2.480049e+003,5.928446e-004
2.481978e+003,7.441230e-004
2.483906e+003,8.167718e-004
2.485835e+003,7.138997e-004
2.487763e+003,6.626099e-004
2.489692e+003,7.851031e-004
2.491620e+003,7.963013e-004
2.493549e+003,9.495411e-004
2.495477e+003,1.118653e-003
2.497406e+003,1.175920e-003
2.499334e+003,1.187267e-003
2.501263e+003,1.138553e-003
2.503191e+003,1.047496e-003
2.505120e+003,1.114855e-003
2.507048e+003,1.175961e-003
2.508977e+003,1.246834e-003
2.510905e+003,1.281202e-003
2.512833e+003,1.303202e-003
2.514762e+003,1.417471e-003
2.516691e+003,1.664381e-003
2.518619e+003,1.800532e-003
2.520548e+003,1.889115e-003
2.522476e+003,1.931459e-003
2.524405e+003,2.060708e-003
2.526333e+003,2.194356e-003
2.528261e+003,2.338408e-003
2.530190e+003,2.405299e-003
2.532119e+003,2.321430e-003
2.534047e+003,2.135830e-003
2.535976e+003,1.958642e-003
2.537904e+003,1.982350e-003
2.539833e+003,2.161149e-003
2.541761e+003,2.340153e-003
2.543689e+003,2.558317e-003
2.545618e+003,2.757877e-003
2.547547e+003,2.923053e-003
2.549475e+003,3.041763e-003
2.551404e+003,3.158836e-003
2.553332e+003,3.294870e-003
2.555260e+003,3.421247e-003
2.557189e+003,3.373645e-003
2.559117e+003,3.355898e-003
2.561046e+003,3.431009e-003
2.562975e+003,3.521966e-003
2.564903e+003,3.695160e-003
2.566832e+003,3.971104e-003
2.568760e+003,4.120290e-003
2.570688e+003,4.247820e-003
2.572617e+003,4.335303e-003
2.574546e+003,4.435938e-003
2.576474e+003,4.478229e-003
2.578403e+003,4.692784e-003
2.580331e+003,4.966561e-003
2.582260e+003,5.132338e-003
2.584188e+003,5.380962e-003
2.586116e+003,5.620165e-003
2.588045e+003,5.750995e-003
2.589974e+003,6.006813e-003
2.591902e+003,6.195409e-003
2.593831e+003,6.324884e-003
2.595759e+003,6.504847e-003
2.597688e+003,6.755048e-003
2.599616e+003,6.963940e-003
2.601544e+003,7.254843e-003
2.603473e+003,7.506290e-003
2.605402e+003,7.717013e-003
2.607330e+003,8.013362e-003
2.609259e+003,8.282579e-003
2.611187e+003,8.521480e-003
2.613115e+003,8.806786e-003
2.615044e+003,9.160820e-003
2.616972e+003,9.540183e-003
2.618901e+003,9.851281e-003
2.620830e+003,1.021939e-002
2.622758e+003,1.066519e-002
2.624687e+003,1.109111e-002
2.626615e+003,1.147017e-002
2.628543e+003,1.192225e-002
2.630472e+003,1.232258e-002
2.632400e+003,1.260782e-002
2.634329e+003,1.275595e-002
2.636258e+003,1.280580e-002
2.638186e+003,1.290386e-002
2.640115e+003,1.300729e-002
2.642043e+003,1.297158e-002
2.643971e+003,1.299247e-002
2.645900e+003,1.300108e-002
2.647828e+003,1.305186e-002
2.649757e+003,1.310887e-002
2.651686e+003,1.323402e-002
2.653614e+003,1.338023e-002
2.655542e+003,1.355616e-002
2.657471e+003,1.368899e-002
2.659399e+003,1.366583e-002
2.661328e+003,1.356633e-002
2.663256e+003,1.336013e-002
2.665185e+003,1.316941e-002
2.667114e+003,1.301272e-002
2.669042e+003,1.280535e-002
2.670970e+003,1.266881e-002
2.672899e+003,1.250669e-002
2.674827e+003,1.235100e-002
2.676756e+003,1.222263e-002
2.678685e+003,1.209041e-002
2.680613e+003,1.193136e-002
2.682542e+003,1.181275e-002
2.684470e+003,1.171377e-002
2.686398e+003,1.154889e-002
2.688327e+003,1.141874e-002
2.690255e+003,1.136544e-002
2.692184e+003,1.124930e-002
2.694113e+003,1.115036e-002
2.696041e+003,1.115120e-002
2.697969e+003,1.119539e-002
2.699898e+003,1.125058e-002
2.701826e+003,1.135878e-002
2.703755e+003,1.151669e-002
2.705683e+003,1.174660e-002
2.707612e+003,1.192778e-002
2.709541e+003,1.207045e-002
2.711469e+003,1.225749e-002
2.713397e+003,1.243991e-002
2.715326e+003,1.261462e-002
2.717254e+003,1.275095e-002
2.719183e+003,1.295439e-002
2.721111e+003,1.325049e-002
2.723040e+003,1.356505e-002
2.724969e+003,1.388337e-002
2.726897e+003,1.419065e-002
2.728825e+003,1.450271e-002
2.730754e+003,1.475012e-002
2.732682e+003,1.485414e-002
2.734611e+003,1.496184e-002
2.736539e+003,1.511354e-002
2.738468e+003,1.521763e-002
2.740396e+003,1.525439e-002
2.742325e+003,1.528338e-002
2.744253e+003,1.531766e-002
2.746182e+003,1.530223e-002
2.748110e+003,1.525402e-002
2.750039e+003,1.523660e-002
2.751967e+003,1.528773e-002
2.753896e+003,1.541399e-002
2.755824e+003,1.573136e-002
2.757753e+003,1.606558e-002
2.759681e+003,1.642445e-002
2.761610e+003,1.682377e-002
2.763538e+003,1.724357e-002
2.765467e+003,1.767289e-002
2.767395e+003,1.817455e-002
2.769324e+003,1.879053e-002
2.771252e+003,1.943260e-002
2.773181e+003,2.012058e-002
2.775109e+003,2.089158e-002
2.777038e+003,2.176496e-002
2.778966e+003,2.273874e-002
2.780895e+003,2.379862e-002
2.782823e+003,2.500547e-002
2.784752e+003,2.632012e-002
2.786680e+003,2.779112e-002
2.788609e+003,2.929429e-002
2.790537e+003,3.092345e-002
2.792466e+003,3.269120e-002
2.794394e+003,3.449305e-002
2.796323e+003,3.638375e-002
2.798251e+003,3.834355e-002
2.800180e+003,4.037761e-002
2.802108e+003,4.255648e-002
2.804037e+003,4.486310e-002
2.805965e+003,4.729831e-002
2.807894e+003,5.009000e-002
2.809822e+003,5.329498e-002
2.811751e+003,5.682673e-002
2.813679e+003,6.073588e-002
2.815608e+003,6.530270e-002
2.817536e+003,7.069845e-002
2.819465e+003,7.702899e-002
2.821393e+003,8.449733e-002
2.823322e+003,9.358327e-002
2.825250e+003,1.047899e-001
2.827179e+003,1.189948e-001
2.829107e+003,1.374392e-001
2.831036e+003,1.619699e-001
2.832964e+003,1.957156e-001
2.834893e+003,2.436778e-001
2.836821e+003,3.123642e-001
2.838750e+003,4.119812e-001
2.840678e+003,5.595236e-001
2.842607e+003,7.774347e-001
2.844535e+003,1.078280e+000
2.846464e+003,1.390617e+000
2.848392e+003,1.448152e+000
2.850321e+003,1.171850e+000
2.852249e+003,8.581562e-001
2.854178e+003,6.391065e-001
2.856106e+003,4.929847e-001
2.858035e+003,3.909099e-001
2.859963e+003,3.182346e-001
2.861892e+003,2.672853e-001
2.863820e+003,2.330705e-001
2.865749e+003,2.124450e-001
2.867677e+003,2.024642e-001
2.869606e+003,1.996817e-001
2.871534e+003,2.009736e-001
2.873463e+003,2.055774e-001
2.875391e+003,2.151619e-001
2.877320e+003,2.311726e-001
2.879248e+003,2.533986e-001
2.881177e+003,2.807346e-001
2.883105e+003,3.122158e-001
2.885034e+003,3.471927e-001
2.886962e+003,3.849061e-001
2.888891e+003,4.243670e-001
2.890819e+003,4.646183e-001
2.892748e+003,5.049203e-001
2.894676e+003,5.449727e-001
2.896605e+003,5.856229e-001
2.898533e+003,6.284674e-001
2.900462e+003,6.763868e-001
2.902390e+003,7.341275e-001
2.904319e+003,8.089259e-001
2.906247e+003,9.104784e-001
2.908176e+003,1.049840e+000
2.910104e+003,1.234123e+000
2.912033e+003,1.446778e+000
2.913961e+003,1.611127e+000
2.915890e+003,1.615731e+000
2.917818e+003,1.453489e+000
2.919747e+003,1.230463e+000
2.921675e+003,1.023949e+000
2.923604e+003,8.552456e-001
2.925532e+003,7.213314e-001
2.927461e+003,6.128571e-001
2.929389e+003,5.222517e-001
2.931318e+003,4.450274e-001
2.933246e+003,3.785273e-001
2.935175e+003,3.214389e-001
2.937103e+003,2.726194e-001
2.939032e+003,2.309826e-001
2.940960e+003,1.961461e-001
2.942889e+003,1.680098e-001
2.944817e+003,1.463352e-001
2.946746e+003,1.309192e-001
2.948674e+003,1.212688e-001
2.950603e+003,1.159033e-001
2.952531e+003,1.125459e-001
2.954460e+003,1.091643e-001
2.956388e+003,1.049015e-001
2.958317e+003,9.949099e-002
2.960245e+003,9.299385e-002
2.962174e+003,8.545135e-002
2.964102e+003,7.716140e-002
2.966031e+003,6.861673e-002
2.967959e+003,6.045260e-002
2.969888e+003,5.304727e-002
2.971816e+003,4.657219e-002
2.973745e+003,4.104485e-002
2.975673e+003,3.649051e-002
2.977602e+003,3.268897e-002
2.979530e+003,2.954308e-002
2.981459e+003,2.692947e-002
2.983387e+003,2.484258e-002
2.985316e+003,2.306871e-002
2.987244e+003,2.146247e-002
2.989173e+003,1.999555e-002
2.991101e+003,1.882299e-002
2.993030e+003,1.787518e-002
2.994958e+003,1.709871e-002
2.996887e+003,1.641242e-002
2.998815e+003,1.574755e-002
3.000744e+003,1.505384e-002
3.002672e+003,1.447909e-002
3.004601e+003,1.391669e-002
3.006529e+003,1.345826e-002
3.008458e+003,1.305201e-002
3.010386e+003,1.261503e-002
3.012315e+003,1.223910e-002
3.014243e+003,1.196073e-002
3.016172e+003,1.169325e-002
3.018100e+003,1.137474e-002
3.020029e+003,1.113446e-002
3.021957e+003,1.080457e-002
3.023886e+003,1.053215e-002
3.025814e+003,1.036639e-002
3.027743e+003,1.009982e-002
3.029671e+003,9.819126e-003
3.031600e+003,9.520464e-003
3.033528e+003,9.239351e-003
3.035457e+003,8.881768e-003
3.037385e+003,8.487426e-003
3.039314e+003,8.158160e-003
3.041242e+003,7.871166e-003
3.043171e+003,7.502513e-003
3.045099e+003,7.184017e-003
3.047028e+003,6.922882e-003
3.048956e+003,6.701769e-003
3.050885e+003,6.480714e-003
3.052813e+003,6.241361e-003
3.054742e+003,6.045124e-003
3.056670e+003,5.843053e-003
3.058599e+003,5.653935e-003
3.060527e+003,5.453482e-003
3.062456e+003,5.355023e-003
3.064384e+003,5.241236e-003
3.066313e+003,5.052682e-003
3.068241e+003,4.879316e-003
3.070170e+003,4.735343e-003
3.072098e+003,4.671788e-003
3.074027e+003,4.543791e-003
3.075955e+003,4.413649e-003
3.077884e+003,4.343506e-003
3.079812e+003,4.297514e-003
3.081741e+003,4.132479e-003
3.083669e+003,3.930856e-003
3.085598e+003,3.754530e-003
3.087526e+003,3.563873e-003
3.089455e+003,3.348069e-003
3.091383e+003,3.109807e-003
3.093312e+003,2.865523e-003
3.095240e+003,2.633868e-003
3.097169e+003,2.330922e-003
3.099097e+003,2.041312e-003
3.101026e+003,1.773024e-003
3.102954e+003,1.630323e-003
3.104883e+003,1.531184e-003
3.106811e+003,1.405532e-003
3.108740e+003,1.247101e-003
3.110668e+003,1.056479e-003
3.112597e+003,9.165239e-004
3.114525e+003,8.465983e-004
3.116454e+003,7.788055e-004
3.118382e+003,7.391032e-004
3.120311e+003,6.065406e-004
3.122239e+003,5.096383e-004
3.124168e+003,5.372372e-004
3.126096e+003,5.860217e-004
3.128025e+003,4.708190e-004
3.129953e+003,4.107524e-004
3.131882e+003,3.573950e-004
3.133810e+003,2.977140e-004
3.135739e+003,3.164578e-004
3.137667e+003,2.658032e-004
3.139596e+003,1.868326e-004
3.141524e+003,1.848079e-004
3.143453e+003,1.453534e-004
3.145381e+003,1.468081e-004
3.147310e+003,1.845658e-004
3.149238e+003,1.888126e-004
3.151167e+003,1.411494e-004
3.153095e+003,1.320355e-004
3.155024e+003,1.064725e-004
3.156952e+003,1.184661e-004
3.158881e+003,1.412611e-004
3.160809e+003,1.985151e-004
3.162738e+003,2.112184e-004
3.164666e+003,2.315361e-004
3.166594e+003,3.128387e-004
3.168523e+003,3.110506e-004
3.170452e+003,1.883786e-004
3.172380e+003,1.023766e-004
3.174309e+003,7.800758e-005
3.176237e+003,1.756586e-004
3.178166e+003,2.425779e-004
3.180094e+003,2.790280e-004
3.182022e+003,2.749339e-004
3.183951e+003,2.992656e-004
3.185880e+003,3.241636e-004
3.187808e+003,3.255866e-004
3.189737e+003,2.963543e-004
3.191665e+003,2.418179e-004
3.193594e+003,1.909919e-004
3.195522e+003,2.089683e-004
3.197450e+003,3.012847e-004
3.199379e+003,2.802666e-004
3.201308e+003,2.233740e-004
3.203236e+003,6.130524e-005
3.205165e+003,1.397729e-005
3.207093e+003,1.737960e-004
3.209021e+003,1.935568e-004
3.210950e+003,1.106877e-004
3.212878e+003,1.557507e-004
3.214807e+003,2.121832e-004
3.216736e+003,1.578946e-004
3.218664e+003,1.132321e-004
3.220593e+003,7.635728e-005
3.222521e+003,8.020923e-005
3.224449e+003,1.383834e-004
3.226378e+003,1.795981e-004
3.228307e+003,1.337081e-004
3.230235e+003,1.193397e-004
3.232164e+003,1.597349e-004
3.234092e+003,1.980979e-004
3.236021e+003,1.672041e-004
3.237949e+003,1.219213e-004
3.239877e+003,3.582239e-005
3.241806e+003,-1.113303e-005
3.243735e+003,1.389366e-004
3.245663e+003,1.853164e-004
3.247592e+003,1.358315e-004
3.249520e+003,1.237746e-004
3.251448e+003,1.563579e-004
3.253377e+003,1.854617e-004
3.255305e+003,1.706481e-004
3.257234e+003,2.870690e-004
3.259163e+003,2.913717e-004
3.261091e+003,3.485307e-004
3.263020e+003,4.966296e-004
3.264948e+003,6.196164e-004
3.266876e+003,5.748067e-004
3.268805e+003,4.428886e-004
3.270733e+003,3.996938e-004
3.272662e+003,4.494693e-004
3.274591e+003,4.857779e-004
3.276519e+003,4.793350e-004
3.278448e+003,4.495792e-004
3.280376e+003,5.037133e-004
3.282304e+003,5.162507e-004
3.284233e+003,4.213341e-004
3.286161e+003,4.407261e-004
3.288090e+003,4.515722e-004
3.290019e+003,4.712250e-004
3.291947e+003,5.891565e-004
3.293875e+003,6.190576e-004
3.295804e+003,5.471501e-004
3.297732e+003,4.800670e-004
3.299661e+003,4.155878e-004
3.301589e+003,3.714748e-004
3.303518e+003,3.667753e-004
3.305447e+003,4.657544e-004
3.307375e+003,4.964657e-004
3.309303e+003,3.974102e-004
3.311232e+003,3.714133e-004
3.313160e+003,4.680399e-004
3.315089e+003,5.121659e-004
3.317018e+003,4.385784e-004
3.318946e+003,3.640130e-004
3.320875e+003,4.255641e-004
3.322803e+003,5.028099e-004
3.324731e+003,5.092658e-004
3.326660e+003,4.852135e-004
3.328588e+003,5.496740e-004
3.330517e+003,5.309116e-004
3.332446e+003,4.680287e-004
3.334374e+003,4.948862e-004
3.336302e+003,5.450398e-004
3.338231e+003,5.719773e-004
3.340159e+003,4.291479e-004
3.342088e+003,4.266333e-004
3.344016e+003,4.474297e-004
3.345945e+003,4.258920e-004
3.347874e+003,4.352611e-004
3.349802e+003,4.196949e-004
3.351730e+003,4.891884e-004
3.353659e+003,5.266331e-004
3.355587e+003,5.098376e-004
3.357516e+003,4.249550e-004
3.359444e+003,4.551467e-004
3.361373e+003,5.348567e-004
3.363302e+003,4.735086e-004
3.365230e+003,5.161874e-004
3.367158e+003,5.554929e-004
3.369087e+003,4.840139e-004
3.371015e+003,4.446134e-004
3.372944e+003,4.718397e-004
3.374872e+003,4.804786e-004
3.376801e+003,3.994051e-004
3.378729e+003,3.782734e-004
3.380658e+003,3.573410e-004
3.382586e+003,3.078841e-004
3.384515e+003,3.282297e-004
3.386443e+003,3.575403e-004
3.388372e+003,3.755335e-004
3.390300e+003,3.832113e-004
3.392229e+003,2.766717e-004
3.394157e+003,1.805797e-004
3.396086e+003,3.048033e-004
3.398014e+003,3.904179e-004
3.399943e+003,3.688950e-004
3.401871e+003,2.928823e-004
3.403800e+003,2.278481e-004
3.405728e+003,1.738016e-004
3.407657e+003,1.477078e-004
3.409585e+003,8.317083e-005
3.411514e+003,3.910437e-005
3.413442e+003,5.504675e-005
3.415371e+003,6.614998e-005
3.417299e+003,4.650652e-005
3.419228e+003,-2.657995e-006
3.421156e+003,1.919083e-005
3.423085e+003,6.191060e-005
3.425013e+003,1.833588e-005
3.426942e+003,-6.517209e-005
3.428870e+003,-1.007505e-004
3.430799e+003,-3.455952e-005
3.432727e+003,-6.621517e-005
3.434656e+003,-1.300946e-004
3.436584e+003,-1.143962e-004
3.438513e+003,-2.015382e-005
3.440441e+003,3.962591e-005
3.442370e+003,-1.028627e-004
3.444298e+003,-2.134498e-004
3.446227e+003,-1.466945e-004
3.448155e+003,-1.742467e-004
3.450084e+003,-2.923030e-004
3.452012e+003,-3.311876e-004
3.453941e+003,-2.878532e-004
3.455869e+003,-3.767032e-004
3.457798e+003,-4.165191e-004
3.459726e+003,-3.168695e-004
3.461655e+003,-2.456829e-004
3.463583e+003,-3.410392e-004
3.465512e+003,-4.050881e-004
3.467440e+003,-5.335975e-004
3.469369e+003,-6.285682e-004
3.471297e+003,-6.531924e-004
3.473226e+003,-6.462447e-004
3.475154e+003,-6.988812e-004
3.477083e+003,-8.322503e-004
3.479011e+003,-8.193962e-004
3.480940e+003,-6.804317e-004
3.482868e+003,-7.187277e-004
3.484797e+003,-7.198099e-004
3.486725e+003,-6.668922e-004
3.488654e+003,-7.151607e-004
3.490582e+003,-7.761084e-004
3.492511e+003,-8.952394e-004
3.494439e+003,-9.152275e-004
3.496368e+003,-8.357950e-004
3.498296e+003,-7.927120e-004
3.500225e+003,-6.780736e-004
3.502153e+003,-6.051175e-004
3.504082e+003,-8.207001e-004
3.506010e+003,-1.069689e-003
3.507939e+003,-9.941217e-004
3.509867e+003,-9.938516e-004
3.511796e+003,-1.152005e-003
3.513724e+003,-1.232974e-003
3.515653e+003,-1.266005e-003
3.517581e+003,-1.264339e-003
3.519510e+003,-1.201387e-003
3.521438e+003,-1.045950e-003
3.523367e+003,-9.947158e-004
3.525295e+003,-1.147052e-003
3.527224e+003,-1.016025e-003
3.529152e+003,-1.051459e-003
3.531081e+003,-1.312140e-003
3.533009e+003,-1.473444e-003
3.534938e+003,-1.466516e-003
3.536866e+003,-1.512919e-003
3.538795e+003,-1.526114e-003
3.540723e+003,-1.505325e-003
3.542652e+003,-1.466788e-003
3.544580e+003,-1.317702e-003
3.546509e+003,-1.257550e-003
3.548437e+003,-1.276530e-003
3.550366e+003,-1.186512e-003
3.552294e+003,-1.224089e-003
3.554223e+003,-1.489697e-003
3.556151e+003,-1.522791e-003
3.558080e+003,-1.482297e-003
3.560008e+003,-1.383144e-003
3.561937e+003,-1.312055e-003
3.563865e+003,-1.139279e-003
3.565794e+003,-7.121749e-004
3.567722e+003,-8.681938e-004
3.569651e+003,-1.339085e-003
3.571579e+003,-1.503408e-003
3.573508e+003,-1.668133e-003
3.575436e+003,-1.717228e-003
3.577365e+003,-1.624148e-003
3.579293e+003,-1.490898e-003
3.581222e+003,-1.430035e-003
3.583150e+003,-1.367040e-003
3.585079e+003,-1.060400e-003
3.587007e+003,-4.395358e-004
3.588936e+003,-5.213432e-004
3.590864e+003,-5.298629e-004
3.592793e+003,-1.317263e-004
3.594721e+003,2.192445e-004
3.596650e+003,2.970546e-004
3.598578e+003,5.801246e-004
3.600507e+003,9.919554e-004
3.602435e+003,9.339377e-004
3.604364e+003,9.060092e-004
3.606292e+003,1.206003e-003
3.608221e+003,1.272291e-003
3.610149e+003,1.146663e-003
3.612078e+003,1.358099e-003
3.614006e+003,8.370094e-004
3.615935e+003,1.904257e-004
3.617863e+003,2.750345e-004
3.619792e+003,3.374293e-004
3.621720e+003,1.713261e-005
3.623649e+003,-3.207326e-004
3.625577e+003,-3.866740e-004
3.627506e+003,3.403351e-004
3.629434e+003,6.754883e-004
3.631363e+003,1.503713e-004
3.633291e+003,6.471202e-005
3.635220e+003,-3.239363e-004
3.637148e+003,-3.828406e-004
3.639077e+003,-2.072081e-004
3.641005e+003,-1.621172e-004
3.642934e+003,-2.481639e-004
3.644862e+003,-1.407564e-004
3.646791e+003,5.638190e-004
3.648719e+003,1.204442e-003
3.650648e+003,6.155297e-004
3.652576e+003,-2.781563e-004
3.654505e+003,-2.143979e-004
3.656433e+003,-3.864355e-004
3.658362e+003,-7.115006e-004
3.660290e+003,-6.194152e-004
3.662219e+003,-7.218868e-004
3.664147e+003,-8.470304e-004
3.666076e+003,-8.340105e-004
3.668004e+003,-1.700744e-004
3.669933e+003,4.811622e-004
3.671861e+003,-1.612939e-004
3.673790e+003,3.373884e-004
3.675718e+003,7.178672e-004
3.677647e+003,-2.051666e-004
3.679575e+003,-4.663505e-004
3.681504e+003,-7.432178e-004
3.683432e+003,-7.298402e-004
3.685361e+003,-6.906353e-004
3.687289e+003,-2.374910e-004
3.689218e+003,4.198588e-004
3.691146e+003,-1.638085e-004
3.693075e+003,-7.734895e-004
3.695003e+003,-7.847250e-004
3.696932e+003,-6.611198e-004
3.698860e+003,-7.530414e-004
3.700789e+003,-6.984212e-004
3.702717e+003,-6.318465e-004
3.704646e+003,-7.236488e-004
3.706574e+003,-6.911308e-004
3.708503e+003,-7.696450e-005
3.710431e+003,1.021646e-003
3.712360e+003,4.920065e-004
3.714288e+003,-4.763938e-004
3.716217e+003,-7.547773e-004
3.718145e+003,-5.608909e-004
3.720074e+003,-9.731576e-005
3.722002e+003,1.521409e-004
3.723931e+003,7.041916e-005
3.725859e+003,1.132302e-004
3.727788e+003,-3.375635e-004
3.729716e+003,-2.554171e-004
3.731645e+003,3.604554e-004
3.733573e+003,1.054984e-003
3.735502e+003,1.531154e-003
3.737430e+003,5.167127e-004
3.739359e+003,-8.530915e-007
3.741287e+003,5.551428e-005
3.743216e+003,1.128387e-003
3.745144e+003,1.601141e-003
3.747073e+003,7.971264e-004
3.749001e+003,1.001857e-003
3.750930e+003,1.221057e-003
3.752858e+003,3.061108e-004
3.754787e+003,-2.872534e-004
3.756715e+003,-2.476089e-004
3.758644e+003,6.144121e-005
3.760572e+003,-5.796179e-005
3.762501e+003,-4.566461e-004
3.764429e+003,-4.665852e-004
3.766358e+003,-4.482344e-004
3.768286e+003,-2.540983e-004
3.770215e+003,-1.005903e-004
3.772143e+003,-3.646053e-004
3.774072e+003,-5.233437e-004
3.776000e+003,-5.120113e-004
3.777929e+003,-7.610023e-005
3.779857e+003,3.528595e-005
3.781786e+003,-1.904480e-004
3.783714e+003,4.677847e-005
3.785643e+003,-1.391992e-004
3.787571e+003,-3.840737e-004
3.789500e+003,-3.646873e-004
3.791428e+003,-4.447438e-004
3.793357e+003,-3.859475e-004
3.795285e+003,-1.773238e-006
3.797214e+003,2.190545e-004
3.799142e+003,4.981682e-004
3.801071e+003,1.151301e-003
3.802999e+003,4.431903e-004
3.804927e+003,2.259873e-004
3.806856e+003,2.894662e-004
3.808785e+003,-4.936755e-005
3.810713e+003,3.185123e-006
3.812642e+003,1.617819e-004
3.814570e+003,8.748211e-004
3.816499e+003,8.136518e-004
3.818427e+003,7.740334e-004
3.820355e+003,1.621690e-003
3.822284e+003,8.003153e-004
3.824213e+003,4.525930e-004
3.826141e+003,5.897172e-004
3.828070e+003,3.312901e-004
3.829998e+003,4.130937e-004
3.831927e+003,5.332753e-004
3.833855e+003,6.972104e-004
3.835783e+003,1.142155e-003
3.837712e+003,1.496110e-003
3.839641e+003,1.277667e-003
3.841569e+003,7.682778e-004
3.843498e+003,4.927069e-004
3.845426e+003,2.260134e-004
3.847354e+003,1.165941e-004
3.849283e+003,2.973564e-004
3.851211e+003,1.092669e-003
3.853140e+003,2.131987e-003
3.855069e+003,9.073131e-004
3.856997e+003,3.056414e-004
3.858926e+003,1.977012e-005
3.860854e+003,2.669021e-004
3.862782e+003,8.999445e-004
3.864711e+003,1.135975e-003
3.866640e+003,7.911138e-004
3.868568e+003,1.221567e-003
3.870497e+003,1.021147e-003
3.872425e+003,9.663031e-004
3.874354e+003,9.678453e-004
3.876282e+003,3.476515e-004
3.878210e+003,4.845709e-004
3.880139e+003,9.572282e-004
3.882068e+003,8.794591e-004
3.883996e+003,1.067422e-003
3.885925e+003,7.269643e-004
3.887853e+003,3.558248e-004
3.889781e+003,6.585121e-004
3.891710e+003,9.291135e-004
3.893638e+003,6.075874e-004
3.895567e+003,4.788302e-004
3.897496e+003,8.079410e-004
3.899424e+003,1.215544e-003
3.901353e+003,1.282107e-003
3.903281e+003,1.390271e-003
3.905209e+003,9.582154e-004
3.907138e+003,5.042627e-004
3.909066e+003,3.355443e-004
3.910995e+003,4.284158e-004
3.912924e+003,5.551912e-004
3.914852e+003,6.884523e-004
3.916781e+003,7.908083e-004
3.918709e+003,7.254593e-004
3.920637e+003,5.786233e-004
3.922566e+003,6.857179e-004
3.924494e+003,8.459724e-004
3.926423e+003,6.059855e-004
3.928352e+003,6.295405e-004
3.930280e+003,7.702895e-004
3.932208e+003,7.650331e-004
3.934137e+003,3.948659e-004
3.936065e+003,2.218373e-004
3.937994e+003,2.905950e-004
3.939922e+003,3.854446e-004
3.941851e+003,5.981624e-004
3.943780e+003,4.485101e-004
3.945708e+003,1.946092e-004
3.947636e+003,2.782233e-004
3.949565e+003,3.315508e-004
3.951493e+003,2.318099e-004
3.953422e+003,2.325363e-004
3.955351e+003,2.324581e-004
3.957279e+003,1.976602e-004
3.959208e+003,2.058744e-004
3.961136e+003,2.732687e-004
3.963064e+003,2.393685e-004
3.964993e+003,1.724027e-004
3.966921e+003,2.566688e-004
3.968850e+003,3.439672e-004
3.970779e+003,2.886504e-004
3.972707e+003,3.110580e-004
3.974635e+003,4.481897e-004
3.976564e+003,3.908128e-004
3.978492e+003,1.921467e-004
3.980421e+003,2.831668e-004
3.982349e+003,4.044995e-004
3.984278e+003,3.404990e-004
3.986207e+003,2.042055e-004
3.988135e+003,1.855753e-004
3.990063e+003,2.142303e-004
3.991992e+003,1.757033e-004
3.993920e+003,1.893640e-004
3.995849e+003,1.561977e-004
3.997777e+003,1.308583e-004
3.999706e+003,8.611754e-005
4.001635e+003,0.000000e+000
