3.991992e+002,0.000000e+000
4.011277e+002,0.000000e+000
4.030562e+002,0.000000e+000
4.049846e+002,0.000000e+000
4.069131e+002,0.000000e+000
4.088416e+002,0.000000e+000
4.107701e+002,0.000000e+000
4.126986e+002,0.000000e+000
4.146271e+002,0.000000e+000
4.165556e+002,0.000000e+000
4.184841e+002,0.000000e+000
4.204126e+002,0.000000e+000
4.223411e+002,0.000000e+000
4.242697e+002,0.000000e+000
4.261982e+002,0.000000e+000
4.281266e+002,0.000000e+000
4.300551e+002,0.000000e+000
4.319836e+002,0.000000e+000
4.339121e+002,0.000000e+000
4.358406e+002,0.000000e+000
4.377691e+002,0.000000e+000
4.396976e+002,0.000000e+000
4.416261e+002,0.000000e+000
4.435546e+002,0.000000e+000
4.454831e+002,0.000000e+000
4.474116e+002,0.000000e+000
4.493401e+002,0.000000e+000
4.512686e+002,0.000000e+000
4.531971e+002,0.000000e+000
4.551256e+002,0.000000e+000
4.570541e+002,0.000000e+000
4.589826e+002,0.000000e+000
4.609111e+002,0.000000e+000
4.628396e+002,0.000000e+000
4.647681e+002,0.000000e+000
4.666966e+002,0.000000e+000
4.686251e+002,0.000000e+000
4.705536e+002,0.000000e+000
4.724821e+002,0.000000e+000
4.744106e+002,0.000000e+000
4.763391e+002,0.000000e+000
4.782676e+002,0.000000e+000
4.801961e+002,0.000000e+000
4.821246e+002,0.000000e+000
4.840531e+002,0.000000e+000
4.859816e+002,0.000000e+000
4.879101e+002,0.000000e+000
4.898386e+002,0.000000e+000
4.917671e+002,0.000000e+000
4.936956e+002,0.000000e+000
4.956241e+002,0.000000e+000
4.975526e+002,0.000000e+000
4.994811e+002,0.000000e+000
5.014096e+002,0.000000e+000
5.033381e+002,0.000000e+000
5.052666e+002,0.000000e+000
5.071951e+002,0.000000e+000
5.091236e+002,0.000000e+000
5.110521e+002,0.000000e+000
5.129806e+002,0.000000e+000
5.149091e+002,0.000000e+000
5.168376e+002,0.000000e+000
5.187661e+002,0.000000e+000
5.206946e+002,0.000000e+000
5.226230e+002,0.000000e+000
5.245516e+002,-6.275810e-004
5.264800e+002,-6.176699e-004
5.284086e+002,-5.818643e-004
5.303370e+002,-5.894229e-004
5.322656e+002,-5.444791e-004
5.341940e+002,-4.347861e-004
5.361226e+002,-2.800934e-004
5.380510e+002,-2.991240e-004
5.399796e+002,-4.269592e-004
5.419081e+002,-4.912019e-004
5.438365e+002,-4.974287e-004
5.457650e+002,-4.428681e-004
5.476935e+002,-3.462229e-004
5.496221e+002,-4.375428e-004
5.515505e+002,-3.630873e-004
5.534790e+002,-2.588145e-004
5.554075e+002,-1.792740e-004
5.573361e+002,-1.582578e-004
5.592645e+002,-1.861360e-004
5.611931e+002,-1.702867e-004
5.631215e+002,-1.376234e-004
5.650500e+002,-1.219772e-004
5.669785e+002,-9.493716e-005
5.689070e+002,2.609380e-005
5.708355e+002,1.640413e-004
5.727640e+002,2.994593e-004
5.746925e+002,4.839338e-004
5.766210e+002,5.188975e-004
5.785495e+002,4.355088e-004
5.804780e+002,3.020074e-004
5.824065e+002,2.681203e-004
5.843350e+002,3.074426e-004
5.862635e+002,3.578290e-004
5.881920e+002,2.448261e-004
5.901205e+002,2.342779e-004
5.920490e+002,3.023222e-004
5.939775e+002,2.650935e-004
5.959060e+002,2.149399e-004
5.978345e+002,3.903024e-004
5.997630e+002,4.696921e-004
6.016915e+002,4.955679e-004
6.036200e+002,6.141327e-004
6.055485e+002,7.615592e-004
6.074770e+002,7.679649e-004
6.094055e+002,7.936880e-004
6.113340e+002,8.011740e-004
6.132625e+002,7.506497e-004
6.151910e+002,6.232057e-004
6.171195e+002,5.905218e-004
6.190480e+002,7.382371e-004
6.209765e+002,9.201486e-004
6.229050e+002,9.617098e-004
6.248335e+002,9.450018e-004
6.267620e+002,8.584559e-004
6.286905e+002,9.376183e-004
6.306190e+002,9.809267e-004
6.325475e+002,9.929594e-004
6.344760e+002,9.563304e-004
6.364045e+002,1.110960e-003
6.383330e+002,1.207432e-003
6.402615e+002,1.291992e-003
6.421899e+002,1.294727e-003
6.441185e+002,1.343485e-003
6.460470e+002,1.312120e-003
6.479755e+002,1.341887e-003
6.499039e+002,1.348604e-003
6.518325e+002,1.399979e-003
6.537610e+002,1.425082e-003
6.556895e+002,1.558464e-003
6.576179e+002,1.593390e-003
6.595464e+002,1.662796e-003
6.614750e+002,1.670390e-003
6.634034e+002,1.697494e-003
6.653319e+002,1.697699e-003
6.672604e+002,1.733374e-003
6.691890e+002,1.756340e-003
6.711174e+002,1.906469e-003
6.730460e+002,2.000218e-003
6.749745e+002,2.106592e-003
6.769030e+002,2.153555e-003
6.788314e+002,2.345642e-003
6.807599e+002,2.421567e-003
6.826885e+002,2.555296e-003
6.846169e+002,2.645928e-003
6.865454e+002,2.833739e-003
6.884739e+002,2.936892e-003
6.904025e+002,3.276488e-003
6.923309e+002,3.577551e-003
6.942594e+002,3.981397e-003
6.961879e+002,4.435390e-003
6.981165e+002,5.167043e-003
7.000449e+002,6.056655e-003
7.019734e+002,7.306563e-003
7.039019e+002,8.806352e-003
7.058304e+002,1.090080e-002
7.077589e+002,1.368883e-002
7.096874e+002,1.790302e-002
7.116159e+002,2.463328e-002
7.135444e+002,3.711494e-002
7.154729e+002,5.959612e-002
7.174014e+002,9.117755e-002
7.193299e+002,1.030130e-001
7.212584e+002,7.520761e-002
7.231869e+002,4.910845e-002
7.251154e+002,3.980924e-002
7.270439e+002,4.297742e-002
7.289724e+002,5.604699e-002
7.309009e+002,5.386066e-002
7.328294e+002,3.077020e-002
7.347579e+002,1.531653e-002
7.366864e+002,9.969227e-003
7.386149e+002,7.789429e-003
7.405434e+002,6.489743e-003
7.424719e+002,5.706474e-003
7.444004e+002,5.128972e-003
7.463289e+002,4.764538e-003
7.482574e+002,4.416015e-003
7.501859e+002,4.188811e-003
7.521144e+002,3.954960e-003
7.540428e+002,3.778921e-003
7.559714e+002,3.531085e-003
7.578999e+002,3.370289e-003
7.598284e+002,3.228109e-003
7.617568e+002,3.166519e-003
7.636854e+002,3.137894e-003
7.656139e+002,3.104633e-003
7.675424e+002,3.004475e-003
7.694709e+002,2.946086e-003
7.713994e+002,2.893845e-003
7.733279e+002,2.765447e-003
7.752563e+002,2.566570e-003
7.771849e+002,2.449607e-003
7.791134e+002,2.359726e-003
7.810419e+002,2.340645e-003
7.829703e+002,2.309429e-003
7.848989e+002,2.310589e-003
7.868274e+002,2.301266e-003
7.887559e+002,2.281001e-003
7.906843e+002,2.203364e-003
7.926129e+002,2.184050e-003
7.945414e+002,2.185985e-003
7.964698e+002,2.163107e-003
7.983983e+002,2.196569e-003
8.003268e+002,2.229244e-003
8.022554e+002,2.209246e-003
8.041838e+002,2.160797e-003
8.061123e+002,2.098171e-003
8.080408e+002,2.121476e-003
8.099694e+002,2.204865e-003
8.118978e+002,2.252217e-003
8.138263e+002,2.265679e-003
8.157548e+002,2.212455e-003
8.176833e+002,2.081729e-003
8.196118e+002,1.920260e-003
8.215403e+002,1.739588e-003
8.234689e+002,1.496648e-003
8.253973e+002,1.258044e-003
8.273258e+002,1.106797e-003
8.292543e+002,1.035135e-003
8.311829e+002,9.816065e-004
8.331113e+002,8.594263e-004
8.350398e+002,8.149967e-004
8.369683e+002,9.058919e-004
8.388969e+002,9.581838e-004
8.408253e+002,9.702835e-004
8.427538e+002,9.615868e-004
8.446823e+002,9.820573e-004
8.466108e+002,1.025222e-003
8.485393e+002,1.105100e-003
8.504678e+002,1.136048e-003
8.523963e+002,1.205819e-003
8.543248e+002,1.281120e-003
8.562533e+002,1.346719e-003
8.581818e+002,1.499617e-003
8.601103e+002,1.693781e-003
8.620388e+002,1.826067e-003
8.639673e+002,1.938283e-003
8.658958e+002,1.970930e-003
8.678243e+002,1.926182e-003
8.697528e+002,1.915226e-003
8.716813e+002,1.867291e-003
8.736098e+002,1.771539e-003
8.755383e+002,1.679115e-003
8.774668e+002,1.579016e-003
8.793953e+002,1.548501e-003
8.813238e+002,1.557229e-003
8.832523e+002,1.627792e-003
8.851808e+002,1.709409e-003
8.871093e+002,1.792597e-003
8.890378e+002,1.787852e-003
8.909663e+002,1.703201e-003
8.928948e+002,1.611430e-003
8.948232e+002,1.604853e-003
8.967518e+002,1.557270e-003
8.986803e+002,1.514560e-003
9.006088e+002,1.603529e-003
9.025372e+002,1.748180e-003
9.044658e+002,1.912083e-003
9.063943e+002,2.155975e-003
9.083228e+002,2.358599e-003
9.102512e+002,2.235528e-003
9.121797e+002,1.937386e-003
9.141083e+002,1.687726e-003
9.160367e+002,1.593411e-003
9.179653e+002,1.607092e-003
9.198937e+002,1.595262e-003
9.218223e+002,1.620200e-003
9.237507e+002,1.651097e-003
9.256793e+002,1.671871e-003
9.276077e+002,1.759617e-003
9.295363e+002,1.868669e-003
9.314647e+002,1.877191e-003
9.333932e+002,1.852065e-003
9.353217e+002,1.904687e-003
9.372502e+002,2.039878e-003
9.391787e+002,2.063930e-003
9.411072e+002,2.081091e-003
9.430358e+002,2.043985e-003
9.449642e+002,1.992896e-003
9.468928e+002,1.996804e-003
9.488212e+002,2.011690e-003
9.507498e+002,1.973001e-003
9.526782e+002,2.076348e-003
9.546068e+002,2.216812e-003
9.565352e+002,2.310410e-003
9.584637e+002,2.385937e-003
9.603922e+002,2.532449e-003
9.623207e+002,2.655407e-003
9.642492e+002,2.769513e-003
9.661777e+002,2.845094e-003
9.681062e+002,2.933076e-003
9.700347e+002,2.996298e-003
9.719632e+002,3.110945e-003
9.738917e+002,3.188064e-003
9.758202e+002,3.281688e-003
9.777487e+002,3.465001e-003
9.796772e+002,3.769655e-003
9.816057e+002,4.058875e-003
9.835342e+002,4.412660e-003
9.854627e+002,4.936662e-003
9.873912e+002,5.575735e-003
9.893197e+002,6.320380e-003
9.912482e+002,7.205280e-003
9.931767e+002,8.158404e-003
9.951052e+002,9.240445e-003
9.970337e+002,1.044891e-002
9.989622e+002,1.169910e-002
1.000891e+003,1.293587e-002
1.002819e+003,1.411315e-002
1.004748e+003,1.499274e-002
1.006676e+003,1.559682e-002
1.008605e+003,1.592111e-002
1.010533e+003,1.601340e-002
1.012462e+003,1.596767e-002
1.014390e+003,1.588384e-002
1.016319e+003,1.577233e-002
1.018247e+003,1.573958e-002
1.020176e+003,1.566162e-002
1.022104e+003,1.554945e-002
1.024033e+003,1.549778e-002
1.025961e+003,1.542665e-002
1.027890e+003,1.525092e-002
1.029818e+003,1.508092e-002
1.031747e+003,1.488991e-002
1.033675e+003,1.473729e-002
1.035604e+003,1.460798e-002
1.037532e+003,1.458530e-002
1.039461e+003,1.460111e-002
1.041389e+003,1.469700e-002
1.043318e+003,1.487432e-002
1.045246e+003,1.514878e-002
1.047175e+003,1.542327e-002
1.049103e+003,1.579719e-002
1.051032e+003,1.605669e-002
1.052960e+003,1.601830e-002
1.054889e+003,1.573904e-002
1.056817e+003,1.531166e-002
1.058746e+003,1.480541e-002
1.060674e+003,1.435501e-002
1.062603e+003,1.391407e-002
1.064531e+003,1.358520e-002
1.066460e+003,1.339983e-002
1.068388e+003,1.351191e-002
1.070317e+003,1.394653e-002
1.072245e+003,1.464809e-002
1.074174e+003,1.529684e-002
1.076102e+003,1.570459e-002
1.078031e+003,1.580287e-002
1.079959e+003,1.567327e-002
1.081888e+003,1.539396e-002
1.083816e+003,1.506200e-002
1.085745e+003,1.464298e-002
1.087673e+003,1.421794e-002
1.089602e+003,1.382946e-002
1.091530e+003,1.343743e-002
1.093459e+003,1.303805e-002
1.095387e+003,1.275943e-002
1.097316e+003,1.248011e-002
1.099244e+003,1.222892e-002
1.101173e+003,1.199043e-002
1.103101e+003,1.183528e-002
1.105030e+003,1.162479e-002
1.106958e+003,1.136211e-002
1.108887e+003,1.106433e-002
1.110815e+003,1.084262e-002
1.112744e+003,1.059413e-002
1.114672e+003,1.039153e-002
1.116601e+003,1.019776e-002
1.118529e+003,1.007753e-002
1.120458e+003,9.991411e-003
1.122386e+003,9.978792e-003
1.124315e+003,9.890726e-003
1.126243e+003,9.856274e-003
1.128172e+003,9.780731e-003
1.130100e+003,9.647328e-003
1.132029e+003,9.437636e-003
1.133957e+003,9.343868e-003
1.135885e+003,9.370364e-003
1.137814e+003,9.545963e-003
1.139743e+003,9.831162e-003
1.141671e+003,1.025761e-002
1.143600e+003,1.076520e-002
1.145528e+003,1.136871e-002
1.147457e+003,1.197454e-002
1.149385e+003,1.258039e-002
1.151314e+003,1.312613e-002
1.153242e+003,1.358706e-002
1.155171e+003,1.377649e-002
1.157099e+003,1.370325e-002
1.159028e+003,1.335892e-002
1.160956e+003,1.285664e-002
1.162885e+003,1.218935e-002
1.164813e+003,1.143328e-002
1.166742e+003,1.061502e-002
1.168670e+003,9.821497e-003
1.170599e+003,8.995110e-003
1.172527e+003,8.302528e-003
1.174456e+003,7.690167e-003
1.176384e+003,7.209823e-003
1.178313e+003,6.703231e-003
1.180241e+003,6.259520e-003
1.182170e+003,5.950563e-003
1.184098e+003,5.790059e-003
1.186027e+003,5.671924e-003
1.187955e+003,5.676312e-003
1.189884e+003,5.668376e-003
1.191812e+003,5.725766e-003
1.193740e+003,5.788404e-003
1.195669e+003,5.916463e-003
1.197598e+003,6.092677e-003
1.199526e+003,6.327907e-003
1.201455e+003,6.571596e-003
1.203383e+003,6.893968e-003
1.205312e+003,7.184846e-003
1.207240e+003,7.458394e-003
1.209168e+003,7.714313e-003
1.211097e+003,8.000094e-003
1.213026e+003,8.225959e-003
1.214954e+003,8.466043e-003
1.216883e+003,8.665802e-003
1.218811e+003,8.916121e-003
1.220740e+003,9.143997e-003
1.222668e+003,9.373056e-003
1.224596e+003,9.556832e-003
1.226525e+003,9.770421e-003
1.228453e+003,9.946076e-003
1.230382e+003,1.013790e-002
1.232311e+003,1.034281e-002
1.234239e+003,1.055318e-002
1.236167e+003,1.064926e-002
1.238096e+003,1.073057e-002
1.240025e+003,1.074195e-002
1.241953e+003,1.076913e-002
1.243882e+003,1.071735e-002
1.245810e+003,1.059379e-002
1.247739e+003,1.036944e-002
1.249667e+003,1.013981e-002
1.251595e+003,9.860117e-003
1.253524e+003,9.663410e-003
1.255453e+003,9.444539e-003
1.257381e+003,9.259444e-003
1.259310e+003,9.021461e-003
1.261238e+003,8.840453e-003
1.263167e+003,8.652579e-003
1.265095e+003,8.526977e-003
1.267023e+003,8.419368e-003
1.268952e+003,8.401170e-003
1.270880e+003,8.315783e-003
1.272809e+003,8.311041e-003
1.274738e+003,8.329909e-003
1.276666e+003,8.384723e-003
1.278594e+003,8.403640e-003
1.280523e+003,8.506019e-003
1.282451e+003,8.632585e-003
1.284380e+003,8.834135e-003
1.286308e+003,9.011772e-003
1.288237e+003,9.289205e-003
1.290166e+003,9.564329e-003
1.292094e+003,9.950481e-003
1.294022e+003,1.034186e-002
1.295951e+003,1.077461e-002
1.297879e+003,1.112408e-002
1.299808e+003,1.143036e-002
1.301736e+003,1.157713e-002
1.303665e+003,1.166286e-002
1.305594e+003,1.162790e-002
1.307522e+003,1.157636e-002
1.309450e+003,1.137744e-002
1.311379e+003,1.113821e-002
1.313307e+003,1.072364e-002
1.315236e+003,1.038748e-002
1.317164e+003,1.004084e-002
1.319093e+003,9.767983e-003
1.321021e+003,9.473659e-003
1.322950e+003,9.258505e-003
1.324878e+003,9.028152e-003
1.326807e+003,8.986488e-003
1.328735e+003,8.988030e-003
1.330664e+003,9.165455e-003
1.332592e+003,9.385377e-003
1.334521e+003,9.763315e-003
1.336449e+003,1.025436e-002
1.338378e+003,1.096243e-002
1.340306e+003,1.158305e-002
1.342235e+003,1.205203e-002
1.344163e+003,1.237050e-002
1.346092e+003,1.285471e-002
1.348021e+003,1.341603e-002
1.349949e+003,1.404224e-002
1.351877e+003,1.434740e-002
1.353806e+003,1.438764e-002
1.355734e+003,1.422974e-002
1.357663e+003,1.428676e-002
1.359591e+003,1.458465e-002
1.361520e+003,1.529546e-002
1.363448e+003,1.630400e-002
1.365377e+003,1.725175e-002
1.367305e+003,1.787722e-002
1.369234e+003,1.786316e-002
1.371162e+003,1.698799e-002
1.373091e+003,1.602300e-002
1.375019e+003,1.558994e-002
1.376948e+003,1.550953e-002
1.378876e+003,1.408228e-002
1.380805e+003,1.183930e-002
1.382733e+003,1.017388e-002
1.384662e+003,9.404972e-003
1.386590e+003,8.841787e-003
1.388519e+003,8.522283e-003
1.390447e+003,8.217216e-003
1.392376e+003,8.157901e-003
1.394304e+003,7.995140e-003
1.396233e+003,8.129038e-003
1.398161e+003,8.080401e-003
1.400090e+003,8.255754e-003
1.402018e+003,8.219764e-003
1.403947e+003,8.428566e-003
1.405875e+003,8.541834e-003
1.407804e+003,8.792605e-003
1.409732e+003,8.896608e-003
1.411661e+003,9.233523e-003
1.413589e+003,9.398654e-003
1.415518e+003,9.759679e-003
1.417446e+003,9.933673e-003
1.419375e+003,1.065775e-002
1.421303e+003,1.107240e-002
1.423232e+003,1.197047e-002
1.425160e+003,1.318672e-002
1.427089e+003,1.476007e-002
1.429017e+003,1.676540e-002
1.430946e+003,1.978362e-002
1.432874e+003,2.221392e-002
1.434803e+003,2.447591e-002
1.436731e+003,2.692484e-002
1.438660e+003,2.912216e-002
1.440588e+003,3.025703e-002
1.442517e+003,3.186974e-002
1.444445e+003,3.309115e-002
1.446374e+003,3.499412e-002
1.448302e+003,3.785904e-002
1.450231e+003,4.238513e-002
1.452159e+003,4.915120e-002
1.454088e+003,5.786595e-002
1.456016e+003,6.672692e-002
1.457945e+003,8.993002e-002
1.459873e+003,1.307015e-001
1.461802e+003,1.676342e-001
1.463730e+003,1.626543e-001
1.465659e+003,1.243706e-001
1.467587e+003,1.131131e-001
1.469516e+003,1.108059e-001
1.471444e+003,1.247199e-001
1.473373e+003,1.101857e-001
1.475301e+003,5.969601e-002
1.477230e+003,2.644997e-002
1.479158e+003,1.698449e-002
1.481087e+003,1.262441e-002
1.483015e+003,1.070181e-002
1.484944e+003,9.078898e-003
1.486872e+003,8.619469e-003
1.488801e+003,7.495884e-003
1.490729e+003,7.311549e-003
1.492658e+003,6.521240e-003
1.494586e+003,6.532095e-003
1.496515e+003,5.896855e-003
1.498443e+003,6.046604e-003
1.500372e+003,5.634863e-003
1.502300e+003,5.648360e-003
1.504229e+003,5.223233e-003
1.506157e+003,5.602174e-003
1.508086e+003,5.250990e-003
1.510014e+003,5.493902e-003
1.511943e+003,5.118646e-003
1.513871e+003,5.257811e-003
1.515800e+003,5.073536e-003
1.517728e+003,5.346462e-003
1.519657e+003,5.041644e-003
1.521585e+003,5.413443e-003
1.523514e+003,5.113855e-003
1.525442e+003,5.314108e-003
1.527371e+003,5.118135e-003
1.529299e+003,5.181599e-003
1.531228e+003,5.000975e-003
1.533156e+003,5.281534e-003
1.535085e+003,5.206574e-003
1.537013e+003,5.326834e-003
1.538942e+003,5.207136e-003
1.540870e+003,5.711153e-003
1.542799e+003,5.351853e-003
1.544727e+003,5.327854e-003
1.546656e+003,4.995536e-003
1.548584e+003,5.010083e-003
1.550513e+003,4.852913e-003
1.552441e+003,4.837215e-003
1.554370e+003,4.585374e-003
1.556298e+003,4.540365e-003
1.558227e+003,4.260264e-003
1.560155e+003,4.546273e-003
1.562084e+003,4.159000e-003
1.564012e+003,4.129097e-003
1.565941e+003,4.011679e-003
1.567869e+003,4.106507e-003
1.569798e+003,4.026920e-003
1.571726e+003,4.055899e-003
1.573655e+003,3.932185e-003
1.575583e+003,4.070215e-003
1.577512e+003,4.079446e-003
1.579440e+003,4.167084e-003
1.581369e+003,4.124448e-003
1.583297e+003,4.190620e-003
1.585226e+003,4.199829e-003
1.587154e+003,4.302025e-003
1.589083e+003,4.304428e-003
1.591011e+003,4.368741e-003
1.592940e+003,4.321348e-003
1.594868e+003,4.467826e-003
1.596797e+003,4.482318e-003
1.598725e+003,4.592326e-003
1.600654e+003,4.632190e-003
1.602582e+003,4.776698e-003
1.604511e+003,4.808042e-003
1.606439e+003,4.958611e-003
1.608368e+003,5.047988e-003
1.610296e+003,5.252339e-003
1.612225e+003,5.366962e-003
1.614153e+003,5.551960e-003
1.616082e+003,5.674295e-003
1.618010e+003,6.022025e-003
1.619939e+003,6.087411e-003
1.621867e+003,6.267495e-003
1.623796e+003,6.478772e-003
1.625724e+003,6.683715e-003
1.627653e+003,6.860092e-003
1.629581e+003,7.123388e-003
1.631510e+003,7.158674e-003
1.633438e+003,7.315226e-003
1.635367e+003,7.512692e-003
1.637295e+003,7.917840e-003
1.639224e+003,7.863712e-003
1.641152e+003,7.963262e-003
1.643081e+003,7.945076e-003
1.645009e+003,8.029081e-003
1.646938e+003,8.094698e-003
1.648866e+003,8.055735e-003
1.650795e+003,7.779088e-003
1.652723e+003,7.868867e-003
1.654652e+003,7.472333e-003
1.656580e+003,7.188175e-003
1.658509e+003,6.883726e-003
1.660437e+003,6.779220e-003
1.662366e+003,6.537057e-003
1.664294e+003,6.276395e-003
1.666223e+003,6.005313e-003
1.668151e+003,5.879670e-003
1.670080e+003,5.537990e-003
1.672008e+003,5.371954e-003
1.673937e+003,5.050849e-003
1.675865e+003,4.877955e-003
1.677794e+003,4.635025e-003
1.679722e+003,4.521631e-003
1.681651e+003,4.234083e-003
1.683579e+003,4.159808e-003
1.685508e+003,3.695652e-003
1.687436e+003,3.568389e-003
1.689365e+003,3.277738e-003
1.691293e+003,3.123265e-003
1.693222e+003,2.907019e-003
1.695150e+003,2.881583e-003
1.697079e+003,2.782896e-003
1.699007e+003,2.814520e-003
1.700936e+003,2.644170e-003
1.702864e+003,2.497617e-003
1.704793e+003,2.358280e-003
1.706721e+003,2.338298e-003
1.708650e+003,2.179604e-003
1.710578e+003,2.224896e-003
1.712507e+003,2.170406e-003
1.714435e+003,2.253417e-003
1.716364e+003,2.286270e-003
1.718292e+003,2.462231e-003
1.720221e+003,2.282765e-003
1.722149e+003,2.296139e-003
1.724078e+003,2.289176e-003
1.726006e+003,2.340466e-003
1.727935e+003,2.344403e-003
1.729863e+003,2.501272e-003
1.731792e+003,2.469990e-003
1.733720e+003,2.604842e-003
1.735649e+003,2.522770e-003
1.737577e+003,2.501510e-003
1.739506e+003,2.411030e-003
1.741434e+003,2.379164e-003
1.743363e+003,2.292592e-003
1.745291e+003,2.235584e-003
1.747220e+003,2.006236e-003
1.749148e+003,1.984473e-003
1.751077e+003,1.636371e-003
1.753005e+003,1.381978e-003
1.754934e+003,1.124259e-003
1.756862e+003,1.106724e-003
1.758791e+003,9.324849e-004
1.760719e+003,8.269772e-004
1.762648e+003,6.465837e-004
1.764576e+003,6.195158e-004
1.766505e+003,4.299618e-004
1.768433e+003,4.246607e-004
1.770362e+003,3.153086e-004
1.772290e+003,4.102364e-004
1.774219e+003,2.595857e-004
1.776147e+003,1.896992e-004
1.778076e+003,1.007132e-004
1.780004e+003,1.499020e-004
1.781933e+003,6.064400e-005
1.783861e+003,9.886548e-005
1.785790e+003,6.913021e-005
1.787718e+003,7.536635e-005
1.789646e+003,-3.849715e-005
1.791575e+003,-1.806021e-005
1.793504e+003,-1.133978e-004
1.795432e+003,-1.162291e-005
1.797361e+003,-9.827688e-005
1.799289e+003,-1.137331e-004
1.801218e+003,-1.158081e-004
1.803146e+003,-8.619204e-005
1.805074e+003,-2.304614e-004
1.807003e+003,-1.920313e-004
1.808932e+003,-2.044886e-004
1.810860e+003,-1.976602e-004
1.812789e+003,-3.216155e-004
1.814717e+003,-4.094690e-004
1.816646e+003,-6.081089e-004
1.818574e+003,-4.160553e-004
1.820502e+003,-3.141463e-004
1.822431e+003,-1.950637e-004
1.824360e+003,-2.880245e-004
1.826288e+003,-2.695806e-004
1.828217e+003,-4.047938e-004
1.830145e+003,-4.763380e-004
1.832073e+003,-6.989948e-004
1.834002e+003,-6.530993e-004
1.835931e+003,-7.059909e-004
1.837859e+003,-6.473362e-004
1.839788e+003,-6.495416e-004
1.841716e+003,-5.478449e-004
1.843645e+003,-7.491298e-004
1.845573e+003,-5.967095e-004
1.847501e+003,-6.333254e-004
1.849430e+003,-6.017461e-004
1.851359e+003,-8.387454e-004
1.853287e+003,-8.554980e-004
1.855216e+003,-8.622594e-004
1.857144e+003,-6.505176e-004
1.859073e+003,-7.634312e-004
1.861001e+003,-6.933995e-004
1.862929e+003,-8.818582e-004
1.864858e+003,-9.326376e-004
1.866787e+003,-1.068342e-003
1.868715e+003,-9.107888e-004
1.870644e+003,-9.090416e-004
1.872572e+003,-7.623360e-004
1.874500e+003,-8.681230e-004
1.876429e+003,-7.855780e-004
1.878357e+003,-8.048490e-004
1.880286e+003,-5.488694e-004
1.882215e+003,-6.568320e-004
1.884143e+003,-5.159415e-004
1.886072e+003,-5.514510e-004
1.888000e+003,-2.146438e-004
1.889928e+003,-1.129098e-004
1.891857e+003,-1.211464e-005
1.893785e+003,4.282966e-005
1.895714e+003,4.788041e-004
1.897643e+003,2.559535e-004
1.899571e+003,7.315353e-005
1.901500e+003,8.219481e-005
1.903428e+003,9.122491e-005
1.905356e+003,1.002327e-004
1.907285e+003,1.092367e-004
1.909213e+003,1.182146e-004
1.911142e+003,1.271926e-004
1.913071e+003,1.361445e-004
1.914999e+003,1.450889e-004
1.916927e+003,1.540147e-004
1.918856e+003,1.629256e-004
1.920784e+003,1.718253e-004
1.922713e+003,1.807138e-004
1.924641e+003,1.895726e-004
1.926570e+003,1.984276e-004
1.928499e+003,2.072714e-004
1.930427e+003,2.160966e-004
1.932355e+003,2.249032e-004
1.934284e+003,2.337024e-004
1.936212e+003,2.424829e-004
1.938141e+003,2.512522e-004
1.940070e+003,2.600066e-004
1.941998e+003,2.687424e-004
1.943927e+003,2.774596e-004
1.945855e+003,2.861731e-004
1.947783e+003,2.948679e-004
1.949712e+003,3.035516e-004
1.951640e+003,3.122091e-004
1.953569e+003,3.208555e-004
1.955498e+003,3.294982e-004
1.957426e+003,3.381185e-004
1.959354e+003,3.467202e-004
1.961283e+003,3.553145e-004
1.963211e+003,3.638975e-004
1.965140e+003,3.724582e-004
1.967068e+003,3.810078e-004
1.968997e+003,3.895462e-004
1.970926e+003,3.980622e-004
1.972854e+003,4.065633e-004
1.974782e+003,4.150495e-004
1.976711e+003,4.235357e-004
1.978639e+003,4.319921e-004
1.980568e+003,4.404411e-004
1.982496e+003,4.488714e-004
1.984425e+003,4.572868e-004
1.986354e+003,4.656948e-004
1.988282e+003,4.740804e-004
1.990210e+003,4.824586e-004
1.992139e+003,4.908144e-004
1.994067e+003,4.991628e-004
1.995996e+003,5.074888e-004
1.997924e+003,5.158037e-004
1.999853e+003,5.241111e-004
2.001781e+003,5.323924e-004
2.003710e+003,5.406663e-004
2.005638e+003,5.489215e-004
2.007567e+003,5.571693e-004
2.009495e+003,5.653985e-004
2.011424e+003,5.736016e-004
2.013352e+003,5.818047e-004
2.015281e+003,5.899966e-004
2.017209e+003,5.981661e-004
2.019138e+003,6.063208e-004
2.021066e+003,6.144606e-004
2.022995e+003,6.225929e-004
2.024923e+003,6.306991e-004
2.026852e+003,6.387979e-004
2.028781e+003,6.468892e-004
2.030709e+003,6.549507e-004
2.032637e+003,6.630085e-004
2.034566e+003,6.710440e-004
2.036494e+003,6.790757e-004
2.038423e+003,6.870776e-004
2.040351e+003,6.950758e-004
2.042280e+003,7.030591e-004
2.044208e+003,7.110201e-004
2.046137e+003,7.189736e-004
2.048065e+003,7.269122e-004
2.049994e+003,7.348359e-004
2.051922e+003,7.427409e-004
2.053851e+003,7.506460e-004
2.055779e+003,7.585213e-004
2.057708e+003,7.663816e-004
2.059636e+003,7.742345e-004
2.061565e+003,7.820725e-004
2.063493e+003,7.898919e-004
2.065422e+003,7.976964e-004
2.067350e+003,8.054823e-004
2.069279e+003,8.132719e-004
2.071207e+003,8.210391e-004
2.073136e+003,8.287840e-004
2.075064e+003,8.365139e-004
2.076993e+003,8.442327e-004
2.078921e+003,8.519404e-004
2.080850e+003,8.596256e-004
2.082778e+003,8.672997e-004
2.084707e+003,8.749701e-004
2.086635e+003,8.826181e-004
2.088564e+003,8.902475e-004
2.090492e+003,8.978695e-004
2.092421e+003,9.054616e-004
2.094349e+003,9.130500e-004
2.096278e+003,9.206235e-004
2.098206e+003,9.281933e-004
2.100135e+003,9.357408e-004
2.102063e+003,9.432659e-004
2.103992e+003,9.507798e-004
2.105920e+003,9.582788e-004
2.107849e+003,9.657666e-004
2.109777e+003,9.732358e-004
2.111706e+003,9.806901e-004
2.113634e+003,9.881407e-004
2.115563e+003,9.955727e-004
2.117491e+003,1.002982e-003
2.119420e+003,1.010384e-003
2.121348e+003,1.017764e-003
2.123277e+003,1.025140e-003
2.125205e+003,1.032490e-003
2.127134e+003,1.039833e-003
2.129062e+003,1.047164e-003
2.130991e+003,1.054481e-003
2.132919e+003,1.061775e-003
2.134848e+003,1.069054e-003
2.136776e+003,1.076326e-003
2.138705e+003,1.083575e-003
2.140633e+003,1.090817e-003
2.142562e+003,1.098052e-003
2.144490e+003,1.105256e-003
2.146419e+003,1.112454e-003
2.148347e+003,1.119636e-003
2.150276e+003,1.126800e-003
2.152204e+003,1.133956e-003
2.154133e+003,1.141086e-003
2.156061e+003,1.148216e-003
2.157990e+003,1.155324e-003
2.159918e+003,1.162417e-003
2.161847e+003,1.169499e-003
2.163775e+003,1.176558e-003
2.165704e+003,1.183607e-003
2.167632e+003,1.190647e-003
2.169561e+003,1.197666e-003
2.171489e+003,1.204677e-003
2.173418e+003,1.211666e-003
2.175346e+003,1.218639e-003
2.177275e+003,1.225609e-003
2.179203e+003,1.232561e-003
2.181132e+003,1.239493e-003
2.183060e+003,1.246408e-003
2.184989e+003,1.253307e-003
2.186917e+003,1.260214e-003
2.188846e+003,1.267083e-003
2.190774e+003,1.273945e-003
2.192703e+003,1.280788e-003
2.194631e+003,1.287617e-003
2.196560e+003,1.294438e-003
2.198488e+003,1.301244e-003
2.200417e+003,1.308031e-003
2.202345e+003,1.314811e-003
2.204274e+003,1.321569e-003
2.206202e+003,1.328308e-003
2.208131e+003,1.335040e-003
2.210059e+003,1.341753e-003
2.211988e+003,1.348451e-003
2.213916e+003,1.355141e-003
2.215845e+003,1.361810e-003
2.217773e+003,1.368470e-003
2.219702e+003,1.375120e-003
2.221630e+003,1.381740e-003
2.223559e+003,1.388364e-003
2.225487e+003,1.394957e-003
2.227416e+003,1.401544e-003
2.229344e+003,1.408115e-003
2.231273e+003,1.414672e-003
2.233201e+003,1.421217e-003
2.235130e+003,1.427740e-003
2.237058e+003,1.434255e-003
2.238987e+003,1.440749e-003
2.240915e+003,1.447231e-003
2.242844e+003,1.453698e-003
2.244772e+003,1.460157e-003
2.246701e+003,1.466595e-003
2.248629e+003,1.473021e-003
2.250558e+003,1.479432e-003
2.252486e+003,1.485828e-003
2.254415e+003,1.492210e-003
2.256343e+003,1.498573e-003
2.258272e+003,1.504924e-003
2.260200e+003,1.511261e-003
2.262129e+003,1.517594e-003
2.264057e+003,1.523893e-003
2.265986e+003,1.530189e-003
2.267914e+003,1.536466e-003
2.269843e+003,1.542740e-003
2.271771e+003,1.548987e-003
2.273700e+003,1.555219e-003
2.275628e+003,1.561448e-003
2.277557e+003,1.567654e-003
2.279485e+003,1.573846e-003
2.281414e+003,1.580026e-003
2.283342e+003,1.586180e-003
2.285271e+003,1.592331e-003
2.287199e+003,1.598462e-003
2.289128e+003,1.604594e-003
2.291056e+003,1.610696e-003
2.292985e+003,1.616776e-003
2.294913e+003,1.622859e-003
2.296842e+003,1.628920e-003
2.298770e+003,1.634967e-003
2.300699e+003,1.640998e-003
2.302627e+003,1.647022e-003
2.304556e+003,1.653023e-003
2.306484e+003,1.659013e-003
2.308413e+003,1.664981e-003
2.310341e+003,1.670945e-003
2.312270e+003,1.676887e-003
2.314198e+003,1.682814e-003
2.316127e+003,1.688734e-003
2.318055e+003,1.694627e-003
2.319984e+003,1.700521e-003
2.321912e+003,1.706388e-003
2.323841e+003,1.712248e-003
2.325769e+003,1.718096e-003
2.327698e+003,1.723927e-003
2.329626e+003,1.729742e-003
2.331555e+003,1.735531e-003
2.333483e+003,1.741327e-003
2.335412e+003,1.747098e-003
2.337340e+003,1.752853e-003
2.339269e+003,1.758594e-003
2.341197e+003,1.764320e-003
2.343126e+003,1.770027e-003
2.345054e+003,1.775723e-003
2.346983e+003,1.781419e-003
2.348911e+003,1.787081e-003
2.350840e+003,1.792740e-003
2.352768e+003,1.798376e-003
2.354697e+003,1.803998e-003
2.356625e+003,1.809608e-003
2.358554e+003,1.815200e-003
2.360482e+003,1.820784e-003
2.362411e+003,1.826353e-003
2.364339e+003,1.831904e-003
2.366268e+003,1.837444e-003
2.368196e+003,1.842964e-003
2.370125e+003,1.848474e-003
2.372053e+003,1.853973e-003
2.373982e+003,1.859445e-003
2.375910e+003,1.864918e-003
2.377839e+003,1.870368e-003
2.379767e+003,1.875803e-003
2.381696e+003,1.881223e-003
2.383624e+003,1.886629e-003
2.385553e+003,1.892019e-003
2.387481e+003,1.897402e-003
2.389410e+003,1.902763e-003
2.391338e+003,1.908123e-003
2.393267e+003,1.913451e-003
2.395195e+003,1.918763e-003
2.397124e+003,1.924071e-003
2.399052e+003,1.929365e-003
2.400981e+003,1.883257e-003
2.402909e+003,1.808856e-003
2.404838e+003,1.796354e-003
2.406766e+003,1.929574e-003
2.408695e+003,2.221931e-003
2.410623e+003,2.228275e-003
2.412552e+003,2.225555e-003
2.414480e+003,2.215974e-003
2.416409e+003,2.217539e-003
2.418337e+003,2.315070e-003
2.420266e+003,2.360228e-003
2.422194e+003,2.241194e-003
2.424123e+003,2.246201e-003
2.426051e+003,2.352681e-003
2.427979e+003,2.491612e-003
2.429908e+003,2.276972e-003
2.431837e+003,2.085116e-003
2.433765e+003,2.037834e-003
2.435694e+003,2.144903e-003
2.437622e+003,2.121825e-003
2.439551e+003,2.006434e-003
2.441479e+003,2.031177e-003
2.443407e+003,2.235241e-003
2.445336e+003,2.282389e-003
2.447265e+003,2.347890e-003
2.449193e+003,2.259072e-003
2.451122e+003,2.355732e-003
2.453050e+003,2.506405e-003
2.454979e+003,2.576452e-003
2.456907e+003,2.560001e-003
2.458836e+003,2.443843e-003
2.460764e+003,2.314895e-003
2.462693e+003,2.385035e-003
2.464621e+003,2.385002e-003
2.466550e+003,2.401408e-003
2.468478e+003,2.564356e-003
2.470406e+003,2.824459e-003
2.472335e+003,2.794098e-003
2.474264e+003,2.862442e-003
2.476192e+003,2.973288e-003
2.478121e+003,3.038045e-003
2.480049e+003,2.821863e-003
2.481978e+003,2.796013e-003
2.483906e+003,2.982721e-003
2.485835e+003,3.059752e-003
2.487763e+003,2.895027e-003
2.489692e+003,2.967879e-003
2.491620e+003,3.165852e-003
2.493549e+003,3.174249e-003
2.495477e+003,3.057711e-003
2.497406e+003,3.170211e-003
2.499334e+003,3.183592e-003
2.501263e+003,3.203493e-003
2.503191e+003,3.234807e-003
2.505120e+003,3.198296e-003
2.507048e+003,3.386676e-003
2.508977e+003,3.632173e-003
2.510905e+003,3.509901e-003
2.512833e+003,3.343523e-003
2.514762e+003,3.407396e-003
2.516691e+003,3.561810e-003
2.518619e+003,3.731683e-003
2.520548e+003,3.848545e-003
2.522476e+003,3.886305e-003
2.524405e+003,4.004434e-003
2.526333e+003,4.034206e-003
2.528261e+003,4.111491e-003
2.530190e+003,4.211813e-003
2.532119e+003,4.254825e-003
2.534047e+003,4.116610e-003
2.535976e+003,4.154406e-003
2.537904e+003,4.288532e-003
2.539833e+003,4.377447e-003
2.541761e+003,4.542373e-003
2.543689e+003,4.647434e-003
2.545618e+003,4.821248e-003
2.547547e+003,4.972130e-003
2.549475e+003,4.901499e-003
2.551404e+003,4.950874e-003
2.553332e+003,5.180620e-003
2.555260e+003,5.260266e-003
2.557189e+003,5.247064e-003
2.559117e+003,5.442567e-003
2.561046e+003,5.602174e-003
2.562975e+003,5.730465e-003
2.564903e+003,5.744487e-003
2.566832e+003,5.756862e-003
2.568760e+003,5.910747e-003
2.570688e+003,6.037295e-003
2.572617e+003,6.153412e-003
2.574546e+003,6.323896e-003
2.576474e+003,6.423727e-003
2.578403e+003,6.602004e-003
2.580331e+003,6.752774e-003
2.582260e+003,7.055327e-003
2.584188e+003,7.215686e-003
2.586116e+003,7.312447e-003
2.588045e+003,7.561952e-003
2.589974e+003,7.834204e-003
2.591902e+003,7.990651e-003
2.593831e+003,8.212313e-003
2.595759e+003,8.316927e-003
2.597688e+003,8.511722e-003
2.599616e+003,8.812413e-003
2.601544e+003,9.043679e-003
2.603473e+003,9.097055e-003
2.605402e+003,9.237364e-003
2.607330e+003,9.492405e-003
2.609259e+003,9.718098e-003
2.611187e+003,1.001994e-002
2.613115e+003,1.035611e-002
2.615044e+003,1.059377e-002
2.616972e+003,1.087286e-002
2.618901e+003,1.118442e-002
2.620830e+003,1.158062e-002
2.622758e+003,1.196053e-002
2.624687e+003,1.233888e-002
2.626615e+003,1.267001e-002
2.628543e+003,1.304840e-002
2.630472e+003,1.348288e-002
2.632400e+003,1.385873e-002
2.634329e+003,1.414199e-002
2.636258e+003,1.425485e-002
2.638186e+003,1.418418e-002
2.640115e+003,1.418747e-002
2.642043e+003,1.425354e-002
2.643971e+003,1.429806e-002
2.645900e+003,1.435414e-002
2.647828e+003,1.451762e-002
2.649757e+003,1.474877e-002
2.651686e+003,1.496456e-002
2.653614e+003,1.514333e-002
2.655542e+003,1.528103e-002
2.657471e+003,1.538470e-002
2.659399e+003,1.549322e-002
2.661328e+003,1.546802e-002
2.663256e+003,1.537025e-002
2.665185e+003,1.524405e-002
2.667114e+003,1.513318e-002
2.669042e+003,1.506054e-002
2.670970e+003,1.496523e-002
2.672899e+003,1.484108e-002
2.674827e+003,1.469377e-002
2.676756e+003,1.457226e-002
2.678685e+003,1.452356e-002
2.680613e+003,1.447750e-002
2.682542e+003,1.439828e-002
2.684470e+003,1.436553e-002
2.686398e+003,1.433337e-002
2.688327e+003,1.421915e-002
2.690255e+003,1.414745e-002
2.692184e+003,1.411177e-002
2.694113e+003,1.405091e-002
2.696041e+003,1.400199e-002
2.697969e+003,1.408282e-002
2.699898e+003,1.421998e-002
2.701826e+003,1.439177e-002
2.703755e+003,1.459727e-002
2.705683e+003,1.473651e-002
2.707612e+003,1.487460e-002
2.709541e+003,1.507031e-002
2.711469e+003,1.525342e-002
2.713397e+003,1.543948e-002
2.715326e+003,1.560839e-002
2.717254e+003,1.578216e-002
2.719183e+003,1.595607e-002
2.721111e+003,1.619279e-002
2.723040e+003,1.644920e-002
2.724969e+003,1.674805e-002
2.726897e+003,1.710152e-002
2.728825e+003,1.734729e-002
2.730754e+003,1.753950e-002
2.732682e+003,1.774140e-002
2.734611e+003,1.792310e-002
2.736539e+003,1.811506e-002
2.738468e+003,1.830194e-002
2.740396e+003,1.845081e-002
2.742325e+003,1.852938e-002
2.744253e+003,1.857507e-002
2.746182e+003,1.860050e-002
2.748110e+003,1.866227e-002
2.750039e+003,1.884115e-002
2.751967e+003,1.899767e-002
2.753896e+003,1.919328e-002
2.755824e+003,1.951570e-002
2.757753e+003,1.988349e-002
2.759681e+003,2.028705e-002
2.761610e+003,2.071712e-002
2.763538e+003,2.110057e-002
2.765467e+003,2.145880e-002
2.767395e+003,2.195069e-002
2.769324e+003,2.253033e-002
2.771252e+003,2.312624e-002
2.773181e+003,2.379905e-002
2.775109e+003,2.454835e-002
2.777038e+003,2.532532e-002
2.778966e+003,2.612898e-002
2.780895e+003,2.708893e-002
2.782823e+003,2.818467e-002
2.784752e+003,2.935217e-002
2.786680e+003,3.059017e-002
2.788609e+003,3.192410e-002
2.790537e+003,3.338813e-002
2.792466e+003,3.497167e-002
2.794394e+003,3.652187e-002
2.796323e+003,3.805734e-002
2.798251e+003,3.966719e-002
2.800180e+003,4.141706e-002
2.802108e+003,4.336241e-002
2.804037e+003,4.540031e-002
2.805965e+003,4.757339e-002
2.807894e+003,4.999623e-002
2.809822e+003,5.271386e-002
2.811751e+003,5.577006e-002
2.813679e+003,5.925684e-002
2.815608e+003,6.327321e-002
2.817536e+003,6.794669e-002
2.819465e+003,7.340687e-002
2.821393e+003,7.994427e-002
2.823322e+003,8.789063e-002
2.825250e+003,9.758014e-002
2.827179e+003,1.097100e-001
2.829107e+003,1.251714e-001
2.831036e+003,1.454482e-001
2.832964e+003,1.727095e-001
2.834893e+003,2.106017e-001
2.836821e+003,2.640006e-001
2.838750e+003,3.407942e-001
2.840678e+003,4.531684e-001
2.842607e+003,6.141016e-001
2.844535e+003,8.231984e-001
2.846464e+003,1.017174e+000
2.848392e+003,1.032788e+000
2.850321e+003,8.431899e-001
2.852249e+003,6.274338e-001
2.854178e+003,4.716761e-001
2.856106e+003,3.645173e-001
2.858035e+003,2.879742e-001
2.859963e+003,2.331843e-001
2.861892e+003,1.950829e-001
2.863820e+003,1.698221e-001
2.865749e+003,1.545919e-001
2.867677e+003,1.472006e-001
2.869606e+003,1.454225e-001
2.871534e+003,1.473031e-001
2.873463e+003,1.525846e-001
2.875391e+003,1.622927e-001
2.877320e+003,1.769278e-001
2.879248e+003,1.961779e-001
2.881177e+003,2.189144e-001
2.883105e+003,2.441582e-001
2.885034e+003,2.714432e-001
2.886962e+003,3.002099e-001
2.888891e+003,3.298910e-001
2.890819e+003,3.597510e-001
2.892748e+003,3.890896e-001
2.894676e+003,4.178076e-001
2.896605e+003,4.466748e-001
2.898533e+003,4.768355e-001
2.900462e+003,5.104825e-001
2.902390e+003,5.512279e-001
2.904319e+003,6.040733e-001
2.906247e+003,6.754581e-001
2.908176e+003,7.724696e-001
2.910104e+003,8.984224e-001
2.912033e+003,1.039937e+000
2.913961e+003,1.144948e+000
2.915890e+003,1.144347e+000
2.917818e+003,1.036623e+000
2.919747e+003,8.876351e-001
2.921675e+003,7.461447e-001
2.923604e+003,6.268431e-001
2.925532e+003,5.298305e-001
2.927461e+003,4.501809e-001
2.929389e+003,3.829739e-001
2.931318e+003,3.252293e-001
2.933246e+003,2.754375e-001
2.935175e+003,2.326555e-001
2.937103e+003,1.961230e-001
2.939032e+003,1.651709e-001
2.940960e+003,1.393536e-001
2.942889e+003,1.183475e-001
2.944817e+003,1.019713e-001
2.946746e+003,8.968649e-002
2.948674e+003,8.105470e-002
2.950603e+003,7.523149e-002
2.952531e+003,7.081170e-002
2.954460e+003,6.663042e-002
2.956388e+003,6.228787e-002
2.958317e+003,5.762918e-002
2.960245e+003,5.267797e-002
2.962174e+003,4.761844e-002
2.964102e+003,4.265097e-002
2.966031e+003,3.800663e-002
2.967959e+003,3.390843e-002
2.969888e+003,3.026063e-002
2.971816e+003,2.719244e-002
2.973745e+003,2.464540e-002
2.975673e+003,2.253245e-002
2.977602e+003,2.070220e-002
2.979530e+003,1.919029e-002
2.981459e+003,1.793461e-002
2.983387e+003,1.687843e-002
2.985316e+003,1.594985e-002
2.987244e+003,1.519047e-002
2.989173e+003,1.449996e-002
2.991101e+003,1.389614e-002
2.993030e+003,1.334845e-002
2.994958e+003,1.289186e-002
2.996887e+003,1.251069e-002
2.998815e+003,1.218106e-002
3.000744e+003,1.182139e-002
3.002672e+003,1.151989e-002
3.004601e+003,1.127238e-002
3.006529e+003,1.105070e-002
3.008458e+003,1.088718e-002
3.010386e+003,1.077096e-002
3.012315e+003,1.058184e-002
3.014243e+003,1.046187e-002
3.016172e+003,1.033353e-002
3.018100e+003,1.020408e-002
3.020029e+003,1.013916e-002
3.021957e+003,1.014801e-002
3.023886e+003,1.007918e-002
3.025814e+003,9.973966e-003
3.027743e+003,9.870954e-003
3.029671e+003,9.772822e-003
3.031600e+003,9.708457e-003
3.033528e+003,9.633094e-003
3.035457e+003,9.443916e-003
3.037385e+003,9.267904e-003
3.039314e+003,9.133898e-003
3.041242e+003,8.986861e-003
3.043171e+003,8.877806e-003
3.045099e+003,8.797832e-003
3.047028e+003,8.661456e-003
3.048956e+003,8.575201e-003
3.050885e+003,8.543670e-003
3.052813e+003,8.470431e-003
3.054742e+003,8.403026e-003
3.056670e+003,8.418128e-003
3.058599e+003,8.416422e-003
3.060527e+003,8.407369e-003
3.062456e+003,8.365609e-003
3.064384e+003,8.327864e-003
3.066313e+003,8.288018e-003
3.068241e+003,8.339673e-003
3.070170e+003,8.388795e-003
3.072098e+003,8.438930e-003
3.074027e+003,8.436583e-003
3.075955e+003,8.447327e-003
3.077884e+003,8.503318e-003
3.079812e+003,8.586273e-003
3.081741e+003,8.654773e-003
3.083669e+003,8.601516e-003
3.085598e+003,8.499548e-003
3.087526e+003,8.490264e-003
3.089455e+003,8.432187e-003
3.091383e+003,8.359745e-003
3.093312e+003,8.369081e-003
3.095240e+003,8.322552e-003
3.097169e+003,8.162677e-003
3.099097e+003,8.084401e-003
3.101026e+003,8.035511e-003
3.102954e+003,8.018456e-003
3.104883e+003,8.062512e-003
3.106811e+003,8.055083e-003
3.108740e+003,8.073464e-003
3.110668e+003,8.150265e-003
3.112597e+003,8.215427e-003
3.114525e+003,8.262970e-003
3.116454e+003,8.391082e-003
3.118382e+003,8.598588e-003
3.120311e+003,8.716717e-003
3.122239e+003,8.798912e-003
3.124168e+003,8.818731e-003
3.126096e+003,8.897081e-003
3.128025e+003,9.093530e-003
3.129953e+003,9.240896e-003
3.131882e+003,9.397291e-003
3.133810e+003,9.641185e-003
3.135739e+003,9.721823e-003
3.137667e+003,9.822242e-003
3.139596e+003,1.008484e-002
3.141524e+003,1.022407e-002
3.143453e+003,1.030213e-002
3.145381e+003,1.043677e-002
3.147310e+003,1.058456e-002
3.149238e+003,1.079882e-002
3.151167e+003,1.105808e-002
3.153095e+003,1.127391e-002
3.155024e+003,1.144638e-002
3.156952e+003,1.159249e-002
3.158881e+003,1.178622e-002
3.160809e+003,1.200220e-002
3.162738e+003,1.224304e-002
3.164666e+003,1.249282e-002
3.166594e+003,1.264321e-002
3.168523e+003,1.286142e-002
3.170452e+003,1.318419e-002
3.172380e+003,1.337130e-002
3.174309e+003,1.356795e-002
3.176237e+003,1.387399e-002
3.178166e+003,1.413353e-002
3.180094e+003,1.435067e-002
3.182022e+003,1.456052e-002
3.183951e+003,1.476986e-002
3.185880e+003,1.505460e-002
3.187808e+003,1.529694e-002
3.189737e+003,1.547766e-002
3.191665e+003,1.568395e-002
3.193594e+003,1.593179e-002
3.195522e+003,1.615097e-002
3.197450e+003,1.634243e-002
3.199379e+003,1.658937e-002
3.201308e+003,1.678123e-002
3.203236e+003,1.697435e-002
3.205165e+003,1.717011e-002
3.207093e+003,1.743890e-002
3.209021e+003,1.771854e-002
3.210950e+003,1.783960e-002
3.212878e+003,1.804937e-002
3.214807e+003,1.842704e-002
3.216736e+003,1.859511e-002
3.218664e+003,1.875024e-002
3.220593e+003,1.903877e-002
3.222521e+003,1.932666e-002
3.224449e+003,1.952593e-002
3.226378e+003,1.966686e-002
3.228307e+003,1.987943e-002
3.230235e+003,2.019671e-002
3.232164e+003,2.049673e-002
3.234092e+003,2.068102e-002
3.236021e+003,2.083977e-002
3.237949e+003,2.111509e-002
3.239877e+003,2.142238e-002
3.241806e+003,2.166788e-002
3.243735e+003,2.178893e-002
3.245663e+003,2.199191e-002
3.247592e+003,2.232040e-002
3.249520e+003,2.268960e-002
3.251448e+003,2.303325e-002
3.253377e+003,2.327819e-002
3.255305e+003,2.344260e-002
3.257234e+003,2.363818e-002
3.259163e+003,2.378964e-002
3.261091e+003,2.407574e-002
3.263020e+003,2.435207e-002
3.264948e+003,2.456626e-002
3.266876e+003,2.484347e-002
3.268805e+003,2.506779e-002
3.270733e+003,2.529366e-002
3.272662e+003,2.557444e-002
3.274591e+003,2.587497e-002
3.276519e+003,2.608258e-002
3.278448e+003,2.613132e-002
3.280376e+003,2.617952e-002
3.282304e+003,2.630517e-002
3.284233e+003,2.653590e-002
3.286161e+003,2.677168e-002
3.288090e+003,2.693273e-002
3.290019e+003,2.705639e-002
3.291947e+003,2.724434e-002
3.293875e+003,2.738619e-002
3.295804e+003,2.760881e-002
3.297732e+003,2.783900e-002
3.299661e+003,2.788875e-002
3.301589e+003,2.792873e-002
3.303518e+003,2.804112e-002
3.305447e+003,2.819693e-002
3.307375e+003,2.834418e-002
3.309303e+003,2.854908e-002
3.311232e+003,2.880570e-002
3.313160e+003,2.887822e-002
3.315089e+003,2.896157e-002
3.317018e+003,2.907036e-002
3.318946e+003,2.914903e-002
3.320875e+003,2.918393e-002
3.322803e+003,2.918939e-002
3.324731e+003,2.937812e-002
3.326660e+003,2.967467e-002
3.328588e+003,2.979297e-002
3.330517e+003,2.981132e-002
3.332446e+003,2.995947e-002
3.334374e+003,3.017685e-002
3.336302e+003,3.034364e-002
3.338231e+003,3.036964e-002
3.340159e+003,3.040092e-002
3.342088e+003,3.044596e-002
3.344016e+003,3.052693e-002
3.345945e+003,3.066806e-002
3.347874e+003,3.073050e-002
3.349802e+003,3.077250e-002
3.351730e+003,3.077157e-002
3.353659e+003,3.081153e-002
3.355587e+003,3.095590e-002
3.357516e+003,3.106026e-002
3.359444e+003,3.103653e-002
3.361373e+003,3.113513e-002
3.363302e+003,3.105007e-002
3.365230e+003,3.104164e-002
3.367158e+003,3.118225e-002
3.369087e+003,3.112935e-002
3.371015e+003,3.100742e-002
3.372944e+003,3.104857e-002
3.374872e+003,3.108626e-002
3.376801e+003,3.104066e-002
3.378729e+003,3.092558e-002
3.380658e+003,3.088731e-002
3.382586e+003,3.085718e-002
3.384515e+003,3.083367e-002
3.386443e+003,3.075725e-002
3.388372e+003,3.071107e-002
3.390300e+003,3.061978e-002
3.392229e+003,3.051466e-002
3.394157e+003,3.047363e-002
3.396086e+003,3.044517e-002
3.398014e+003,3.033690e-002
3.399943e+003,3.022049e-002
3.401871e+003,3.011682e-002
3.403800e+003,2.994241e-002
3.405728e+003,2.970177e-002
3.407657e+003,2.948684e-002
3.409585e+003,2.943502e-002
3.411514e+003,2.934140e-002
3.413442e+003,2.923813e-002
3.415371e+003,2.908015e-002
3.417299e+003,2.885949e-002
3.419228e+003,2.873302e-002
3.421156e+003,2.854625e-002
3.423085e+003,2.837529e-002
3.425013e+003,2.826139e-002
3.426942e+003,2.811919e-002
3.428870e+003,2.797158e-002
3.430799e+003,2.786385e-002
3.432727e+003,2.760459e-002
3.434656e+003,2.722982e-002
3.436584e+003,2.695554e-002
3.438513e+003,2.681936e-002
3.440441e+003,2.677708e-002
3.442370e+003,2.672365e-002
3.444298e+003,2.638432e-002
3.446227e+003,2.608684e-002
3.448155e+003,2.584499e-002
3.450084e+003,2.555260e-002
3.452012e+003,2.532463e-002
3.453941e+003,2.509778e-002
3.455869e+003,2.493067e-002
3.457798e+003,2.469745e-002
3.459726e+003,2.436700e-002
3.461655e+003,2.408542e-002
3.463583e+003,2.393901e-002
3.465512e+003,2.377982e-002
3.467440e+003,2.341700e-002
3.469369e+003,2.311733e-002
3.471297e+003,2.280178e-002
3.473226e+003,2.247483e-002
3.475154e+003,2.229999e-002
3.477083e+003,2.216021e-002
3.479011e+003,2.193402e-002
3.480940e+003,2.169918e-002
3.482868e+003,2.141492e-002
3.484797e+003,2.111319e-002
3.486725e+003,2.082416e-002
3.488654e+003,2.063080e-002
3.490582e+003,2.043514e-002
3.492511e+003,2.015910e-002
3.494439e+003,1.986655e-002
3.496368e+003,1.953931e-002
3.498296e+003,1.915439e-002
3.500225e+003,1.882838e-002
3.502153e+003,1.859417e-002
3.504082e+003,1.847485e-002
3.506010e+003,1.819268e-002
3.507939e+003,1.792429e-002
3.509867e+003,1.774268e-002
3.511796e+003,1.747105e-002
3.513724e+003,1.714771e-002
3.515653e+003,1.688914e-002
3.517581e+003,1.658055e-002
3.519510e+003,1.623851e-002
3.521438e+003,1.591711e-002
3.523367e+003,1.568340e-002
3.525295e+003,1.535744e-002
3.527224e+003,1.516155e-002
3.529152e+003,1.487176e-002
3.531081e+003,1.458681e-002
3.533009e+003,1.432823e-002
3.534938e+003,1.391806e-002
3.536866e+003,1.351578e-002
3.538795e+003,1.309077e-002
3.540723e+003,1.267090e-002
3.542652e+003,1.233481e-002
3.544580e+003,1.221234e-002
3.546509e+003,1.204702e-002
3.548437e+003,1.172693e-002
3.550366e+003,1.144368e-002
3.552294e+003,1.128649e-002
3.554223e+003,1.096608e-002
3.556151e+003,1.045370e-002
3.558080e+003,1.009209e-002
3.560008e+003,9.856015e-003
3.561937e+003,9.531252e-003
3.563865e+003,9.194627e-003
3.565794e+003,9.071738e-003
3.567722e+003,8.890189e-003
3.569651e+003,8.476883e-003
3.571579e+003,8.159541e-003
3.573508e+003,7.930674e-003
3.575436e+003,7.681444e-003
3.577365e+003,7.410146e-003
3.579293e+003,7.247433e-003
3.581222e+003,7.162116e-003
3.583150e+003,6.761208e-003
3.585079e+003,6.338745e-003
3.587007e+003,6.343499e-003
3.588936e+003,6.275713e-003
3.590864e+003,5.903229e-003
3.592793e+003,5.821474e-003
3.594721e+003,6.004587e-003
3.596650e+003,6.110907e-003
3.598578e+003,6.130435e-003
3.600507e+003,6.252043e-003
3.602435e+003,6.128334e-003
3.604364e+003,5.785279e-003
3.606292e+003,5.506761e-003
3.608221e+003,5.273439e-003
3.610149e+003,4.857652e-003
3.612078e+003,4.626609e-003
3.614006e+003,4.329503e-003
3.615935e+003,3.936909e-003
3.617863e+003,3.684886e-003
3.619792e+003,3.631987e-003
3.621720e+003,3.383510e-003
3.623649e+003,2.969399e-003
3.625577e+003,2.646275e-003
3.627506e+003,2.607606e-003
3.629434e+003,3.126882e-003
3.631363e+003,2.476700e-003
3.633291e+003,2.169527e-003
3.635220e+003,2.108544e-003
3.637148e+003,1.913540e-003
3.639077e+003,1.929797e-003
3.641005e+003,1.851209e-003
3.642934e+003,1.630306e-003
3.644862e+003,1.221001e-003
3.646791e+003,1.212321e-003
3.648719e+003,1.592718e-003
3.650648e+003,1.551777e-003
3.652576e+003,1.102068e-003
3.654505e+003,8.543506e-004
3.656433e+003,7.552356e-004
3.658362e+003,5.031303e-004
3.660290e+003,2.014861e-004
3.662219e+003,-1.359954e-004
3.664147e+003,-2.993122e-004
3.666076e+003,-4.143119e-004
3.668004e+003,-4.772097e-004
3.669933e+003,2.746433e-004
3.671861e+003,4.366040e-005
3.673790e+003,-6.020814e-004
3.675718e+003,-1.632199e-004
3.677647e+003,-1.321808e-004
3.679575e+003,-3.963336e-004
3.681504e+003,-6.394461e-004
3.683432e+003,-6.756485e-004
3.685361e+003,-7.807538e-004
3.687289e+003,-9.861588e-004
3.689218e+003,-5.791262e-004
3.691146e+003,-4.458502e-004
3.693075e+003,-7.011741e-004
3.695003e+003,-8.586794e-004
3.696932e+003,-7.437840e-004
3.698860e+003,-7.734820e-004
3.700789e+003,-6.595924e-004
3.702717e+003,-4.770383e-004
3.704646e+003,-6.434545e-004
3.706574e+003,-8.761808e-004
3.708503e+003,-8.203760e-004
3.710431e+003,-3.583208e-004
3.712360e+003,-1.447722e-004
3.714288e+003,-4.527122e-004
3.716217e+003,-5.942583e-004
3.718145e+003,-6.384403e-004
3.720074e+003,-8.133575e-004
3.722002e+003,-8.288622e-004
3.723931e+003,-7.576942e-004
3.725859e+003,-6.172135e-004
3.727788e+003,-5.415380e-004
3.729716e+003,-6.499365e-004
3.731645e+003,-6.385967e-004
3.733573e+003,-5.640164e-004
3.735502e+003,1.016930e-004
3.737430e+003,-6.631017e-005
3.739359e+003,-5.079359e-004
3.741287e+003,-6.980151e-004
3.743216e+003,-7.188469e-004
3.745144e+003,-2.513826e-004
3.747073e+003,-5.319715e-004
3.749001e+003,-4.487708e-004
3.750930e+003,-1.149848e-004
3.752858e+003,-4.597008e-006
3.754787e+003,-5.440861e-004
3.756715e+003,-9.011179e-004
3.758644e+003,-7.132888e-004
3.760572e+003,-4.358292e-004
3.762501e+003,-5.176514e-004
3.764429e+003,-5.210117e-004
3.766358e+003,-5.145967e-004
3.768286e+003,-5.500764e-004
3.770215e+003,-2.821162e-004
3.772143e+003,-2.487153e-004
3.774072e+003,-3.574714e-004
3.776000e+003,-5.107149e-004
3.777929e+003,-3.790855e-004
3.779857e+003,-1.340359e-005
3.781786e+003,-1.599714e-004
3.783714e+003,-2.327636e-004
3.785643e+003,-2.421439e-006
3.787571e+003,-4.227459e-005
3.789500e+003,-3.039017e-004
3.791428e+003,-4.248172e-004
3.793357e+003,-4.011989e-004
3.795285e+003,-3.874153e-004
3.797214e+003,-1.510531e-004
3.799142e+003,-2.820194e-004
3.801071e+003,3.454834e-005
3.802999e+003,2.576783e-004
3.804927e+003,-1.901165e-004
3.806856e+003,-8.286536e-005
3.808785e+003,7.782876e-005
3.810713e+003,-7.339567e-005
3.812642e+003,-1.489148e-004
3.814570e+003,-2.203584e-004
3.816499e+003,2.374649e-004
3.818427e+003,1.092926e-004
3.820355e+003,2.464354e-004
3.822284e+003,7.050484e-004
3.824213e+003,3.148615e-004
3.826141e+003,8.359551e-005
3.828070e+003,-1.449883e-005
3.829998e+003,-6.780773e-005
3.831927e+003,1.469553e-004
3.833855e+003,2.155527e-004
3.835783e+003,2.755895e-004
3.837712e+003,3.558993e-004
3.839641e+003,3.330708e-004
3.841569e+003,1.836047e-004
3.843498e+003,1.983345e-005
3.845426e+003,1.399592e-004
3.847354e+003,1.850054e-004
3.849283e+003,1.276806e-004
3.851211e+003,6.625801e-005
3.853140e+003,8.066371e-004
3.855069e+003,6.272942e-004
3.856997e+003,3.048405e-004
3.858926e+003,2.136827e-005
3.860854e+003,-6.263703e-005
3.862782e+003,1.146197e-004
3.864711e+003,5.867034e-004
3.866640e+003,5.625337e-004
3.868568e+003,3.514588e-004
3.870497e+003,6.290376e-004
3.872425e+003,4.971623e-004
3.874354e+003,7.527918e-004
3.876282e+003,5.830005e-004
3.878210e+003,4.208013e-004
3.880139e+003,6.631240e-004
3.882068e+003,6.297305e-004
3.883996e+003,4.349798e-004
3.885925e+003,5.779341e-004
3.887853e+003,2.440214e-004
3.889781e+003,1.215935e-004
3.891710e+003,4.678518e-004
3.893638e+003,4.455745e-004
3.895567e+003,3.380552e-004
3.897496e+003,2.625883e-004
3.899424e+003,3.088638e-004
3.901353e+003,3.616214e-004
3.903281e+003,4.818439e-004
3.905209e+003,6.833747e-004
3.907138e+003,5.485788e-004
3.909066e+003,4.280806e-004
3.910995e+003,4.583523e-004
3.912924e+003,5.062371e-004
3.914852e+003,4.732087e-004
3.916781e+003,4.999489e-004
3.918709e+003,5.191639e-004
3.920637e+003,5.904213e-004
3.922566e+003,6.078929e-004
3.924494e+003,7.259846e-004
3.926423e+003,6.940141e-004
3.928352e+003,5.585924e-004
3.930280e+003,4.586279e-004
3.932208e+003,4.389137e-004
3.934137e+003,3.893301e-004
3.936065e+003,3.089011e-004
3.937994e+003,3.175586e-004
3.939922e+003,3.192872e-004
3.941851e+003,3.442764e-004
3.943780e+003,4.054159e-004
3.945708e+003,3.491342e-004
3.947636e+003,2.607927e-004
3.949565e+003,1.594648e-004
3.951493e+003,2.568141e-004
3.953422e+003,2.809837e-004
3.955351e+003,2.018511e-004
3.957279e+003,2.271309e-004
3.959208e+003,3.885031e-004
3.961136e+003,3.860518e-004
3.963064e+003,3.477111e-004
3.964993e+003,2.211928e-004
3.966921e+003,1.463890e-004
3.968850e+003,1.483932e-004
3.970779e+003,2.078339e-004
3.972707e+003,3.320649e-004
3.974635e+003,3.524274e-004
3.976564e+003,2.852902e-004
3.978492e+003,3.475621e-004
3.980421e+003,4.576966e-004
3.982349e+003,3.307685e-004
3.984278e+003,2.754778e-004
3.986207e+003,2.397522e-004
3.988135e+003,3.444180e-004
3.990063e+003,5.391389e-004
3.991992e+003,4.772395e-004
3.993920e+003,4.336461e-004
3.995849e+003,4.154146e-004
3.997777e+003,3.362298e-004
3.999706e+003,2.825186e-004
4.001635e+003,0.000000e+000
