3.991992e+002,0.000000e+000
4.011277e+002,0.000000e+000
4.030562e+002,0.000000e+000
4.049846e+002,0.000000e+000
4.069131e+002,0.000000e+000
4.088416e+002,0.000000e+000
4.107701e+002,0.000000e+000
4.126986e+002,0.000000e+000
4.146271e+002,0.000000e+000
4.165556e+002,0.000000e+000
4.184841e+002,0.000000e+000
4.204126e+002,0.000000e+000
4.223411e+002,0.000000e+000
4.242697e+002,0.000000e+000
4.261982e+002,0.000000e+000
4.281266e+002,0.000000e+000
4.300551e+002,0.000000e+000
4.319836e+002,0.000000e+000
4.339121e+002,0.000000e+000
4.358406e+002,0.000000e+000
4.377691e+002,0.000000e+000
4.396976e+002,0.000000e+000
4.416261e+002,0.000000e+000
4.435546e+002,0.000000e+000
4.454831e+002,0.000000e+000
4.474116e+002,0.000000e+000
4.493401e+002,0.000000e+000
4.512686e+002,0.000000e+000
4.531971e+002,0.000000e+000
4.551256e+002,0.000000e+000
4.570541e+002,0.000000e+000
4.589826e+002,0.000000e+000
4.609111e+002,0.000000e+000
4.628396e+002,0.000000e+000
4.647681e+002,0.000000e+000
4.666966e+002,0.000000e+000
4.686251e+002,0.000000e+000
4.705536e+002,0.000000e+000
4.724821e+002,0.000000e+000
4.744106e+002,0.000000e+000
4.763391e+002,0.000000e+000
4.782676e+002,0.000000e+000
4.801961e+002,0.000000e+000
4.821246e+002,0.000000e+000
4.840531e+002,0.000000e+000
4.859816e+002,0.000000e+000
4.879101e+002,0.000000e+000
4.898386e+002,0.000000e+000
4.917671e+002,0.000000e+000
4.936956e+002,0.000000e+000
4.956241e+002,0.000000e+000
4.975526e+002,0.000000e+000
4.994811e+002,0.000000e+000
5.014096e+002,0.000000e+000
5.033381e+002,0.000000e+000
5.052666e+002,0.000000e+000
5.071951e+002,0.000000e+000
5.091236e+002,0.000000e+000
5.110521e+002,0.000000e+000
5.129806e+002,0.000000e+000
5.149091e+002,0.000000e+000
5.168376e+002,0.000000e+000
5.187661e+002,0.000000e+000
5.206946e+002,0.000000e+000
5.226230e+002,0.000000e+000
5.245516e+002,2.416600e-004
5.264800e+002,2.251305e-004
5.284086e+002,1.457897e-004
5.303370e+002,5.611964e-005
5.322656e+002,7.571187e-005
5.341940e+002,9.672204e-005
5.361226e+002,1.022937e-004
5.380510e+002,-1.014397e-005
5.399796e+002,-9.978190e-006
5.419081e+002,3.595604e-005
5.438365e+002,5.249633e-005
5.457650e+002,2.808729e-005
5.476935e+002,1.206156e-005
5.496221e+002,-9.615906e-007
5.515505e+002,1.680809e-004
5.534790e+002,1.982278e-004
5.554075e+002,1.946641e-004
5.573361e+002,1.682327e-004
5.592645e+002,1.504226e-004
5.611931e+002,1.399093e-004
5.631215e+002,1.591602e-004
5.650500e+002,1.067137e-004
5.669785e+002,2.788799e-005
5.689070e+002,-7.341290e-005
5.708355e+002,-1.141704e-004
5.727640e+002,-1.802603e-004
5.746925e+002,-1.758649e-004
5.766210e+002,-2.511949e-004
5.785495e+002,-2.880832e-004
5.804780e+002,-2.427739e-004
5.824065e+002,-1.577474e-004
5.843350e+002,-2.271631e-004
5.862635e+002,-2.160519e-004
5.881920e+002,-1.923139e-004
5.901205e+002,-1.465934e-004
5.920490e+002,-1.530279e-004
5.939775e+002,-1.160959e-004
5.959060e+002,-1.414372e-004
5.978345e+002,-1.297616e-004
5.997630e+002,-1.739194e-004
6.016915e+002,-1.802319e-004
6.036200e+002,-2.259081e-004
6.055485e+002,-1.338269e-004
6.074770e+002,-7.289834e-005
6.094055e+002,-1.514726e-004
6.113340e+002,-2.826233e-004
6.132625e+002,-3.195927e-004
6.151910e+002,-4.454325e-004
6.171195e+002,-4.072301e-004
6.190480e+002,-3.324016e-004
6.209765e+002,-2.672472e-004
6.229050e+002,-2.395585e-004
6.248335e+002,-1.446377e-004
6.267620e+002,-1.507895e-004
6.286905e+002,-1.327978e-004
6.306190e+002,-1.651379e-004
6.325475e+002,-7.739663e-005
6.344760e+002,-1.383759e-005
6.364045e+002,7.867813e-005
6.383330e+002,1.475620e-004
6.402615e+002,2.419623e-004
6.421899e+002,2.215668e-004
6.441185e+002,2.762508e-004
6.460470e+002,2.735341e-004
6.479755e+002,2.803574e-004
6.499039e+002,3.275112e-004
6.518325e+002,3.410522e-004
6.537610e+002,3.340649e-004
6.556895e+002,4.185936e-004
6.576179e+002,3.771619e-004
6.595464e+002,4.198602e-004
6.614750e+002,4.192069e-004
6.634034e+002,4.375414e-004
6.653319e+002,3.703590e-004
6.672604e+002,5.546231e-004
6.691890e+002,6.680246e-004
6.711174e+002,6.776243e-004
6.730460e+002,7.090489e-004
6.749745e+002,8.492563e-004
6.769030e+002,9.297919e-004
6.788314e+002,1.035500e-003
6.807599e+002,1.106383e-003
6.826885e+002,1.272392e-003
6.846169e+002,1.477700e-003
6.865454e+002,1.646906e-003
6.884739e+002,1.684787e-003
6.904025e+002,1.984857e-003
6.923309e+002,2.273950e-003
6.942594e+002,2.640165e-003
6.961879e+002,3.124847e-003
6.981165e+002,3.819246e-003
7.000449e+002,4.734135e-003
7.019734e+002,6.025977e-003
7.039019e+002,7.528482e-003
7.058304e+002,9.694133e-003
7.077589e+002,1.264609e-002
7.096874e+002,1.706967e-002
7.116159e+002,2.422938e-002
7.135444e+002,3.812502e-002
7.154729e+002,6.293458e-002
7.174014e+002,9.610099e-002
7.193299e+002,1.109934e-001
7.212584e+002,8.511982e-002
7.231869e+002,5.792613e-002
7.251154e+002,4.872030e-002
7.270439e+002,5.407538e-002
7.289724e+002,6.873140e-002
7.309009e+002,6.282996e-002
7.328294e+002,3.562645e-002
7.347579e+002,1.866488e-002
7.366864e+002,1.258528e-002
7.386149e+002,9.882730e-003
7.405434e+002,8.193060e-003
7.424719e+002,7.168556e-003
7.444004e+002,6.410220e-003
7.463289e+002,5.851198e-003
7.482574e+002,5.247588e-003
7.501859e+002,4.795170e-003
7.521144e+002,4.515839e-003
7.540428e+002,4.290454e-003
7.559714e+002,4.018469e-003
7.578999e+002,3.911749e-003
7.598284e+002,3.810582e-003
7.617568e+002,3.655549e-003
7.636854e+002,3.566079e-003
7.656139e+002,3.498757e-003
7.675424e+002,3.455687e-003
7.694709e+002,3.426749e-003
7.713994e+002,3.360339e-003
7.733279e+002,3.235578e-003
7.752563e+002,3.137785e-003
7.771849e+002,3.063146e-003
7.791134e+002,2.917286e-003
7.810419e+002,2.802218e-003
7.829703e+002,2.692858e-003
7.848989e+002,2.557812e-003
7.868274e+002,2.438962e-003
7.887559e+002,2.306778e-003
7.906843e+002,2.263651e-003
7.926129e+002,2.305071e-003
7.945414e+002,2.289761e-003
7.964698e+002,2.249499e-003
7.983983e+002,2.187056e-003
8.003268e+002,2.130066e-003
8.022554e+002,2.158386e-003
8.041838e+002,2.164062e-003
8.061123e+002,2.090077e-003
8.080408e+002,1.971338e-003
8.099694e+002,1.909148e-003
8.118978e+002,1.852149e-003
8.138263e+002,1.814226e-003
8.157548e+002,1.718076e-003
8.176833e+002,1.667414e-003
8.196118e+002,1.643126e-003
8.215403e+002,1.632781e-003
8.234689e+002,1.561085e-003
8.253973e+002,1.441777e-003
8.273258e+002,1.389375e-003
8.292543e+002,1.418101e-003
8.311829e+002,1.380319e-003
8.331113e+002,1.318424e-003
8.350398e+002,1.311767e-003
8.369683e+002,1.367862e-003
8.388969e+002,1.372654e-003
8.408253e+002,1.334033e-003
8.427538e+002,1.335864e-003
8.446823e+002,1.364065e-003
8.466108e+002,1.322196e-003
8.485393e+002,1.376437e-003
8.504678e+002,1.423765e-003
8.523963e+002,1.449300e-003
8.543248e+002,1.464222e-003
8.562533e+002,1.440439e-003
8.581818e+002,1.393492e-003
8.601103e+002,1.366956e-003
8.620388e+002,1.351483e-003
8.639673e+002,1.405618e-003
8.658958e+002,1.420771e-003
8.678243e+002,1.411705e-003
8.697528e+002,1.420034e-003
8.716813e+002,1.492691e-003
8.736098e+002,1.502699e-003
8.755383e+002,1.558076e-003
8.774668e+002,1.670748e-003
8.793953e+002,1.855919e-003
8.813238e+002,2.021289e-003
8.832523e+002,2.250405e-003
8.851808e+002,2.497283e-003
8.871093e+002,2.660199e-003
8.890378e+002,2.608124e-003
8.909663e+002,2.502326e-003
8.928948e+002,2.402893e-003
8.948232e+002,2.314411e-003
8.967518e+002,2.196308e-003
8.986803e+002,2.084314e-003
9.006088e+002,2.011339e-003
9.025372e+002,2.076523e-003
9.044658e+002,2.162479e-003
9.063943e+002,2.385874e-003
9.083228e+002,2.555709e-003
9.102512e+002,2.493093e-003
9.121797e+002,2.235561e-003
9.141083e+002,2.027107e-003
9.160367e+002,1.837098e-003
9.179653e+002,1.767971e-003
9.198937e+002,1.691640e-003
9.218223e+002,1.685113e-003
9.237507e+002,1.686701e-003
9.256793e+002,1.745924e-003
9.276077e+002,1.720616e-003
9.295363e+002,1.730794e-003
9.314647e+002,1.764865e-003
9.333932e+002,1.813250e-003
9.353217e+002,1.815279e-003
9.372502e+002,1.775367e-003
9.391787e+002,1.718057e-003
9.411072e+002,1.721805e-003
9.430358e+002,1.689367e-003
9.449642e+002,1.715137e-003
9.468928e+002,1.756344e-003
9.488212e+002,1.712051e-003
9.507498e+002,1.634640e-003
9.526782e+002,1.686682e-003
9.546068e+002,1.759215e-003
9.565352e+002,1.831677e-003
9.584637e+002,1.907416e-003
9.603922e+002,2.020323e-003
9.623207e+002,2.088276e-003
9.642492e+002,2.205115e-003
9.661777e+002,2.192355e-003
9.681062e+002,2.184381e-003
9.700347e+002,2.142794e-003
9.719632e+002,2.094291e-003
9.738917e+002,2.001741e-003
9.758202e+002,1.954742e-003
9.777487e+002,1.937988e-003
9.796772e+002,1.985409e-003
9.816057e+002,1.947965e-003
9.835342e+002,1.921985e-003
9.854627e+002,1.961083e-003
9.873912e+002,2.116185e-003
9.893197e+002,2.196535e-003
9.912482e+002,2.228565e-003
9.931767e+002,2.240766e-003
9.951052e+002,2.324604e-003
9.970337e+002,2.329218e-003
9.989622e+002,2.326058e-003
1.000891e+003,2.338020e-003
1.002819e+003,2.427896e-003
1.004748e+003,2.443144e-003
1.006676e+003,2.467575e-003
1.008605e+003,2.525777e-003
1.010533e+003,2.654415e-003
1.012462e+003,2.742663e-003
1.014390e+003,2.901052e-003
1.016319e+003,2.950735e-003
1.018247e+003,3.002700e-003
1.020176e+003,3.048287e-003
1.022104e+003,3.085711e-003
1.024033e+003,3.064612e-003
1.025961e+003,3.107746e-003
1.027890e+003,3.167243e-003
1.029818e+003,3.211938e-003
1.031747e+003,3.234385e-003
1.033675e+003,3.322162e-003
1.035604e+003,3.316034e-003
1.037532e+003,3.388782e-003
1.039461e+003,3.435734e-003
1.041389e+003,3.491998e-003
1.043318e+003,3.499283e-003
1.045246e+003,3.591217e-003
1.047175e+003,3.692130e-003
1.049103e+003,3.851804e-003
1.051032e+003,3.954012e-003
1.052960e+003,3.996080e-003
1.054889e+003,3.986871e-003
1.056817e+003,4.034541e-003
1.058746e+003,4.150029e-003
1.060674e+003,4.360468e-003
1.062603e+003,4.455363e-003
1.064531e+003,4.483939e-003
1.066460e+003,4.472934e-003
1.068388e+003,4.527471e-003
1.070317e+003,4.551365e-003
1.072245e+003,4.675301e-003
1.074174e+003,4.804700e-003
1.076102e+003,5.001539e-003
1.078031e+003,5.101464e-003
1.079959e+003,5.148032e-003
1.081888e+003,5.073086e-003
1.083816e+003,5.088300e-003
1.085745e+003,5.017169e-003
1.087673e+003,4.942304e-003
1.089602e+003,4.821852e-003
1.091530e+003,4.672457e-003
1.093459e+003,4.514394e-003
1.095387e+003,4.412612e-003
1.097316e+003,4.265684e-003
1.099244e+003,4.198383e-003
1.101173e+003,4.089906e-003
1.103101e+003,4.029445e-003
1.105030e+003,3.953849e-003
1.106958e+003,3.887982e-003
1.108887e+003,3.787057e-003
1.110815e+003,3.731688e-003
1.112744e+003,3.659182e-003
1.114672e+003,3.640638e-003
1.116601e+003,3.557165e-003
1.118529e+003,3.528102e-003
1.120458e+003,3.484990e-003
1.122386e+003,3.527803e-003
1.124315e+003,3.517353e-003
1.126243e+003,3.558831e-003
1.128172e+003,3.590539e-003
1.130100e+003,3.653240e-003
1.132029e+003,3.615005e-003
1.133957e+003,3.596363e-003
1.135885e+003,3.567570e-003
1.137814e+003,3.589937e-003
1.139743e+003,3.587879e-003
1.141671e+003,3.631986e-003
1.143600e+003,3.658792e-003
1.145528e+003,3.805601e-003
1.147457e+003,3.935072e-003
1.149385e+003,4.128341e-003
1.151314e+003,4.353548e-003
1.153242e+003,4.603296e-003
1.155171e+003,4.718186e-003
1.157099e+003,4.784643e-003
1.159028e+003,4.781810e-003
1.160956e+003,4.834617e-003
1.162885e+003,4.791072e-003
1.164813e+003,4.755802e-003
1.166742e+003,4.650992e-003
1.168670e+003,4.565413e-003
1.170599e+003,4.398656e-003
1.172527e+003,4.285999e-003
1.174456e+003,4.196907e-003
1.176384e+003,4.200727e-003
1.178313e+003,4.085672e-003
1.180241e+003,3.914080e-003
1.182170e+003,3.745876e-003
1.184098e+003,3.742841e-003
1.186027e+003,3.729987e-003
1.187955e+003,3.778095e-003
1.189884e+003,3.816362e-003
1.191812e+003,3.887400e-003
1.193740e+003,3.937147e-003
1.195669e+003,4.050222e-003
1.197598e+003,4.101297e-003
1.199526e+003,4.223822e-003
1.201455e+003,4.347377e-003
1.203383e+003,4.519751e-003
1.205312e+003,4.637649e-003
1.207240e+003,4.804236e-003
1.209168e+003,4.918290e-003
1.211097e+003,5.095106e-003
1.213026e+003,5.234650e-003
1.214954e+003,5.438842e-003
1.216883e+003,5.569720e-003
1.218811e+003,5.739378e-003
1.220740e+003,5.841465e-003
1.222668e+003,6.008825e-003
1.224596e+003,6.140409e-003
1.226525e+003,6.285452e-003
1.228453e+003,6.371241e-003
1.230382e+003,6.516676e-003
1.232311e+003,6.636656e-003
1.234239e+003,6.785107e-003
1.236167e+003,6.834967e-003
1.238096e+003,6.948268e-003
1.240025e+003,6.983144e-003
1.241953e+003,7.030402e-003
1.243882e+003,6.997241e-003
1.245810e+003,6.978446e-003
1.247739e+003,6.887821e-003
1.249667e+003,6.866661e-003
1.251595e+003,6.761141e-003
1.253524e+003,6.735701e-003
1.255453e+003,6.684056e-003
1.257381e+003,6.686804e-003
1.259310e+003,6.647613e-003
1.261238e+003,6.617536e-003
1.263167e+003,6.461408e-003
1.265095e+003,6.355392e-003
1.267023e+003,6.212432e-003
1.268952e+003,6.194520e-003
1.270880e+003,6.187619e-003
1.272809e+003,6.264529e-003
1.274738e+003,6.268157e-003
1.276666e+003,6.356282e-003
1.278594e+003,6.394862e-003
1.280523e+003,6.519717e-003
1.282451e+003,6.617378e-003
1.284380e+003,6.837048e-003
1.286308e+003,7.064071e-003
1.288237e+003,7.369084e-003
1.290166e+003,7.610531e-003
1.292094e+003,7.980046e-003
1.294022e+003,8.348454e-003
1.295951e+003,8.815764e-003
1.297879e+003,9.110283e-003
1.299808e+003,9.353265e-003
1.301736e+003,9.434194e-003
1.303665e+003,9.510719e-003
1.305594e+003,9.450583e-003
1.307522e+003,9.378145e-003
1.309450e+003,9.088128e-003
1.311379e+003,8.777155e-003
1.313307e+003,8.296669e-003
1.315236e+003,7.903328e-003
1.317164e+003,7.486269e-003
1.319093e+003,7.145129e-003
1.321021e+003,6.698362e-003
1.322950e+003,6.439580e-003
1.324878e+003,6.184723e-003
1.326807e+003,6.124836e-003
1.328735e+003,6.057784e-003
1.330664e+003,6.156731e-003
1.332592e+003,6.432209e-003
1.334521e+003,7.003659e-003
1.336449e+003,7.642844e-003
1.338378e+003,8.554751e-003
1.340306e+003,9.212955e-003
1.342235e+003,9.633845e-003
1.344163e+003,1.006878e-002
1.346092e+003,1.075643e-002
1.348021e+003,1.143031e-002
1.349949e+003,1.216056e-002
1.351877e+003,1.249929e-002
1.353806e+003,1.255244e-002
1.355734e+003,1.233792e-002
1.357663e+003,1.243026e-002
1.359591e+003,1.282680e-002
1.361520e+003,1.376982e-002
1.363448e+003,1.498320e-002
1.365377e+003,1.612709e-002
1.367305e+003,1.708569e-002
1.369234e+003,1.757340e-002
1.371162e+003,1.731152e-002
1.373091e+003,1.768767e-002
1.375019e+003,1.966280e-002
1.376948e+003,2.122108e-002
1.378876e+003,1.950181e-002
1.380805e+003,1.498279e-002
1.382733e+003,1.063992e-002
1.384662e+003,8.160101e-003
1.386590e+003,6.720180e-003
1.388519e+003,5.928075e-003
1.390447e+003,5.414145e-003
1.392376e+003,5.345291e-003
1.394304e+003,5.197516e-003
1.396233e+003,5.255765e-003
1.398161e+003,5.045967e-003
1.400090e+003,5.116669e-003
1.402018e+003,4.949107e-003
1.403947e+003,5.206427e-003
1.405875e+003,5.225671e-003
1.407804e+003,5.457317e-003
1.409732e+003,5.512292e-003
1.411661e+003,5.806332e-003
1.413589e+003,5.816105e-003
1.415518e+003,6.271746e-003
1.417446e+003,6.572261e-003
1.419375e+003,7.384716e-003
1.421303e+003,7.623885e-003
1.423232e+003,8.729552e-003
1.425160e+003,1.010599e-002
1.427089e+003,1.208197e-002
1.429017e+003,1.465569e-002
1.430946e+003,1.850487e-002
1.432874e+003,2.161583e-002
1.434803e+003,2.478119e-002
1.436731e+003,2.812107e-002
1.438660e+003,3.103436e-002
1.440588e+003,3.278737e-002
1.442517e+003,3.538277e-002
1.444445e+003,3.749349e-002
1.446374e+003,4.049634e-002
1.448302e+003,4.455809e-002
1.450231e+003,5.073095e-002
1.452159e+003,5.981255e-002
1.454088e+003,7.139264e-002
1.456016e+003,8.280720e-002
1.457945e+003,1.074844e-001
1.459873e+003,1.489531e-001
1.461802e+003,1.941756e-001
1.463730e+003,1.997973e-001
1.465659e+003,1.589143e-001
1.467587e+003,1.445866e-001
1.469516e+003,1.425489e-001
1.471444e+003,1.601078e-001
1.473373e+003,1.368958e-001
1.475301e+003,7.412540e-002
1.477230e+003,3.361809e-002
1.479158e+003,2.169243e-002
1.481087e+003,1.577104e-002
1.483015e+003,1.295945e-002
1.484944e+003,1.075529e-002
1.486872e+003,1.018657e-002
1.488801e+003,8.709712e-003
1.490729e+003,8.241190e-003
1.492658e+003,6.959463e-003
1.494586e+003,6.984862e-003
1.496515e+003,6.148400e-003
1.498443e+003,6.127918e-003
1.500372e+003,5.338915e-003
1.502300e+003,5.355814e-003
1.504229e+003,4.983545e-003
1.506157e+003,5.814569e-003
1.508086e+003,4.652439e-003
1.510014e+003,4.682736e-003
1.511943e+003,4.101652e-003
1.513871e+003,4.298559e-003
1.515800e+003,4.117559e-003
1.517728e+003,4.333946e-003
1.519657e+003,3.949808e-003
1.521585e+003,4.466232e-003
1.523514e+003,3.859579e-003
1.525442e+003,4.006105e-003
1.527371e+003,3.544537e-003
1.529299e+003,3.509149e-003
1.531228e+003,3.323171e-003
1.533156e+003,3.702976e-003
1.535085e+003,3.301332e-003
1.537013e+003,3.503997e-003
1.538942e+003,3.601542e-003
1.540870e+003,4.144356e-003
1.542799e+003,3.516634e-003
1.544727e+003,3.425494e-003
1.546656e+003,2.848065e-003
1.548584e+003,2.968832e-003
1.550513e+003,2.859670e-003
1.552441e+003,2.973058e-003
1.554370e+003,2.921478e-003
1.556298e+003,3.227325e-003
1.558227e+003,3.312682e-003
1.560155e+003,2.979000e-003
1.562084e+003,2.474518e-003
1.564012e+003,2.569139e-003
1.565941e+003,2.394950e-003
1.567869e+003,2.594790e-003
1.569798e+003,2.520648e-003
1.571726e+003,2.415766e-003
1.573655e+003,2.377251e-003
1.575583e+003,2.730692e-003
1.577512e+003,2.374663e-003
1.579440e+003,2.281882e-003
1.581369e+003,2.213133e-003
1.583297e+003,2.299133e-003
1.585226e+003,2.266186e-003
1.587154e+003,2.344129e-003
1.589083e+003,2.254142e-003
1.591011e+003,2.313435e-003
1.592940e+003,2.193074e-003
1.594868e+003,2.259338e-003
1.596797e+003,2.138703e-003
1.598725e+003,2.155364e-003
1.600654e+003,2.123248e-003
1.602582e+003,2.197453e-003
1.604511e+003,2.094393e-003
1.606439e+003,2.176667e-003
1.608368e+003,2.141318e-003
1.610296e+003,2.179503e-003
1.612225e+003,2.066673e-003
1.614153e+003,2.275916e-003
1.616082e+003,2.464982e-003
1.618010e+003,2.412906e-003
1.619939e+003,2.253653e-003
1.621867e+003,2.553622e-003
1.623796e+003,2.576686e-003
1.625724e+003,2.529569e-003
1.627653e+003,2.493477e-003
1.629581e+003,2.538101e-003
1.631510e+003,2.492593e-003
1.633438e+003,2.771764e-003
1.635367e+003,3.148816e-003
1.637295e+003,3.096974e-003
1.639224e+003,2.869853e-003
1.641152e+003,2.912879e-003
1.643081e+003,2.865916e-003
1.645009e+003,3.214029e-003
1.646938e+003,3.371827e-003
1.648866e+003,3.002667e-003
1.650795e+003,2.891596e-003
1.652723e+003,3.604289e-003
1.654652e+003,2.826033e-003
1.656580e+003,2.468866e-003
1.658509e+003,2.265217e-003
1.660437e+003,2.398273e-003
1.662366e+003,2.525588e-003
1.664294e+003,2.371076e-003
1.666223e+003,2.181952e-003
1.668151e+003,2.464887e-003
1.670080e+003,2.449991e-003
1.672008e+003,2.263109e-003
1.673937e+003,2.135143e-003
1.675865e+003,2.088588e-003
1.677794e+003,1.900012e-003
1.679722e+003,2.091040e-003
1.681651e+003,2.127002e-003
1.683579e+003,2.624740e-003
1.685508e+003,1.912129e-003
1.687436e+003,1.661004e-003
1.689365e+003,1.440448e-003
1.691293e+003,1.355454e-003
1.693222e+003,1.398628e-003
1.695150e+003,1.878873e-003
1.697079e+003,1.890711e-003
1.699007e+003,1.997451e-003
1.700936e+003,1.579009e-003
1.702864e+003,1.466593e-003
1.704793e+003,1.600794e-003
1.706721e+003,1.634619e-003
1.708650e+003,1.487303e-003
1.710578e+003,1.663266e-003
1.712507e+003,1.874398e-003
1.714435e+003,2.479222e-003
1.716364e+003,2.969257e-003
1.718292e+003,3.030689e-003
1.720221e+003,2.549509e-003
1.722149e+003,2.522647e-003
1.724078e+003,2.205653e-003
1.726006e+003,1.892608e-003
1.727935e+003,1.715207e-003
1.729863e+003,1.763560e-003
1.731792e+003,1.892490e-003
1.733720e+003,2.379385e-003
1.735649e+003,1.592764e-003
1.737577e+003,1.442073e-003
1.739506e+003,1.413499e-003
1.741434e+003,1.284220e-003
1.743363e+003,1.216531e-003
1.745291e+003,1.218905e-003
1.747220e+003,1.252038e-003
1.749148e+003,1.395034e-003
1.751077e+003,9.457432e-004
1.753005e+003,5.803434e-004
1.754934e+003,3.691632e-004
1.756862e+003,3.743321e-004
1.758791e+003,2.330504e-004
1.760719e+003,3.303094e-004
1.762648e+003,1.068162e-004
1.764576e+003,1.053233e-005
1.766505e+003,3.767293e-005
1.768433e+003,1.806850e-004
1.770362e+003,2.890807e-004
1.772290e+003,4.675826e-004
1.774219e+003,-5.664583e-005
1.776147e+003,-1.789033e-004
1.778076e+003,-1.428304e-004
1.780004e+003,9.598024e-005
1.781933e+003,-7.824972e-005
1.783861e+003,9.600073e-006
1.785790e+003,-1.171455e-004
1.787718e+003,-1.809504e-004
1.789646e+003,-4.351512e-005
1.791575e+003,4.008142e-004
1.793504e+003,1.104772e-004
1.795432e+003,-3.778655e-005
1.797361e+003,-2.064025e-004
1.799289e+003,-1.494009e-004
1.801218e+003,-1.624413e-004
1.803146e+003,-2.153963e-004
1.805074e+003,-3.687888e-004
1.807003e+003,-3.416324e-004
1.808932e+003,-3.837775e-004
1.810860e+003,-3.092559e-004
1.812789e+003,-6.394656e-004
1.814717e+003,-9.597065e-004
1.816646e+003,-1.076113e-003
1.818574e+003,-6.483346e-004
1.820502e+003,-5.728453e-004
1.822431e+003,-3.975173e-004
1.824360e+003,-4.300866e-004
1.826288e+003,-3.975704e-004
1.828217e+003,-2.784943e-004
1.830145e+003,-2.132822e-004
1.832073e+003,-7.556882e-004
1.834002e+003,-7.965276e-004
1.835931e+003,-8.576205e-004
1.837859e+003,-7.112250e-004
1.839788e+003,-9.386186e-004
1.841716e+003,-7.827524e-004
1.843645e+003,-5.654097e-004
1.845573e+003,-5.957577e-004
1.847501e+003,-9.405492e-004
1.849430e+003,-9.702966e-004
1.851359e+003,-1.052943e-003
1.853287e+003,-7.493999e-004
1.855216e+003,-8.449182e-004
1.857144e+003,-7.540435e-004
1.859073e+003,-8.452190e-004
1.861001e+003,-7.821033e-004
1.862929e+003,-8.837059e-004
1.864858e+003,-6.391983e-004
1.866787e+003,-3.098138e-004
1.868715e+003,1.202654e-004
1.870644e+003,-3.424641e-004
1.872572e+003,-5.043056e-004
1.874500e+003,-7.731002e-004
1.876429e+003,-7.578302e-004
1.878357e+003,-8.001290e-004
1.880286e+003,-5.492391e-004
1.882215e+003,-7.064315e-004
1.884143e+003,-6.128363e-004
1.886072e+003,-9.239400e-004
1.888000e+003,-4.094467e-004
1.889928e+003,-3.552502e-004
1.891857e+003,-2.622316e-004
1.893785e+003,3.429316e-005
1.895714e+003,4.335931e-004
1.897643e+003,1.339661e-004
1.899571e+003,1.083920e-004
1.901500e+003,1.082616e-004
1.903428e+003,1.081228e-004
1.905356e+003,1.079766e-004
1.907285e+003,1.078220e-004
1.909213e+003,1.076600e-004
1.911142e+003,1.074905e-004
1.913071e+003,1.073135e-004
1.914999e+003,1.071272e-004
1.916927e+003,1.069345e-004
1.918856e+003,1.067333e-004
1.920784e+003,1.065265e-004
1.922713e+003,1.063105e-004
1.924641e+003,1.060860e-004
1.926570e+003,1.058541e-004
1.928499e+003,1.056166e-004
1.930427e+003,1.053689e-004
1.932355e+003,1.051147e-004
1.934284e+003,1.048511e-004
1.936212e+003,1.045829e-004
1.938141e+003,1.043035e-004
1.940070e+003,1.040185e-004
1.941998e+003,1.037251e-004
1.943927e+003,1.034252e-004
1.945855e+003,1.031160e-004
1.947783e+003,1.028003e-004
1.949712e+003,1.024753e-004
1.951640e+003,1.021447e-004
1.953569e+003,1.018038e-004
1.955498e+003,1.014573e-004
1.957426e+003,1.011025e-004
1.959354e+003,1.007393e-004
1.961283e+003,1.003696e-004
1.963211e+003,9.999145e-005
1.965140e+003,9.960681e-005
1.967068e+003,9.921193e-005
1.968997e+003,9.881146e-005
1.970926e+003,9.840261e-005
1.972854e+003,9.798538e-005
1.974782e+003,9.755976e-005
1.976711e+003,9.712949e-005
1.978639e+003,9.668991e-005
1.980568e+003,9.624194e-005
1.982496e+003,9.578560e-005
1.984425e+003,9.532366e-005
1.986354e+003,9.485241e-005
1.988282e+003,9.437371e-005
1.990210e+003,9.388756e-005
1.992139e+003,9.339489e-005
1.994067e+003,9.289291e-005
1.995996e+003,9.238347e-005
1.997924e+003,9.186566e-005
1.999853e+003,9.134226e-005
2.001781e+003,9.080861e-005
2.003710e+003,9.026844e-005
2.005638e+003,8.972082e-005
2.007567e+003,8.916575e-005
2.009495e+003,8.860137e-005
2.011424e+003,8.803140e-005
2.013352e+003,8.745305e-005
2.015281e+003,8.686632e-005
2.017209e+003,8.627120e-005
2.019138e+003,8.567050e-005
2.021066e+003,8.506048e-005
2.022995e+003,8.444209e-005
2.024923e+003,8.381810e-005
2.026852e+003,8.318573e-005
2.028781e+003,8.254498e-005
2.030709e+003,8.189585e-005
2.032637e+003,8.124020e-005
2.034566e+003,8.057710e-005
2.036494e+003,7.990468e-005
2.038423e+003,7.922575e-005
2.040351e+003,7.853936e-005
2.042280e+003,7.784553e-005
2.044208e+003,7.714238e-005
2.046137e+003,7.643271e-005
2.048065e+003,7.571559e-005
2.049994e+003,7.499009e-005
2.051922e+003,7.425621e-005
2.053851e+003,7.351674e-005
2.055779e+003,7.276703e-005
2.057708e+003,7.201079e-005
2.059636e+003,7.124711e-005
2.061565e+003,7.047504e-005
2.063493e+003,6.969552e-005
2.065422e+003,6.890763e-005
2.067350e+003,6.811414e-005
2.069279e+003,6.731134e-005
2.071207e+003,6.650016e-005
2.073136e+003,6.568246e-005
2.075064e+003,6.485730e-005
2.076993e+003,6.402377e-005
2.078921e+003,6.318185e-005
2.080850e+003,6.233342e-005
2.082778e+003,6.147753e-005
2.084707e+003,6.061327e-005
2.086635e+003,5.973969e-005
2.088564e+003,5.886145e-005
2.090492e+003,5.797390e-005
2.092421e+003,5.707704e-005
2.094349e+003,5.617458e-005
2.096278e+003,5.526468e-005
2.098206e+003,5.434826e-005
2.100135e+003,5.342159e-005
2.102063e+003,5.248748e-005
2.103992e+003,5.154498e-005
2.105920e+003,5.059503e-005
2.107849e+003,4.963856e-005
2.109777e+003,4.867371e-005
2.111706e+003,4.770141e-005
2.113634e+003,4.672259e-005
2.115563e+003,4.573539e-005
2.117491e+003,4.473981e-005
2.119420e+003,4.373491e-005
2.121348e+003,4.272349e-005
2.123277e+003,4.170556e-005
2.125205e+003,4.067831e-005
2.127134e+003,3.964361e-005
2.129062e+003,3.860425e-005
2.130991e+003,3.755558e-005
2.132919e+003,3.649667e-005
2.134848e+003,3.543030e-005
2.136776e+003,3.435835e-005
2.138705e+003,3.327709e-005
2.140633e+003,3.218837e-005
2.142562e+003,3.109500e-005
2.144490e+003,2.999231e-005
2.146419e+003,2.887938e-005
2.148347e+003,2.775993e-005
2.150276e+003,2.663396e-005
2.152204e+003,2.550054e-005
2.154133e+003,2.435595e-005
2.156061e+003,2.320763e-005
2.157990e+003,2.205092e-005
2.159918e+003,2.088398e-005
2.161847e+003,1.971144e-005
2.163775e+003,1.853053e-005
2.165704e+003,1.734123e-005
2.167632e+003,1.614448e-005
2.169561e+003,1.494028e-005
2.171489e+003,1.373049e-005
2.173418e+003,1.251139e-005
2.175346e+003,1.128297e-005
2.177275e+003,1.004897e-005
2.179203e+003,8.806586e-006
2.181132e+003,7.556751e-006
2.183060e+003,6.297603e-006
2.184989e+003,5.031005e-006
2.186917e+003,3.760681e-006
2.188846e+003,2.477318e-006
2.190774e+003,1.189299e-006
2.192703e+003,-1.071021e-007
2.194631e+003,-1.411885e-006
2.196560e+003,-2.725050e-006
2.198488e+003,-4.043803e-006
2.200417e+003,-5.370006e-006
2.202345e+003,-6.705523e-006
2.204274e+003,-8.048490e-006
2.206202e+003,-9.398907e-006
2.208131e+003,-1.075771e-005
2.210059e+003,-1.212396e-005
2.211988e+003,-1.349766e-005
2.213916e+003,-1.487974e-005
2.215845e+003,-1.626927e-005
2.217773e+003,-1.766533e-005
2.219702e+003,-1.906976e-005
2.221630e+003,-2.048165e-005
2.223559e+003,-2.190284e-005
2.225487e+003,-2.332963e-005
2.227416e+003,-2.476573e-005
2.229344e+003,-2.620835e-005
2.231273e+003,-2.765935e-005
2.233201e+003,-2.911687e-005
2.235130e+003,-3.058370e-005
2.237058e+003,-3.205799e-005
2.238987e+003,-3.354065e-005
2.240915e+003,-3.502984e-005
2.242844e+003,-3.652740e-005
2.244772e+003,-3.803242e-005
2.246701e+003,-3.954396e-005
2.248629e+003,-4.106387e-005
2.250558e+003,-4.259218e-005
2.252486e+003,-4.412886e-005
2.254415e+003,-4.567206e-005
2.256343e+003,-4.722364e-005
2.258272e+003,-4.878268e-005
2.260200e+003,-5.035009e-005
2.262129e+003,-5.192310e-005
2.264057e+003,-5.350541e-005
2.265986e+003,-5.509611e-005
2.267914e+003,-5.669426e-005
2.269843e+003,-5.829800e-005
2.271771e+003,-5.991198e-005
2.273700e+003,-6.153248e-005
2.275628e+003,-6.315950e-005
2.277557e+003,-6.479584e-005
2.279485e+003,-6.644148e-005
2.281414e+003,-6.809086e-005
2.283342e+003,-6.975047e-005
2.285271e+003,-7.141847e-005
2.287199e+003,-7.309485e-005
2.289128e+003,-7.477496e-005
2.291056e+003,-7.646531e-005
2.292985e+003,-7.816404e-005
2.294913e+003,-7.986929e-005
2.296842e+003,-8.158199e-005
2.298770e+003,-8.330401e-005
2.300699e+003,-8.503348e-005
2.302627e+003,-8.676760e-005
2.304556e+003,-8.851103e-005
2.306484e+003,-9.026472e-005
2.308413e+003,-9.202491e-005
2.310341e+003,-9.379163e-005
2.312270e+003,-9.556767e-005
2.314198e+003,-9.735115e-005
2.316127e+003,-9.914115e-005
2.318055e+003,-1.009386e-004
2.319984e+003,-1.027435e-004
2.321912e+003,-1.045587e-004
2.323841e+003,-1.063785e-004
2.325769e+003,-1.082094e-004
2.327698e+003,-1.100469e-004
2.329626e+003,-1.118900e-004
2.331555e+003,-1.137434e-004
2.333483e+003,-1.156023e-004
2.335412e+003,-1.174696e-004
2.337340e+003,-1.193453e-004
2.339269e+003,-1.212275e-004
2.341197e+003,-1.231199e-004
2.343126e+003,-1.250189e-004
2.345054e+003,-1.269244e-004
2.346983e+003,-1.288382e-004
2.348911e+003,-1.307596e-004
2.350840e+003,-1.326893e-004
2.352768e+003,-1.346245e-004
2.354697e+003,-1.365710e-004
2.356625e+003,-1.385249e-004
2.358554e+003,-1.404844e-004
2.360482e+003,-1.424532e-004
2.362411e+003,-1.444295e-004
2.364339e+003,-1.464104e-004
2.366268e+003,-1.484025e-004
2.368196e+003,-1.504011e-004
2.370125e+003,-1.524091e-004
2.372053e+003,-1.544226e-004
2.373982e+003,-1.564445e-004
2.375910e+003,-1.584757e-004
2.377839e+003,-1.605116e-004
2.379767e+003,-1.625558e-004
2.381696e+003,-1.646113e-004
2.383624e+003,-1.666714e-004
2.385553e+003,-1.687398e-004
2.387481e+003,-1.708148e-004
2.389410e+003,-1.728991e-004
2.391338e+003,-1.749899e-004
2.393267e+003,-1.770882e-004
2.395195e+003,-1.791967e-004
2.397124e+003,-1.813117e-004
2.399052e+003,-1.834342e-004
2.400981e+003,-2.326546e-004
2.402909e+003,-2.785642e-004
2.404838e+003,-2.060430e-004
2.406766e+003,4.016981e-005
2.408695e+003,4.359866e-004
2.410623e+003,4.926696e-004
2.412552e+003,4.938468e-004
2.414480e+003,4.956713e-004
2.416409e+003,5.624434e-004
2.418337e+003,4.746607e-004
2.420266e+003,4.930692e-004
2.422194e+003,4.415121e-004
2.424123e+003,4.454739e-004
2.426051e+003,4.657591e-004
2.427979e+003,5.070679e-004
2.429908e+003,4.176479e-004
2.431837e+003,3.012605e-004
2.433765e+003,2.075341e-004
2.435694e+003,1.942618e-004
2.437622e+003,2.731103e-004
2.439551e+003,3.261529e-004
2.441479e+003,3.024125e-004
2.443407e+003,3.931979e-004
2.445336e+003,4.431615e-004
2.447265e+003,4.693307e-004
2.449193e+003,3.881007e-004
2.451122e+003,5.107280e-004
2.453050e+003,5.492102e-004
2.454979e+003,5.822163e-004
2.456907e+003,5.632751e-004
2.458836e+003,5.076565e-004
2.460764e+003,4.646126e-004
2.462693e+003,4.831310e-004
2.464621e+003,4.192647e-004
2.466550e+003,4.619155e-004
2.468478e+003,3.673658e-004
2.470406e+003,7.016659e-004
2.472335e+003,9.241719e-004
2.474264e+003,7.792488e-004
2.476192e+003,6.596092e-004
2.478121e+003,7.137991e-004
2.480049e+003,7.237531e-004
2.481978e+003,9.113736e-004
2.483906e+003,9.534284e-004
2.485835e+003,7.506795e-004
2.487763e+003,7.649455e-004
2.489692e+003,9.178072e-004
2.491620e+003,9.345654e-004
2.493549e+003,1.051463e-003
2.495477e+003,1.234751e-003
2.497406e+003,1.438191e-003
2.499334e+003,1.387475e-003
2.501263e+003,1.320681e-003
2.503191e+003,1.245856e-003
2.505120e+003,1.354937e-003
2.507048e+003,1.381127e-003
2.508977e+003,1.466656e-003
2.510905e+003,1.550127e-003
2.512833e+003,1.586245e-003
2.514762e+003,1.629952e-003
2.516691e+003,1.759078e-003
2.518619e+003,1.952380e-003
2.520548e+003,2.181169e-003
2.522476e+003,2.236852e-003
2.524405e+003,2.356591e-003
2.526333e+003,2.372906e-003
2.528261e+003,2.475206e-003
2.530190e+003,2.661249e-003
2.532119e+003,2.619943e-003
2.534047e+003,2.376325e-003
2.535976e+003,2.202621e-003
2.537904e+003,2.235690e-003
2.539833e+003,2.328973e-003
2.541761e+003,2.565632e-003
2.543689e+003,2.884770e-003
2.545618e+003,3.004197e-003
2.547547e+003,3.126046e-003
2.549475e+003,3.194174e-003
2.551404e+003,3.263518e-003
2.553332e+003,3.340630e-003
2.555260e+003,3.482072e-003
2.557189e+003,3.605705e-003
2.559117e+003,3.612362e-003
2.561046e+003,3.606576e-003
2.562975e+003,3.654644e-003
2.564903e+003,3.910584e-003
2.566832e+003,4.179180e-003
2.568760e+003,4.199086e-003
2.570688e+003,4.345370e-003
2.572617e+003,4.415441e-003
2.574546e+003,4.607588e-003
2.576474e+003,4.831102e-003
2.578403e+003,5.013878e-003
2.580331e+003,5.144816e-003
2.582260e+003,5.409976e-003
2.584188e+003,5.750705e-003
2.586116e+003,5.918389e-003
2.588045e+003,6.070146e-003
2.589974e+003,6.398894e-003
2.591902e+003,6.529972e-003
2.593831e+003,6.698545e-003
2.595759e+003,6.884854e-003
2.597688e+003,7.098185e-003
2.599616e+003,7.284589e-003
2.601544e+003,7.538566e-003
2.603473e+003,7.739719e-003
2.605402e+003,7.937757e-003
2.607330e+003,8.190157e-003
2.609259e+003,8.517055e-003
2.611187e+003,8.844696e-003
2.613115e+003,9.157838e-003
2.615044e+003,9.395780e-003
2.616972e+003,9.679377e-003
2.618901e+003,1.007451e-002
2.620830e+003,1.056687e-002
2.622758e+003,1.102230e-002
2.624687e+003,1.137263e-002
2.626615e+003,1.171821e-002
2.628543e+003,1.209771e-002
2.630472e+003,1.245570e-002
2.632400e+003,1.275414e-002
2.634329e+003,1.298738e-002
2.636258e+003,1.315697e-002
2.638186e+003,1.324404e-002
2.640115e+003,1.323754e-002
2.642043e+003,1.315569e-002
2.643971e+003,1.316365e-002
2.645900e+003,1.316512e-002
2.647828e+003,1.319622e-002
2.649757e+003,1.330343e-002
2.651686e+003,1.345544e-002
2.653614e+003,1.359667e-002
2.655542e+003,1.372580e-002
2.657471e+003,1.376638e-002
2.659399e+003,1.375749e-002
2.661328e+003,1.366452e-002
2.663256e+003,1.345277e-002
2.665185e+003,1.328345e-002
2.667114e+003,1.315454e-002
2.669042e+003,1.295127e-002
2.670970e+003,1.279577e-002
2.672899e+003,1.266814e-002
2.674827e+003,1.251131e-002
2.676756e+003,1.237119e-002
2.678685e+003,1.223679e-002
2.680613e+003,1.204662e-002
2.682542e+003,1.194233e-002
2.684470e+003,1.186315e-002
2.686398e+003,1.170974e-002
2.688327e+003,1.154853e-002
2.690255e+003,1.146952e-002
2.692184e+003,1.136378e-002
2.694113e+003,1.123802e-002
2.696041e+003,1.124063e-002
2.697969e+003,1.130882e-002
2.699898e+003,1.135178e-002
2.701826e+003,1.144857e-002
2.703755e+003,1.159150e-002
2.705683e+003,1.179456e-002
2.707612e+003,1.202010e-002
2.709541e+003,1.218025e-002
2.711469e+003,1.233122e-002
2.713397e+003,1.250971e-002
2.715326e+003,1.272041e-002
2.717254e+003,1.285640e-002
2.719183e+003,1.300635e-002
2.721111e+003,1.328082e-002
2.723040e+003,1.360900e-002
2.724969e+003,1.394596e-002
2.726897e+003,1.423744e-002
2.728825e+003,1.450131e-002
2.730754e+003,1.478149e-002
2.732682e+003,1.494931e-002
2.734611e+003,1.505177e-002
2.736539e+003,1.516464e-002
2.738468e+003,1.523257e-002
2.740396e+003,1.533692e-002
2.742325e+003,1.539103e-002
2.744253e+003,1.530477e-002
2.746182e+003,1.523567e-002
2.748110e+003,1.522882e-002
2.750039e+003,1.527965e-002
2.751967e+003,1.536045e-002
2.753896e+003,1.550234e-002
2.755824e+003,1.583941e-002
2.757753e+003,1.617156e-002
2.759681e+003,1.647922e-002
2.761610e+003,1.688769e-002
2.763538e+003,1.731900e-002
2.765467e+003,1.772792e-002
2.767395e+003,1.818637e-002
2.769324e+003,1.876350e-002
2.771252e+003,1.943736e-002
2.773181e+003,2.010149e-002
2.775109e+003,2.082804e-002
2.777038e+003,2.165957e-002
2.778966e+003,2.262088e-002
2.780895e+003,2.371657e-002
2.782823e+003,2.489460e-002
2.784752e+003,2.620294e-002
2.786680e+003,2.768517e-002
2.788609e+003,2.921972e-002
2.790537e+003,3.083588e-002
2.792466e+003,3.259451e-002
2.794394e+003,3.442942e-002
2.796323e+003,3.634369e-002
2.798251e+003,3.829994e-002
2.800180e+003,4.033935e-002
2.802108e+003,4.250589e-002
2.804037e+003,4.478984e-002
2.805965e+003,4.719193e-002
2.807894e+003,4.990712e-002
2.809822e+003,5.304478e-002
2.811751e+003,5.656014e-002
2.813679e+003,6.050717e-002
2.815608e+003,6.504343e-002
2.817536e+003,7.042081e-002
2.819465e+003,7.672037e-002
2.821393e+003,8.401579e-002
2.823322e+003,9.295625e-002
2.825250e+003,1.040582e-001
2.827179e+003,1.181100e-001
2.829107e+003,1.362934e-001
2.831036e+003,1.604758e-001
2.832964e+003,1.937570e-001
2.834893e+003,2.409973e-001
2.836821e+003,3.086179e-001
2.838750e+003,4.067042e-001
2.840678e+003,5.517692e-001
2.842607e+003,7.651213e-001
2.844535e+003,1.056659e+000
2.846464e+003,1.354017e+000
2.848392e+003,1.408781e+000
2.850321e+003,1.150124e+000
2.852249e+003,8.500286e-001
2.854178e+003,6.362913e-001
2.856106e+003,4.919370e-001
2.858035e+003,3.903994e-001
2.859963e+003,3.179239e-001
2.861892e+003,2.669904e-001
2.863820e+003,2.328208e-001
2.865749e+003,2.121316e-001
2.867677e+003,2.020696e-001
2.869606e+003,1.992341e-001
2.871534e+003,2.003352e-001
2.873463e+003,2.046555e-001
2.875391e+003,2.138107e-001
2.877320e+003,2.291740e-001
2.879248e+003,2.506013e-001
2.881177e+003,2.771115e-001
2.883105e+003,3.077496e-001
2.885034e+003,3.418657e-001
2.886962e+003,3.787507e-001
2.888891e+003,4.176203e-001
2.890819e+003,4.573520e-001
2.892748e+003,4.970467e-001
2.894676e+003,5.364857e-001
2.896605e+003,5.765963e-001
2.898533e+003,6.189709e-001
2.900462e+003,6.663924e-001
2.902390e+003,7.234188e-001
2.904319e+003,7.971733e-001
2.906247e+003,8.971580e-001
2.908176e+003,1.033812e+000
2.910104e+003,1.213645e+000
2.912033e+003,1.420583e+000
2.913961e+003,1.583031e+000
2.915890e+003,1.594959e+000
2.917818e+003,1.443195e+000
2.919747e+003,1.227752e+000
2.921675e+003,1.025987e+000
2.923604e+003,8.596799e-001
2.925532e+003,7.266379e-001
2.927461e+003,6.181575e-001
2.929389e+003,5.270068e-001
2.931318e+003,4.490600e-001
2.933246e+003,3.819156e-001
2.935175e+003,3.242783e-001
2.937103e+003,2.749544e-001
2.939032e+003,2.329800e-001
2.940960e+003,1.979052e-001
2.942889e+003,1.695285e-001
2.944817e+003,1.476416e-001
2.946746e+003,1.320968e-001
2.948674e+003,1.224163e-001
2.950603e+003,1.170527e-001
2.952531e+003,1.136793e-001
2.954460e+003,1.102975e-001
2.956388e+003,1.060224e-001
2.958317e+003,1.006086e-001
2.960245e+003,9.410007e-002
2.962174e+003,8.654484e-002
2.964102e+003,7.819468e-002
2.966031e+003,6.955637e-002
2.967959e+003,6.135011e-002
2.969888e+003,5.388618e-002
2.971816e+003,4.730354e-002
2.973745e+003,4.172254e-002
2.975673e+003,3.712341e-002
2.977602e+003,3.328549e-002
2.979530e+003,3.011694e-002
2.981459e+003,2.749608e-002
2.983387e+003,2.533281e-002
2.985316e+003,2.348350e-002
2.987244e+003,2.187445e-002
2.989173e+003,2.047385e-002
2.991101e+003,1.937386e-002
2.993030e+003,1.838041e-002
2.994958e+003,1.751184e-002
2.996887e+003,1.679779e-002
2.998815e+003,1.615124e-002
3.000744e+003,1.547413e-002
3.002672e+003,1.481212e-002
3.004601e+003,1.431374e-002
3.006529e+003,1.391979e-002
3.008458e+003,1.348146e-002
3.010386e+003,1.303463e-002
3.012315e+003,1.268305e-002
3.014243e+003,1.234739e-002
3.016172e+003,1.199150e-002
3.018100e+003,1.168709e-002
3.020029e+003,1.150721e-002
3.021957e+003,1.124188e-002
3.023886e+003,1.090823e-002
3.025814e+003,1.062719e-002
3.027743e+003,1.034532e-002
3.029671e+003,1.005483e-002
3.031600e+003,9.786637e-003
3.033528e+003,9.560918e-003
3.035457e+003,9.256756e-003
3.037385e+003,8.848969e-003
3.039314e+003,8.475978e-003
3.041242e+003,8.120218e-003
3.043171e+003,7.775011e-003
3.045099e+003,7.518996e-003
3.047028e+003,7.269502e-003
3.048956e+003,6.981980e-003
3.050885e+003,6.689817e-003
3.052813e+003,6.436253e-003
3.054742e+003,6.252738e-003
3.056670e+003,6.135765e-003
3.058599e+003,5.977808e-003
3.060527e+003,5.708467e-003
3.062456e+003,5.544696e-003
3.064384e+003,5.476505e-003
3.066313e+003,5.330728e-003
3.068241e+003,5.157104e-003
3.070170e+003,5.030045e-003
3.072098e+003,4.939770e-003
3.074027e+003,4.775155e-003
3.075955e+003,4.588325e-003
3.077884e+003,4.510397e-003
3.079812e+003,4.518572e-003
3.081741e+003,4.360998e-003
3.083669e+003,4.173579e-003
3.085598e+003,4.013328e-003
3.087526e+003,3.869355e-003
3.089455e+003,3.697168e-003
3.091383e+003,3.379913e-003
3.093312e+003,3.026443e-003
3.095240e+003,2.774587e-003
3.097169e+003,2.553158e-003
3.099097e+003,2.301922e-003
3.101026e+003,2.027627e-003
3.102954e+003,1.856137e-003
3.104883e+003,1.751618e-003
3.106811e+003,1.579251e-003
3.108740e+003,1.431607e-003
3.110668e+003,1.308413e-003
3.112597e+003,1.119345e-003
3.114525e+003,1.069987e-003
3.116454e+003,1.044914e-003
3.118382e+003,9.577405e-004
3.120311e+003,7.805172e-004
3.122239e+003,7.438622e-004
3.124168e+003,8.422304e-004
3.126096e+003,8.772463e-004
3.128025e+003,7.393435e-004
3.129953e+003,6.326865e-004
3.131882e+003,5.910657e-004
3.133810e+003,5.604681e-004
3.135739e+003,5.446132e-004
3.137667e+003,4.712641e-004
3.139596e+003,3.880020e-004
3.141524e+003,4.271008e-004
3.143453e+003,4.526973e-004
3.145381e+003,4.080124e-004
3.147310e+003,4.373342e-004
3.149238e+003,4.813205e-004
3.151167e+003,3.939141e-004
3.153095e+003,3.286935e-004
3.155024e+003,2.892017e-004
3.156952e+003,2.919566e-004
3.158881e+003,3.095921e-004
3.160809e+003,3.253371e-004
3.162738e+003,3.001057e-004
3.164666e+003,3.695469e-004
3.166594e+003,4.706345e-004
3.168523e+003,4.399940e-004
3.170452e+003,3.573336e-004
3.172380e+003,3.357641e-004
3.174309e+003,2.584979e-004
3.176237e+003,2.866648e-004
3.178166e+003,3.611874e-004
3.180094e+003,3.099069e-004
3.182022e+003,2.931580e-004
3.183951e+003,3.860369e-004
3.185880e+003,4.124232e-004
3.187808e+003,4.392713e-004
3.189737e+003,3.903303e-004
3.191665e+003,2.729949e-004
3.193594e+003,1.839008e-004
3.195522e+003,2.613235e-004
3.197450e+003,4.504733e-004
3.199379e+003,3.918968e-004
3.201308e+003,2.251528e-004
3.203236e+003,1.528952e-004
3.205165e+003,9.835139e-005
3.207093e+003,1.265351e-004
3.209021e+003,2.049860e-004
3.210950e+003,2.183504e-004
3.212878e+003,2.867822e-004
3.214807e+003,3.599469e-004
3.216736e+003,2.091471e-004
3.218664e+003,1.468007e-004
3.220593e+003,1.535416e-004
3.222521e+003,1.519360e-004
3.224449e+003,1.971126e-004
3.226378e+003,1.850966e-004
3.228307e+003,4.494563e-005
3.230235e+003,7.881597e-005
3.232164e+003,2.129301e-004
3.234092e+003,2.312623e-004
3.236021e+003,1.491718e-004
3.237949e+003,1.273714e-004
3.239877e+003,7.565878e-005
3.241806e+003,2.235547e-005
3.243735e+003,1.903120e-004
3.245663e+003,2.742410e-004
3.247592e+003,1.525041e-004
3.249520e+003,1.498871e-005
3.251448e+003,5.560182e-005
3.253377e+003,1.879297e-004
3.255305e+003,3.159288e-004
3.257234e+003,4.202910e-004
3.259163e+003,3.797095e-004
3.261091e+003,3.370978e-004
3.263020e+003,4.237425e-004
3.264948e+003,5.113762e-004
3.266876e+003,4.599541e-004
3.268805e+003,4.165061e-004
3.270733e+003,3.946982e-004
3.272662e+003,4.865862e-004
3.274591e+003,4.299413e-004
3.276519e+003,4.107449e-004
3.278448e+003,4.338026e-004
3.280376e+003,3.847536e-004
3.282304e+003,3.075767e-004
3.284233e+003,2.629329e-004
3.286161e+003,3.698058e-004
3.288090e+003,4.586559e-004
3.290019e+003,4.545487e-004
3.291947e+003,4.710555e-004
3.293875e+003,4.213639e-004
3.295804e+003,3.410932e-004
3.297732e+003,3.803130e-004
3.299661e+003,4.298016e-004
3.301589e+003,3.519449e-004
3.303518e+003,3.888961e-004
3.305447e+003,4.784241e-004
3.307375e+003,5.162731e-004
3.309303e+003,4.548691e-004
3.311232e+003,3.887098e-004
3.313160e+003,4.445259e-004
3.315089e+003,4.886817e-004
3.317018e+003,4.219692e-004
3.318946e+003,3.565177e-004
3.320875e+003,4.478823e-004
3.322803e+003,5.317423e-004
3.324731e+003,5.704649e-004
3.326660e+003,5.076211e-004
3.328588e+003,4.855078e-004
3.330517e+003,5.261712e-004
3.332446e+003,4.959516e-004
3.334374e+003,5.316082e-004
3.336302e+003,5.476438e-004
3.338231e+003,5.055722e-004
3.340159e+003,4.268959e-004
3.342088e+003,4.969090e-004
3.344016e+003,5.425699e-004
3.345945e+003,5.509797e-004
3.347874e+003,4.609711e-004
3.349802e+003,4.130490e-004
3.351730e+003,4.925001e-004
3.353659e+003,4.936606e-004
3.355587e+003,4.695076e-004
3.357516e+003,3.901497e-004
3.359444e+003,4.452076e-004
3.361373e+003,5.322527e-004
3.363302e+003,4.799664e-004
3.365230e+003,4.792921e-004
3.367158e+003,4.956257e-004
3.369087e+003,4.575197e-004
3.371015e+003,4.299190e-004
3.372944e+003,4.561264e-004
3.374872e+003,4.816819e-004
3.376801e+003,4.242435e-004
3.378729e+003,3.864262e-004
3.380658e+003,2.918690e-004
3.382586e+003,2.447031e-004
3.384515e+003,3.026705e-004
3.386443e+003,3.255848e-004
3.388372e+003,3.707707e-004
3.390300e+003,4.459191e-004
3.392229e+003,3.983453e-004
3.394157e+003,2.573356e-004
3.396086e+003,2.448205e-004
3.398014e+003,3.074687e-004
3.399943e+003,3.070999e-004
3.401871e+003,2.103895e-004
3.403800e+003,1.587290e-004
3.405728e+003,1.383144e-004
3.407657e+003,1.242980e-004
3.409585e+003,1.331102e-004
3.411514e+003,8.518435e-005
3.413442e+003,8.903630e-005
3.415371e+003,5.172007e-005
3.417299e+003,-2.072752e-005
3.419228e+003,4.534610e-005
3.421156e+003,1.331493e-004
3.423085e+003,1.128241e-004
3.425013e+003,9.466521e-005
3.426942e+003,7.890351e-005
3.428870e+003,6.647222e-005
3.430799e+003,1.382455e-005
3.432727e+003,-1.511034e-004
3.434656e+003,-1.640376e-004
3.436584e+003,-5.712174e-005
3.438513e+003,2.861395e-005
3.440441e+003,2.223626e-005
3.442370e+003,-5.786680e-005
3.444298e+003,-1.272727e-004
3.446227e+003,-2.085418e-005
3.448155e+003,-1.162123e-004
3.450084e+003,-1.883283e-004
3.452012e+003,-2.075285e-004
3.453941e+003,-2.444275e-004
3.455869e+003,-3.173221e-004
3.457798e+003,-3.469922e-004
3.459726e+003,-2.143346e-004
3.461655e+003,-2.262741e-004
3.463583e+003,-3.718529e-004
3.465512e+003,-4.167911e-004
3.467440e+003,-4.470758e-004
3.469369e+003,-4.699230e-004
3.471297e+003,-5.035494e-004
3.473226e+003,-5.759057e-004
3.475154e+003,-6.285757e-004
3.477083e+003,-6.886795e-004
3.479011e+003,-6.485004e-004
3.480940e+003,-5.092695e-004
3.482868e+003,-6.082226e-004
3.484797e+003,-7.517301e-004
3.486725e+003,-7.299297e-004
3.488654e+003,-6.536245e-004
3.490582e+003,-6.400887e-004
3.492511e+003,-7.212870e-004
3.494439e+003,-7.325932e-004
3.496368e+003,-7.309727e-004
3.498296e+003,-8.116513e-004
3.500225e+003,-6.954502e-004
3.502153e+003,-5.565956e-004
3.504082e+003,-7.761437e-004
3.506010e+003,-9.882338e-004
3.507939e+003,-9.199418e-004
3.509867e+003,-8.630306e-004
3.511796e+003,-1.060156e-003
3.513724e+003,-1.253569e-003
3.515653e+003,-1.317536e-003
3.517581e+003,-1.216361e-003
3.519510e+003,-1.144318e-003
3.521438e+003,-1.018865e-003
3.523367e+003,-9.603817e-004
3.525295e+003,-1.010267e-003
3.527224e+003,-9.656064e-004
3.529152e+003,-1.064723e-003
3.531081e+003,-1.274442e-003
3.533009e+003,-1.439914e-003
3.534938e+003,-1.474017e-003
3.536866e+003,-1.604185e-003
3.538795e+003,-1.576873e-003
3.540723e+003,-1.433508e-003
3.542652e+003,-1.319176e-003
3.544580e+003,-1.117641e-003
3.546509e+003,-1.104560e-003
3.548437e+003,-1.300065e-003
3.550366e+003,-1.251828e-003
3.552294e+003,-1.122255e-003
3.554223e+003,-1.329696e-003
3.556151e+003,-1.494262e-003
3.558080e+003,-1.543600e-003
3.560008e+003,-1.370335e-003
3.561937e+003,-1.224669e-003
3.563865e+003,-1.008304e-003
3.565794e+003,-5.502887e-004
3.567722e+003,-9.014420e-004
3.569651e+003,-1.599522e-003
3.571579e+003,-1.737304e-003
3.573508e+003,-1.578178e-003
3.575436e+003,-1.484789e-003
3.577365e+003,-1.513224e-003
3.579293e+003,-1.514956e-003
3.581222e+003,-1.528742e-003
3.583150e+003,-1.346145e-003
3.585079e+003,-9.522997e-004
3.587007e+003,-4.830603e-004
3.588936e+003,-6.917007e-004
3.590864e+003,-6.933641e-004
3.592793e+003,-1.529753e-004
3.594721e+003,3.528222e-004
3.596650e+003,3.835782e-004
3.598578e+003,6.021615e-004
3.600507e+003,1.095712e-003
3.602435e+003,1.159100e-003
3.604364e+003,1.145657e-003
3.606292e+003,1.513533e-003
3.608221e+003,1.571052e-003
3.610149e+003,1.233596e-003
3.612078e+003,1.345806e-003
3.614006e+003,9.428672e-004
3.615935e+003,4.531052e-004
3.617863e+003,3.687702e-004
3.619792e+003,1.600999e-004
3.621720e+003,-1.300033e-004
3.623649e+003,-2.571046e-004
3.625577e+003,-1.123119e-004
3.627506e+003,8.341074e-004
3.629434e+003,8.745417e-004
3.631363e+003,4.979782e-005
3.633291e+003,-2.299435e-005
3.635220e+003,-2.987217e-004
3.637148e+003,-2.037231e-004
3.639077e+003,-3.274716e-005
3.641005e+003,-1.373831e-004
3.642934e+003,-1.589470e-004
3.644862e+003,1.235511e-004
3.646791e+003,1.015423e-003
3.648719e+003,1.588739e-003
3.650648e+003,7.069129e-004
3.652576e+003,-4.337896e-004
3.654505e+003,-2.591722e-004
3.656433e+003,-2.624206e-004
3.658362e+003,-7.488020e-004
3.660290e+003,-8.235425e-004
3.662219e+003,-9.300448e-004
3.664147e+003,-1.006806e-003
3.666076e+003,-8.328762e-004
3.668004e+003,-8.696318e-005
3.669933e+003,4.949979e-004
3.671861e+003,-1.392197e-004
3.673790e+003,5.750153e-004
3.675718e+003,7.902943e-004
3.677647e+003,-3.651455e-004
3.679575e+003,-5.631465e-004
3.681504e+003,-7.251427e-004
3.683432e+003,-5.993340e-004
3.685361e+003,-3.111754e-004
3.687289e+003,4.020426e-004
3.689218e+003,8.682534e-004
3.691146e+003,-6.074645e-005
3.693075e+003,-7.689986e-004
3.695003e+003,-6.878655e-004
3.696932e+003,-5.330704e-004
3.698860e+003,-4.665423e-004
3.700789e+003,-2.825372e-004
3.702717e+003,-5.163234e-004
3.704646e+003,-6.611366e-004
3.706574e+003,-5.240254e-004
3.708503e+003,1.285039e-004
3.710431e+003,1.094759e-003
3.712360e+003,1.105703e-004
3.714288e+003,-7.676221e-004
3.716217e+003,-6.801542e-004
3.718145e+003,-3.296416e-004
3.720074e+003,4.361197e-005
3.722002e+003,2.353825e-004
3.723931e+003,8.083321e-005
3.725859e+003,1.043640e-004
3.727788e+003,-4.588384e-004
3.729716e+003,-3.050622e-004
3.731645e+003,6.716494e-004
3.733573e+003,1.451049e-003
3.735502e+003,1.850622e-003
3.737430e+003,6.492939e-004
3.739359e+003,1.108628e-004
3.741287e+003,2.220999e-004
3.743216e+003,1.249386e-003
3.745144e+003,1.382615e-003
3.747073e+003,7.517561e-004
3.749001e+003,1.193179e-003
3.750930e+003,1.486428e-003
3.752858e+003,6.356556e-004
3.754787e+003,-8.768588e-005
3.756715e+003,-1.915172e-005
3.758644e+003,3.240053e-004
3.760572e+003,7.695332e-005
3.762501e+003,-3.197379e-004
3.764429e+003,-1.673810e-004
3.766358e+003,-1.105238e-004
3.768286e+003,1.811609e-005
3.770215e+003,-5.239435e-005
3.772143e+003,-4.972834e-004
3.774072e+003,-6.654747e-004
3.776000e+003,-5.580131e-004
3.777929e+003,-3.501773e-006
3.779857e+003,7.897615e-007
3.781786e+003,-3.008004e-004
3.783714e+003,-4.301593e-005
3.785643e+003,-2.171546e-004
3.787571e+003,-4.954264e-004
3.789500e+003,-5.217679e-004
3.791428e+003,-6.704573e-004
3.793357e+003,-5.280208e-004
3.795285e+003,7.343479e-005
3.797214e+003,2.182480e-004
3.799142e+003,5.304310e-004
3.801071e+003,1.316486e-003
3.802999e+003,4.014075e-004
3.804927e+003,1.556370e-004
3.806856e+003,3.362652e-004
3.808785e+003,-2.399832e-005
3.810713e+003,-8.917041e-005
3.812642e+003,1.623631e-004
3.814570e+003,1.093725e-003
3.816499e+003,9.198673e-004
3.818427e+003,6.955247e-004
3.820355e+003,1.422996e-003
3.822284e+003,6.964635e-004
3.824213e+003,3.899746e-004
3.826141e+003,4.942790e-004
3.828070e+003,2.359152e-004
3.829998e+003,3.398433e-004
3.831927e+003,4.729424e-004
3.833855e+003,6.328039e-004
3.835783e+003,1.064265e-003
3.837712e+003,1.609903e-003
3.839641e+003,1.249757e-003
3.841569e+003,4.928242e-004
3.843498e+003,2.745800e-004
3.845426e+003,1.064185e-004
3.847354e+003,1.442246e-004
3.849283e+003,5.555470e-004
3.851211e+003,1.600465e-003
3.853140e+003,2.316702e-003
3.855069e+003,5.255193e-004
3.856997e+003,1.611859e-004
3.858926e+003,5.712546e-005
3.860854e+003,3.925860e-004
3.862782e+003,9.379741e-004
3.864711e+003,1.091421e-003
3.866640e+003,7.834136e-004
3.868568e+003,1.368033e-003
3.870497e+003,1.073113e-003
3.872425e+003,9.492245e-004
3.874354e+003,8.977111e-004
3.876282e+003,2.775285e-004
3.878210e+003,6.520282e-004
3.880139e+003,1.155067e-003
3.882068e+003,7.898137e-004
3.883996e+003,9.881854e-004
3.885925e+003,9.276103e-004
3.887853e+003,5.633105e-004
3.889781e+003,8.187480e-004
3.891710e+003,9.260681e-004
3.893638e+003,5.389024e-004
3.895567e+003,4.293770e-004
3.897496e+003,1.005709e-003
3.899424e+003,1.431698e-003
3.901353e+003,1.428831e-003
3.903281e+003,1.489410e-003
3.905209e+003,8.572396e-004
3.907138e+003,3.350135e-004
3.909066e+003,2.933852e-004
3.910995e+003,5.160086e-004
3.912924e+003,5.316585e-004
3.914852e+003,6.051231e-004
3.916781e+003,6.580632e-004
3.918709e+003,6.590094e-004
3.920637e+003,5.855393e-004
3.922566e+003,6.566588e-004
3.924494e+003,7.372443e-004
3.926423e+003,3.779382e-004
3.928352e+003,4.024375e-004
3.930280e+003,6.166790e-004
3.932208e+003,5.995613e-004
3.934137e+003,2.438705e-004
3.936065e+003,1.192372e-004
3.937994e+003,1.565274e-004
3.939922e+003,2.671555e-004
3.941851e+003,4.743617e-004
3.943780e+003,2.651569e-004
3.945708e+003,1.166724e-004
3.947636e+003,2.502389e-004
3.949565e+003,1.388751e-004
3.951493e+003,6.370246e-007
3.953422e+003,5.531870e-005
3.955351e+003,1.245830e-004
3.957279e+003,1.291018e-004
3.959208e+003,1.800582e-004
3.961136e+003,1.660418e-004
3.963064e+003,6.612763e-005
3.964993e+003,5.244464e-005
3.966921e+003,1.806002e-004
3.968850e+003,3.181156e-004
3.970779e+003,3.161691e-004
3.972707e+003,3.336407e-004
3.974635e+003,3.976151e-004
3.976564e+003,3.058873e-004
3.978492e+003,1.498479e-004
3.980421e+003,1.516975e-004
3.982349e+003,2.280399e-004
3.984278e+003,1.429040e-004
3.986207e+003,5.969778e-006
3.988135e+003,2.010725e-005
3.990063e+003,1.558326e-004
3.991992e+003,1.017042e-004
3.993920e+003,8.898973e-005
3.995849e+003,-4.091114e-005
3.997777e+003,-7.540546e-005
3.999706e+003,-3.417954e-005
4.001635e+003,0.000000e+000
