3.991992e+002,0.000000e+000
4.011277e+002,0.000000e+000
4.030562e+002,0.000000e+000
4.049846e+002,0.000000e+000
4.069131e+002,0.000000e+000
4.088416e+002,0.000000e+000
4.107701e+002,0.000000e+000
4.126986e+002,0.000000e+000
4.146271e+002,0.000000e+000
4.165556e+002,0.000000e+000
4.184841e+002,0.000000e+000
4.204126e+002,0.000000e+000
4.223411e+002,0.000000e+000
4.242697e+002,0.000000e+000
4.261982e+002,0.000000e+000
4.281266e+002,0.000000e+000
4.300551e+002,0.000000e+000
4.319836e+002,0.000000e+000
4.339121e+002,0.000000e+000
4.358406e+002,0.000000e+000
4.377691e+002,0.000000e+000
4.396976e+002,0.000000e+000
4.416261e+002,0.000000e+000
4.435546e+002,0.000000e+000
4.454831e+002,0.000000e+000
4.474116e+002,0.000000e+000
4.493401e+002,0.000000e+000
4.512686e+002,0.000000e+000
4.531971e+002,0.000000e+000
4.551256e+002,0.000000e+000
4.570541e+002,0.000000e+000
4.589826e+002,0.000000e+000
4.609111e+002,0.000000e+000
4.628396e+002,0.000000e+000
4.647681e+002,0.000000e+000
4.666966e+002,0.000000e+000
4.686251e+002,0.000000e+000
4.705536e+002,0.000000e+000
4.724821e+002,0.000000e+000
4.744106e+002,0.000000e+000
4.763391e+002,0.000000e+000
4.782676e+002,0.000000e+000
4.801961e+002,0.000000e+000
4.821246e+002,0.000000e+000
4.840531e+002,0.000000e+000
4.859816e+002,0.000000e+000
4.879101e+002,0.000000e+000
4.898386e+002,0.000000e+000
4.917671e+002,0.000000e+000
4.936956e+002,0.000000e+000
4.956241e+002,0.000000e+000
4.975526e+002,0.000000e+000
4.994811e+002,0.000000e+000
5.014096e+002,0.000000e+000
5.033381e+002,0.000000e+000
5.052666e+002,0.000000e+000
5.071951e+002,0.000000e+000
5.091236e+002,0.000000e+000
5.110521e+002,0.000000e+000
5.129806e+002,0.000000e+000
5.149091e+002,0.000000e+000
5.168376e+002,0.000000e+000
5.187661e+002,0.000000e+000
5.206946e+002,0.000000e+000
5.226230e+002,0.000000e+000
5.245516e+002,-1.051166e-003
5.264800e+002,-1.079483e-003
5.284086e+002,-1.034093e-003
5.303370e+002,-1.110396e-003
5.322656e+002,-1.095521e-003
5.341940e+002,-1.063779e-003
5.361226e+002,-1.054818e-003
5.380510e+002,-1.036394e-003
5.399796e+002,-9.836042e-004
5.419081e+002,-9.435341e-004
5.438365e+002,-9.534564e-004
5.457650e+002,-9.962209e-004
5.476935e+002,-9.153336e-004
5.496221e+002,-7.521575e-004
5.515505e+002,-6.891377e-004
5.534790e+002,-7.718457e-004
5.554075e+002,-7.756548e-004
5.573361e+002,-7.407824e-004
5.592645e+002,-7.338710e-004
5.611931e+002,-8.221650e-004
5.631215e+002,-8.487627e-004
5.650500e+002,-7.487405e-004
5.669785e+002,-8.430276e-004
5.689070e+002,-9.184228e-004
5.708355e+002,-7.508947e-004
5.727640e+002,-7.151486e-004
5.746925e+002,-6.462224e-004
5.766210e+002,-5.627349e-004
5.785495e+002,-5.162489e-004
5.804780e+002,-4.465841e-004
5.824065e+002,-3.908295e-004
5.843350e+002,-4.112441e-004
5.862635e+002,-3.689155e-004
5.881920e+002,-3.707763e-004
5.901205e+002,-3.225151e-004
5.920490e+002,-2.946965e-004
5.939775e+002,-2.077501e-004
5.959060e+002,-1.632739e-004
5.978345e+002,-1.407880e-004
5.997630e+002,-1.141243e-004
6.016915e+002,-4.754588e-005
6.036200e+002,6.086379e-005
6.055485e+002,1.151059e-004
6.074770e+002,1.104493e-004
6.094055e+002,1.853369e-004
6.113340e+002,9.368174e-005
6.132625e+002,1.038052e-005
6.151910e+002,-4.159287e-006
6.171195e+002,-2.975948e-005
6.190480e+002,1.285225e-007
6.209765e+002,8.101389e-005
6.229050e+002,2.187323e-004
6.248335e+002,2.895128e-004
6.267620e+002,1.943484e-004
6.286905e+002,2.398547e-004
6.306190e+002,3.373530e-004
6.325475e+002,4.812852e-004
6.344760e+002,5.599204e-004
6.364045e+002,5.561337e-004
6.383330e+002,4.460942e-004
6.402615e+002,6.000828e-004
6.421899e+002,6.220229e-004
6.441185e+002,6.772168e-004
6.460470e+002,7.835291e-004
6.479755e+002,8.921921e-004
6.499039e+002,8.706767e-004
6.518325e+002,9.133909e-004
6.537610e+002,9.366497e-004
6.556895e+002,1.011707e-003
6.576179e+002,1.073256e-003
6.595464e+002,1.256511e-003
6.614750e+002,1.317156e-003
6.634034e+002,1.378594e-003
6.653319e+002,1.375876e-003
6.672604e+002,1.518702e-003
6.691890e+002,1.623297e-003
6.711174e+002,1.788821e-003
6.730460e+002,1.960155e-003
6.749745e+002,2.155112e-003
6.769030e+002,2.304086e-003
6.788314e+002,2.596445e-003
6.807599e+002,2.897240e-003
6.826885e+002,3.196971e-003
6.846169e+002,3.279381e-003
6.865454e+002,3.471855e-003
6.884739e+002,3.733655e-003
6.904025e+002,4.088230e-003
6.923309e+002,4.367158e-003
6.942594e+002,4.872579e-003
6.961879e+002,5.388165e-003
6.981165e+002,6.079879e-003
7.000449e+002,6.793352e-003
7.019734e+002,7.878711e-003
7.039019e+002,9.267839e-003
7.058304e+002,1.126011e-002
7.077589e+002,1.386608e-002
7.096874e+002,1.792099e-002
7.116159e+002,2.423640e-002
7.135444e+002,3.637143e-002
7.154729e+002,5.980493e-002
7.174014e+002,9.550960e-002
7.193299e+002,1.064107e-001
7.212584e+002,6.906314e-002
7.231869e+002,3.976849e-002
7.251154e+002,3.273042e-002
7.270439e+002,4.052062e-002
7.289724e+002,6.261520e-002
7.309009e+002,6.687063e-002
7.328294e+002,3.769530e-002
7.347579e+002,1.579162e-002
7.366864e+002,8.425543e-003
7.386149e+002,5.825562e-003
7.405434e+002,4.338551e-003
7.424719e+002,3.499907e-003
7.444004e+002,2.946092e-003
7.463289e+002,2.678266e-003
7.482574e+002,2.319131e-003
7.501859e+002,2.004735e-003
7.521144e+002,1.694439e-003
7.540428e+002,1.528455e-003
7.559714e+002,1.360402e-003
7.578999e+002,1.257168e-003
7.598284e+002,1.176415e-003
7.617568e+002,1.178080e-003
7.636854e+002,1.138404e-003
7.656139e+002,1.131866e-003
7.675424e+002,1.037976e-003
7.694709e+002,9.842273e-004
7.713994e+002,8.790400e-004
7.733279e+002,8.026622e-004
7.752563e+002,7.182471e-004
7.771849e+002,6.874576e-004
7.791134e+002,6.385744e-004
7.810419e+002,6.492585e-004
7.829703e+002,5.828459e-004
7.848989e+002,5.500168e-004
7.868274e+002,5.623251e-004
7.887559e+002,6.227028e-004
7.906843e+002,6.488916e-004
7.926129e+002,6.740652e-004
7.945414e+002,6.298646e-004
7.964698e+002,6.206222e-004
7.983983e+002,6.037690e-004
8.003268e+002,5.422719e-004
8.022554e+002,5.861521e-004
8.041838e+002,7.238574e-004
8.061123e+002,7.869732e-004
8.080408e+002,8.378178e-004
8.099694e+002,8.123983e-004
8.118978e+002,7.856525e-004
8.138263e+002,7.928908e-004
8.157548e+002,8.518510e-004
8.176833e+002,8.724742e-004
8.196118e+002,9.416491e-004
8.215403e+002,1.000995e-003
8.234689e+002,1.010641e-003
8.253973e+002,9.809565e-004
8.273258e+002,9.858496e-004
8.292543e+002,9.911843e-004
8.311829e+002,1.008898e-003
8.331113e+002,9.500850e-004
8.350398e+002,9.234380e-004
8.369683e+002,9.627193e-004
8.388969e+002,1.062494e-003
8.408253e+002,1.137249e-003
8.427538e+002,1.183543e-003
8.446823e+002,1.187613e-003
8.466108e+002,1.259049e-003
8.485393e+002,1.306184e-003
8.504678e+002,1.380354e-003
8.523963e+002,1.416378e-003
8.543248e+002,1.412263e-003
8.562533e+002,1.441741e-003
8.581818e+002,1.520267e-003
8.601103e+002,1.505399e-003
8.620388e+002,1.486046e-003
8.639673e+002,1.522312e-003
8.658958e+002,1.586892e-003
8.678243e+002,1.676669e-003
8.697528e+002,1.720922e-003
8.716813e+002,1.736341e-003
8.736098e+002,1.709636e-003
8.755383e+002,1.668988e-003
8.774668e+002,1.741644e-003
8.793953e+002,1.850385e-003
8.813238e+002,1.874769e-003
8.832523e+002,1.886105e-003
8.851808e+002,1.939600e-003
8.871093e+002,2.035785e-003
8.890378e+002,2.054738e-003
8.909663e+002,2.092550e-003
8.928948e+002,2.137516e-003
8.948232e+002,2.218515e-003
8.967518e+002,2.304418e-003
8.986803e+002,2.362125e-003
9.006088e+002,2.545467e-003
9.025372e+002,2.812507e-003
9.044658e+002,3.399814e-003
9.063943e+002,4.341519e-003
9.083228e+002,4.824672e-003
9.102512e+002,4.322428e-003
9.121797e+002,3.412856e-003
9.141083e+002,2.711173e-003
9.160367e+002,2.354197e-003
9.179653e+002,2.294643e-003
9.198937e+002,2.249198e-003
9.218223e+002,2.120705e-003
9.237507e+002,2.068527e-003
9.256793e+002,2.123835e-003
9.276077e+002,2.162125e-003
9.295363e+002,2.190817e-003
9.314647e+002,2.281241e-003
9.333932e+002,2.335295e-003
9.353217e+002,2.415389e-003
9.372502e+002,2.531994e-003
9.391787e+002,2.610417e-003
9.411072e+002,2.693776e-003
9.430358e+002,2.806671e-003
9.449642e+002,2.891380e-003
9.468928e+002,3.075659e-003
9.488212e+002,3.237400e-003
9.507498e+002,3.334502e-003
9.526782e+002,3.421323e-003
9.546068e+002,3.661200e-003
9.565352e+002,4.011668e-003
9.584637e+002,4.287098e-003
9.603922e+002,4.555106e-003
9.623207e+002,4.772188e-003
9.642492e+002,4.960196e-003
9.661777e+002,5.067594e-003
9.681062e+002,5.083112e-003
9.700347e+002,5.032092e-003
9.719632e+002,4.888877e-003
9.738917e+002,4.712826e-003
9.758202e+002,4.541548e-003
9.777487e+002,4.422011e-003
9.796772e+002,4.364861e-003
9.816057e+002,4.381778e-003
9.835342e+002,4.450364e-003
9.854627e+002,4.556766e-003
9.873912e+002,4.748479e-003
9.893197e+002,4.898706e-003
9.912482e+002,4.918540e-003
9.931767e+002,4.846176e-003
9.951052e+002,4.749818e-003
9.970337e+002,4.604761e-003
9.989622e+002,4.527824e-003
1.000891e+003,4.558505e-003
1.002819e+003,4.647333e-003
1.004748e+003,4.719201e-003
1.006676e+003,4.816581e-003
1.008605e+003,4.917199e-003
1.010533e+003,5.055308e-003
1.012462e+003,5.233714e-003
1.014390e+003,5.418193e-003
1.016319e+003,5.595053e-003
1.018247e+003,5.759906e-003
1.020176e+003,5.907301e-003
1.022104e+003,6.089937e-003
1.024033e+003,6.256027e-003
1.025961e+003,6.358288e-003
1.027890e+003,6.432476e-003
1.029818e+003,6.560575e-003
1.031747e+003,6.696496e-003
1.033675e+003,6.731940e-003
1.035604e+003,6.723395e-003
1.037532e+003,6.789288e-003
1.039461e+003,6.872131e-003
1.041389e+003,6.916022e-003
1.043318e+003,6.964330e-003
1.045246e+003,7.089350e-003
1.047175e+003,7.278144e-003
1.049103e+003,7.603751e-003
1.051032e+003,7.796029e-003
1.052960e+003,7.740216e-003
1.054889e+003,7.769573e-003
1.056817e+003,7.898794e-003
1.058746e+003,7.952785e-003
1.060674e+003,8.120209e-003
1.062603e+003,8.277165e-003
1.064531e+003,8.342622e-003
1.066460e+003,8.372404e-003
1.068388e+003,8.403294e-003
1.070317e+003,8.516315e-003
1.072245e+003,8.864641e-003
1.074174e+003,9.418005e-003
1.076102e+003,1.007848e-002
1.078031e+003,1.078737e-002
1.079959e+003,1.143544e-002
1.081888e+003,1.180021e-002
1.083816e+003,1.189921e-002
1.085745e+003,1.192414e-002
1.087673e+003,1.195770e-002
1.089602e+003,1.204779e-002
1.091530e+003,1.228174e-002
1.093459e+003,1.247322e-002
1.095387e+003,1.255368e-002
1.097316e+003,1.249875e-002
1.099244e+003,1.233142e-002
1.101173e+003,1.206618e-002
1.103101e+003,1.181941e-002
1.105030e+003,1.159534e-002
1.106958e+003,1.147851e-002
1.108887e+003,1.149717e-002
1.110815e+003,1.171423e-002
1.112744e+003,1.203125e-002
1.114672e+003,1.237914e-002
1.116601e+003,1.268110e-002
1.118529e+003,1.283188e-002
1.120458e+003,1.270515e-002
1.122386e+003,1.235331e-002
1.124315e+003,1.194070e-002
1.126243e+003,1.160999e-002
1.128172e+003,1.145106e-002
1.130100e+003,1.162249e-002
1.132029e+003,1.213303e-002
1.133957e+003,1.294022e-002
1.135885e+003,1.388570e-002
1.137814e+003,1.490839e-002
1.139743e+003,1.582602e-002
1.141671e+003,1.660521e-002
1.143600e+003,1.717960e-002
1.145528e+003,1.768324e-002
1.147457e+003,1.818471e-002
1.149385e+003,1.870481e-002
1.151314e+003,1.931497e-002
1.153242e+003,2.006752e-002
1.155171e+003,2.076104e-002
1.157099e+003,2.137443e-002
1.159028e+003,2.186973e-002
1.160956e+003,2.212767e-002
1.162885e+003,2.218460e-002
1.164813e+003,2.202220e-002
1.166742e+003,2.161440e-002
1.168670e+003,2.109805e-002
1.170599e+003,2.051007e-002
1.172527e+003,1.993955e-002
1.174456e+003,1.945926e-002
1.176384e+003,1.893429e-002
1.178313e+003,1.820261e-002
1.180241e+003,1.759023e-002
1.182170e+003,1.713880e-002
1.184098e+003,1.677477e-002
1.186027e+003,1.635967e-002
1.187955e+003,1.592113e-002
1.189884e+003,1.545317e-002
1.191812e+003,1.492865e-002
1.193740e+003,1.438972e-002
1.195669e+003,1.390548e-002
1.197598e+003,1.350395e-002
1.199526e+003,1.323372e-002
1.201455e+003,1.304193e-002
1.203383e+003,1.298514e-002
1.205312e+003,1.306463e-002
1.207240e+003,1.321574e-002
1.209168e+003,1.329443e-002
1.211097e+003,1.327035e-002
1.213026e+003,1.321243e-002
1.214954e+003,1.320337e-002
1.216883e+003,1.326450e-002
1.218811e+003,1.341207e-002
1.220740e+003,1.364066e-002
1.222668e+003,1.393335e-002
1.224596e+003,1.423053e-002
1.226525e+003,1.458932e-002
1.228453e+003,1.493024e-002
1.230382e+003,1.524621e-002
1.232311e+003,1.552045e-002
1.234239e+003,1.576168e-002
1.236167e+003,1.594215e-002
1.238096e+003,1.609145e-002
1.240025e+003,1.610765e-002
1.241953e+003,1.599907e-002
1.243882e+003,1.576409e-002
1.245810e+003,1.545233e-002
1.247739e+003,1.500131e-002
1.249667e+003,1.446597e-002
1.251595e+003,1.391211e-002
1.253524e+003,1.348863e-002
1.255453e+003,1.314658e-002
1.257381e+003,1.289349e-002
1.259310e+003,1.265395e-002
1.261238e+003,1.241666e-002
1.263167e+003,1.216358e-002
1.265095e+003,1.195954e-002
1.267023e+003,1.180457e-002
1.268952e+003,1.169885e-002
1.270880e+003,1.158946e-002
1.272809e+003,1.156177e-002
1.274738e+003,1.153598e-002
1.276666e+003,1.157070e-002
1.278594e+003,1.155482e-002
1.280523e+003,1.149031e-002
1.282451e+003,1.131490e-002
1.284380e+003,1.108515e-002
1.286308e+003,1.088929e-002
1.288237e+003,1.082358e-002
1.290166e+003,1.084610e-002
1.292094e+003,1.099905e-002
1.294022e+003,1.112987e-002
1.295951e+003,1.129404e-002
1.297879e+003,1.142588e-002
1.299808e+003,1.154701e-002
1.301736e+003,1.159355e-002
1.303665e+003,1.158160e-002
1.305594e+003,1.150765e-002
1.307522e+003,1.145840e-002
1.309450e+003,1.133516e-002
1.311379e+003,1.123001e-002
1.313307e+003,1.104867e-002
1.315236e+003,1.079615e-002
1.317164e+003,1.048212e-002
1.319093e+003,1.019632e-002
1.321021e+003,9.848386e-003
1.322950e+003,9.545498e-003
1.324878e+003,9.239465e-003
1.326807e+003,9.038007e-003
1.328735e+003,8.898536e-003
1.330664e+003,8.896645e-003
1.332592e+003,8.990783e-003
1.334521e+003,9.205537e-003
1.336449e+003,9.505082e-003
1.338378e+003,1.004472e-002
1.340306e+003,1.060981e-002
1.342235e+003,1.097653e-002
1.344163e+003,1.131649e-002
1.346092e+003,1.181175e-002
1.348021e+003,1.232399e-002
1.349949e+003,1.279615e-002
1.351877e+003,1.301702e-002
1.353806e+003,1.308033e-002
1.355734e+003,1.298779e-002
1.357663e+003,1.308900e-002
1.359591e+003,1.345344e-002
1.361520e+003,1.416850e-002
1.363448e+003,1.492541e-002
1.365377e+003,1.534451e-002
1.367305e+003,1.548428e-002
1.369234e+003,1.524386e-002
1.371162e+003,1.457145e-002
1.373091e+003,1.394157e-002
1.375019e+003,1.367597e-002
1.376948e+003,1.363514e-002
1.378876e+003,1.291012e-002
1.380805e+003,1.161413e-002
1.382733e+003,1.040504e-002
1.384662e+003,9.680850e-003
1.386590e+003,9.178402e-003
1.388519e+003,8.866912e-003
1.390447e+003,8.577390e-003
1.392376e+003,8.511310e-003
1.394304e+003,8.475378e-003
1.396233e+003,8.639459e-003
1.398161e+003,8.774312e-003
1.400090e+003,9.057662e-003
1.402018e+003,8.973069e-003
1.403947e+003,8.976169e-003
1.405875e+003,8.829292e-003
1.407804e+003,8.873452e-003
1.409732e+003,9.038620e-003
1.411661e+003,9.608012e-003
1.413589e+003,1.014289e-002
1.415518e+003,1.072211e-002
1.417446e+003,1.099362e-002
1.419375e+003,1.130893e-002
1.421303e+003,1.128198e-002
1.423232e+003,1.170482e-002
1.425160e+003,1.242090e-002
1.427089e+003,1.357431e-002
1.429017e+003,1.526852e-002
1.430946e+003,1.761944e-002
1.432874e+003,1.938896e-002
1.434803e+003,2.106613e-002
1.436731e+003,2.300853e-002
1.438660e+003,2.457656e-002
1.440588e+003,2.540679e-002
1.442517e+003,2.657616e-002
1.444445e+003,2.755293e-002
1.446374e+003,2.898412e-002
1.448302e+003,3.117365e-002
1.450231e+003,3.439254e-002
1.452159e+003,3.940678e-002
1.454088e+003,4.600867e-002
1.456016e+003,5.421808e-002
1.457945e+003,8.404659e-002
1.459873e+003,1.376614e-001
1.461802e+003,1.720236e-001
1.463730e+003,1.452408e-001
1.465659e+003,9.483930e-002
1.467587e+003,8.712047e-002
1.469516e+003,9.380137e-002
1.471444e+003,1.209382e-001
1.473373e+003,1.165334e-001
1.475301e+003,6.134452e-002
1.477230e+003,2.478628e-002
1.479158e+003,1.461503e-002
1.481087e+003,1.047936e-002
1.483015e+003,8.729760e-003
1.484944e+003,7.440303e-003
1.486872e+003,7.208070e-003
1.488801e+003,6.540759e-003
1.490729e+003,6.739225e-003
1.492658e+003,6.097253e-003
1.494586e+003,6.129192e-003
1.496515e+003,5.675711e-003
1.498443e+003,5.673328e-003
1.500372e+003,4.973926e-003
1.502300e+003,4.782198e-003
1.504229e+003,4.377920e-003
1.506157e+003,4.849017e-003
1.508086e+003,4.701063e-003
1.510014e+003,4.741825e-003
1.511943e+003,4.340423e-003
1.513871e+003,4.471043e-003
1.515800e+003,4.444750e-003
1.517728e+003,4.696922e-003
1.519657e+003,4.494954e-003
1.521585e+003,5.039787e-003
1.523514e+003,4.676837e-003
1.525442e+003,4.791236e-003
1.527371e+003,4.590578e-003
1.529299e+003,4.631067e-003
1.531228e+003,4.529996e-003
1.533156e+003,4.850276e-003
1.535085e+003,4.751895e-003
1.537013e+003,4.806077e-003
1.538942e+003,4.881276e-003
1.540870e+003,5.758092e-003
1.542799e+003,5.230984e-003
1.544727e+003,5.063195e-003
1.546656e+003,4.655229e-003
1.548584e+003,4.662327e-003
1.550513e+003,4.536035e-003
1.552441e+003,4.484626e-003
1.554370e+003,4.312608e-003
1.556298e+003,4.416399e-003
1.558227e+003,4.739033e-003
1.560155e+003,4.522169e-003
1.562084e+003,3.881652e-003
1.564012e+003,3.771648e-003
1.565941e+003,3.585856e-003
1.567869e+003,3.664915e-003
1.569798e+003,3.663648e-003
1.571726e+003,3.523432e-003
1.573655e+003,3.374174e-003
1.575583e+003,3.646443e-003
1.577512e+003,3.614331e-003
1.579440e+003,3.510654e-003
1.581369e+003,3.452282e-003
1.583297e+003,3.546288e-003
1.585226e+003,3.546940e-003
1.587154e+003,3.639020e-003
1.589083e+003,3.620273e-003
1.591011e+003,3.643595e-003
1.592940e+003,3.605567e-003
1.594868e+003,3.720097e-003
1.596797e+003,3.711874e-003
1.598725e+003,3.763698e-003
1.600654e+003,3.733726e-003
1.602582e+003,3.832610e-003
1.604511e+003,3.858767e-003
1.606439e+003,3.963012e-003
1.608368e+003,4.045617e-003
1.610296e+003,4.208103e-003
1.612225e+003,4.233295e-003
1.614153e+003,4.387993e-003
1.616082e+003,4.673963e-003
1.618010e+003,4.952181e-003
1.619939e+003,4.931249e-003
1.621867e+003,5.151561e-003
1.623796e+003,5.423302e-003
1.625724e+003,5.649883e-003
1.627653e+003,5.855009e-003
1.629581e+003,6.017206e-003
1.631510e+003,5.950334e-003
1.633438e+003,6.074045e-003
1.635367e+003,6.540554e-003
1.637295e+003,6.964274e-003
1.639224e+003,6.916715e-003
1.641152e+003,6.964242e-003
1.643081e+003,6.909484e-003
1.645009e+003,7.146595e-003
1.646938e+003,7.518414e-003
1.648866e+003,7.292341e-003
1.650795e+003,7.093338e-003
1.652723e+003,7.705014e-003
1.654652e+003,7.340340e-003
1.656580e+003,6.811963e-003
1.658509e+003,6.360764e-003
1.660437e+003,6.188272e-003
1.662366e+003,6.143944e-003
1.664294e+003,5.943457e-003
1.666223e+003,5.631829e-003
1.668151e+003,5.577277e-003
1.670080e+003,5.426176e-003
1.672008e+003,5.299417e-003
1.673937e+003,5.191175e-003
1.675865e+003,5.203571e-003
1.677794e+003,4.834482e-003
1.679722e+003,4.723094e-003
1.681651e+003,4.726807e-003
1.683579e+003,5.261436e-003
1.685508e+003,5.013051e-003
1.687436e+003,4.718367e-003
1.689365e+003,4.524393e-003
1.691293e+003,4.510561e-003
1.693222e+003,4.554018e-003
1.695150e+003,4.989956e-003
1.697079e+003,5.274715e-003
1.699007e+003,5.536161e-003
1.700936e+003,5.823957e-003
1.702864e+003,5.835986e-003
1.704793e+003,6.141266e-003
1.706721e+003,6.751124e-003
1.708650e+003,7.097628e-003
1.710578e+003,7.554952e-003
1.712507e+003,7.920876e-003
1.714435e+003,8.581430e-003
1.716364e+003,9.357493e-003
1.718292e+003,1.021332e-002
1.720221e+003,1.061018e-002
1.722149e+003,1.132068e-002
1.724078e+003,1.251617e-002
1.726006e+003,1.393569e-002
1.727935e+003,1.556605e-002
1.729863e+003,1.790301e-002
1.731792e+003,2.042150e-002
1.733720e+003,2.513706e-002
1.735649e+003,3.089729e-002
1.737577e+003,3.412382e-002
1.739506e+003,3.992378e-002
1.741434e+003,4.523475e-002
1.743363e+003,4.887025e-002
1.745291e+003,5.051416e-002
1.747220e+003,4.980446e-002
1.749148e+003,4.613637e-002
1.751077e+003,3.937615e-002
1.753005e+003,3.179827e-002
1.754934e+003,2.608953e-002
1.756862e+003,1.921471e-002
1.758791e+003,1.392107e-002
1.760719e+003,1.062172e-002
1.762648e+003,7.235199e-003
1.764576e+003,5.291246e-003
1.766505e+003,4.114941e-003
1.768433e+003,3.164887e-003
1.770362e+003,2.634935e-003
1.772290e+003,2.415143e-003
1.774219e+003,1.736827e-003
1.776147e+003,1.326229e-003
1.778076e+003,1.043420e-003
1.780004e+003,9.134822e-004
1.781933e+003,7.341020e-004
1.783861e+003,7.213540e-004
1.785790e+003,5.731732e-004
1.787718e+003,3.516637e-004
1.789646e+003,2.382919e-004
1.791575e+003,4.993454e-004
1.793504e+003,4.234463e-004
1.795432e+003,2.580471e-004
1.797361e+003,6.523728e-005
1.799289e+003,3.100559e-005
1.801218e+003,3.407896e-005
1.803146e+003,-5.520880e-006
1.805074e+003,-2.688095e-004
1.807003e+003,-3.752150e-004
1.808932e+003,-4.309639e-004
1.810860e+003,-4.655235e-004
1.812789e+003,-7.651001e-004
1.814717e+003,-1.050252e-003
1.816646e+003,-1.236703e-003
1.818574e+003,-9.490587e-004
1.820502e+003,-7.656850e-004
1.822431e+003,-5.227141e-004
1.824360e+003,-4.874915e-004
1.826288e+003,-6.047301e-004
1.828217e+003,-6.907955e-004
1.830145e+003,-6.359890e-004
1.832073e+003,-1.080226e-003
1.834002e+003,-1.075674e-003
1.835931e+003,-1.096841e-003
1.837859e+003,-1.057662e-003
1.839788e+003,-1.138512e-003
1.841716e+003,-9.094924e-004
1.843645e+003,-6.683022e-004
1.845573e+003,-5.815625e-004
1.847501e+003,-8.694939e-004
1.849430e+003,-1.095116e-003
1.851359e+003,-1.200993e-003
1.853287e+003,-1.021847e-003
1.855216e+003,-1.132250e-003
1.857144e+003,-1.101322e-003
1.859073e+003,-1.165833e-003
1.861001e+003,-1.049045e-003
1.862929e+003,-1.137964e-003
1.864858e+003,-1.037210e-003
1.866787e+003,-9.321272e-004
1.868715e+003,-6.339140e-004
1.870644e+003,-8.727536e-004
1.872572e+003,-1.026675e-003
1.874500e+003,-1.142375e-003
1.876429e+003,-1.157671e-003
1.878357e+003,-1.305159e-003
1.880286e+003,-9.960681e-004
1.882215e+003,-1.063224e-003
1.884143e+003,-9.650141e-004
1.886072e+003,-8.394904e-004
1.888000e+003,-4.318282e-004
1.889928e+003,-3.722943e-004
1.891857e+003,-3.032573e-004
1.893785e+003,-3.009476e-004
1.895714e+003,-2.347305e-005
1.897643e+003,-1.163334e-004
1.899571e+003,-1.414716e-004
1.901500e+003,-1.401119e-004
1.903428e+003,-1.387447e-004
1.905356e+003,-1.373813e-004
1.907285e+003,-1.360141e-004
1.909213e+003,-1.346432e-004
1.911142e+003,-1.332685e-004
1.913071e+003,-1.318976e-004
1.914999e+003,-1.305267e-004
1.916927e+003,-1.291484e-004
1.918856e+003,-1.277626e-004
1.920784e+003,-1.263842e-004
1.922713e+003,-1.249984e-004
1.924641e+003,-1.236163e-004
1.926570e+003,-1.222268e-004
1.928499e+003,-1.208335e-004
1.930427e+003,-1.194440e-004
1.932355e+003,-1.180544e-004
1.934284e+003,-1.166537e-004
1.936212e+003,-1.152530e-004
1.938141e+003,-1.138560e-004
1.940070e+003,-1.124516e-004
1.941998e+003,-1.110472e-004
1.943927e+003,-1.096465e-004
1.945855e+003,-1.082346e-004
1.947783e+003,-1.068264e-004
1.949712e+003,-1.054145e-004
1.951640e+003,-1.039989e-004
1.953569e+003,-1.025796e-004
1.955498e+003,-1.011640e-004
1.957426e+003,-9.974837e-005
1.959354e+003,-9.832159e-005
1.961283e+003,-9.689853e-005
1.963211e+003,-9.547174e-005
1.965140e+003,-9.404495e-005
1.967068e+003,-9.261444e-005
1.968997e+003,-9.118393e-005
1.970926e+003,-8.974597e-005
1.972854e+003,-8.831173e-005
1.974782e+003,-8.687377e-005
1.976711e+003,-8.543208e-005
1.978639e+003,-8.399412e-005
1.980568e+003,-8.254498e-005
1.982496e+003,-8.109957e-005
1.984425e+003,-7.965043e-005
1.986354e+003,-7.820129e-005
1.988282e+003,-7.674843e-005
1.990210e+003,-7.529557e-005
1.992139e+003,-7.383525e-005
1.994067e+003,-7.237867e-005
1.995996e+003,-7.091835e-005
1.997924e+003,-6.945431e-005
1.999853e+003,-6.799027e-005
2.001781e+003,-6.652251e-005
2.003710e+003,-6.505474e-005
2.005638e+003,-6.358325e-005
2.007567e+003,-6.211177e-005
2.009495e+003,-6.063655e-005
2.011424e+003,-5.916134e-005
2.013352e+003,-5.767867e-005
2.015281e+003,-5.619973e-005
2.017209e+003,-5.471334e-005
2.019138e+003,-5.323067e-005
2.021066e+003,-5.174428e-005
2.022995e+003,-5.025417e-005
2.024923e+003,-4.876405e-005
2.026852e+003,-4.727021e-005
2.028781e+003,-4.577637e-005
2.030709e+003,-4.427880e-005
2.032637e+003,-4.278123e-005
2.034566e+003,-4.128367e-005
2.036494e+003,-3.977120e-005
2.038423e+003,-3.826991e-005
2.040351e+003,-3.676489e-005
2.042280e+003,-3.525615e-005
2.044208e+003,-3.374368e-005
2.046137e+003,-3.223121e-005
2.048065e+003,-3.071502e-005
2.049994e+003,-2.919883e-005
2.051922e+003,-2.768263e-005
2.053851e+003,-2.615526e-005
2.055779e+003,-2.463162e-005
2.057708e+003,-2.311170e-005
2.059636e+003,-2.158433e-005
2.061565e+003,-2.005324e-005
2.063493e+003,-1.852214e-005
2.065422e+003,-1.698732e-005
2.067350e+003,-1.545250e-005
2.069279e+003,-1.391396e-005
2.071207e+003,-1.237914e-005
2.073136e+003,-1.083314e-005
2.075064e+003,-9.290874e-006
2.076993e+003,-7.748604e-006
2.078921e+003,-6.195158e-006
2.080850e+003,-4.649162e-006
2.082778e+003,-3.095716e-006
2.084707e+003,-1.538545e-006
2.086635e+003,1.117587e-008
2.088564e+003,1.568347e-006
2.090492e+003,3.129244e-006
2.092421e+003,4.686415e-006
2.094349e+003,6.251037e-006
2.096278e+003,7.819384e-006
2.098206e+003,9.387732e-006
2.100135e+003,1.095608e-005
2.102063e+003,1.252815e-005
2.103992e+003,1.410022e-005
2.105920e+003,1.567602e-005
2.107849e+003,1.725554e-005
2.109777e+003,1.883507e-005
2.111706e+003,2.041459e-005
2.113634e+003,2.200529e-005
2.115563e+003,2.358854e-005
2.117491e+003,2.517551e-005
2.119420e+003,2.676249e-005
2.121348e+003,2.835691e-005
2.123277e+003,2.994761e-005
2.125205e+003,3.154576e-005
2.127134e+003,3.314391e-005
2.129062e+003,3.474951e-005
2.130991e+003,3.635138e-005
2.132919e+003,3.795326e-005
2.134848e+003,3.955513e-005
2.136776e+003,4.116446e-005
2.138705e+003,4.277751e-005
2.140633e+003,4.438683e-005
2.142562e+003,4.599988e-005
2.144490e+003,4.761666e-005
2.146419e+003,4.923716e-005
2.148347e+003,5.085766e-005
2.150276e+003,5.248189e-005
2.152204e+003,5.410239e-005
2.154133e+003,5.572662e-005
2.156061e+003,5.736202e-005
2.157990e+003,5.898997e-005
2.159918e+003,6.062165e-005
2.161847e+003,6.225333e-005
2.163775e+003,6.389245e-005
2.165704e+003,6.552786e-005
2.167632e+003,6.716698e-005
2.169561e+003,6.881356e-005
2.171489e+003,7.045269e-005
2.173418e+003,7.210672e-005
2.175346e+003,7.375330e-005
2.177275e+003,7.540360e-005
2.179203e+003,7.705763e-005
2.181132e+003,7.871166e-005
2.183060e+003,8.036569e-005
2.184989e+003,8.202717e-005
2.186917e+003,8.368865e-005
2.188846e+003,8.535013e-005
2.190774e+003,8.701161e-005
2.192703e+003,8.868426e-005
2.194631e+003,9.034947e-005
2.196560e+003,9.201840e-005
2.198488e+003,9.369478e-005
2.200417e+003,9.536743e-005
2.202345e+003,9.704381e-005
2.204274e+003,9.872392e-005
2.206202e+003,1.004040e-004
2.208131e+003,1.020879e-004
2.210059e+003,1.037717e-004
2.211988e+003,1.054592e-004
2.213916e+003,1.071468e-004
2.215845e+003,1.088344e-004
2.217773e+003,1.105294e-004
2.219702e+003,1.122244e-004
2.221630e+003,1.139194e-004
2.223559e+003,1.156218e-004
2.225487e+003,1.173206e-004
2.227416e+003,1.190268e-004
2.229344e+003,1.207292e-004
2.231273e+003,1.224428e-004
2.233201e+003,1.241490e-004
2.235130e+003,1.258589e-004
2.237058e+003,1.275688e-004
2.238987e+003,1.292825e-004
2.240915e+003,1.309998e-004
2.242844e+003,1.327209e-004
2.244772e+003,1.344457e-004
2.246701e+003,1.361668e-004
2.248629e+003,1.378916e-004
2.250558e+003,1.396239e-004
2.252486e+003,1.413524e-004
2.254415e+003,1.430809e-004
2.256343e+003,1.448095e-004
2.258272e+003,1.465455e-004
2.260200e+003,1.482852e-004
2.262129e+003,1.500249e-004
2.264057e+003,1.517721e-004
2.265986e+003,1.535080e-004
2.267914e+003,1.552589e-004
2.269843e+003,1.570024e-004
2.271771e+003,1.587532e-004
2.273700e+003,1.605041e-004
2.275628e+003,1.622587e-004
2.277557e+003,1.640171e-004
2.279485e+003,1.657754e-004
2.281414e+003,1.675338e-004
2.283342e+003,1.692958e-004
2.285271e+003,1.710542e-004
2.287199e+003,1.728237e-004
2.289128e+003,1.745895e-004
2.291056e+003,1.763664e-004
2.292985e+003,1.781322e-004
2.294913e+003,1.799054e-004
2.296842e+003,1.816824e-004
2.298770e+003,1.834631e-004
2.300699e+003,1.852401e-004
2.302627e+003,1.870245e-004
2.304556e+003,1.888089e-004
2.306484e+003,1.905970e-004
2.308413e+003,1.923777e-004
2.310341e+003,1.941733e-004
2.312270e+003,1.959652e-004
2.314198e+003,1.977533e-004
2.316127e+003,1.995489e-004
2.318055e+003,2.013445e-004
2.319984e+003,2.031513e-004
2.321912e+003,2.049506e-004
2.323841e+003,2.067573e-004
2.325769e+003,2.085641e-004
2.327698e+003,2.103709e-004
2.329626e+003,2.121814e-004
2.331555e+003,2.139919e-004
2.333483e+003,2.158098e-004
2.335412e+003,2.176203e-004
2.337340e+003,2.194420e-004
2.339269e+003,2.212599e-004
2.341197e+003,2.230853e-004
2.343126e+003,2.249070e-004
2.345054e+003,2.267323e-004
2.346983e+003,2.285615e-004
2.348911e+003,2.303906e-004
2.350840e+003,2.322234e-004
2.352768e+003,2.340600e-004
2.354697e+003,2.358966e-004
2.356625e+003,2.377331e-004
2.358554e+003,2.395734e-004
2.360482e+003,2.414137e-004
2.362411e+003,2.432577e-004
2.364339e+003,2.451129e-004
2.366268e+003,2.469607e-004
2.368196e+003,2.488047e-004
2.370125e+003,2.506599e-004
2.372053e+003,2.525151e-004
2.373982e+003,2.543703e-004
2.375910e+003,2.562292e-004
2.377839e+003,2.580956e-004
2.379767e+003,2.599545e-004
2.381696e+003,2.618171e-004
2.383624e+003,2.636872e-004
2.385553e+003,2.655536e-004
2.387481e+003,2.674237e-004
2.389410e+003,2.692938e-004
2.391338e+003,2.711751e-004
2.393267e+003,2.730489e-004
2.395195e+003,2.749301e-004
2.397124e+003,2.768114e-004
2.399052e+003,2.786927e-004
2.400981e+003,2.507009e-004
2.402909e+003,3.060773e-004
2.404838e+003,3.526695e-004
2.406766e+003,5.249344e-004
2.408695e+003,9.090565e-004
2.410623e+003,1.031756e-003
2.412552e+003,1.029834e-003
2.414480e+003,1.022402e-003
2.416409e+003,9.995475e-004
2.418337e+003,9.566322e-004
2.420266e+003,1.152713e-003
2.422194e+003,1.204260e-003
2.424123e+003,1.122266e-003
2.426051e+003,1.063712e-003
2.427979e+003,1.114096e-003
2.429908e+003,1.119234e-003
2.431837e+003,1.227468e-003
2.433765e+003,1.139157e-003
2.435694e+003,1.118768e-003
2.437622e+003,1.044326e-003
2.439551e+003,9.811148e-004
2.441479e+003,9.219944e-004
2.443407e+003,1.075290e-003
2.445336e+003,1.088761e-003
2.447265e+003,1.168709e-003
2.449193e+003,1.280766e-003
2.451122e+003,1.345009e-003
2.453050e+003,1.205247e-003
2.454979e+003,1.289885e-003
2.456907e+003,1.361620e-003
2.458836e+003,1.318701e-003
2.460764e+003,1.240417e-003
2.462693e+003,1.366731e-003
2.464621e+003,1.497496e-003
2.466550e+003,1.455601e-003
2.468478e+003,1.454126e-003
2.470406e+003,1.752771e-003
2.472335e+003,1.745027e-003
2.474264e+003,1.624219e-003
2.476192e+003,1.532517e-003
2.478121e+003,1.678750e-003
2.480049e+003,1.812138e-003
2.481978e+003,1.958735e-003
2.483906e+003,1.787711e-003
2.485835e+003,1.599628e-003
2.487763e+003,1.756459e-003
2.489692e+003,1.873028e-003
2.491620e+003,1.722243e-003
2.493549e+003,1.804192e-003
2.495477e+003,1.855377e-003
2.497406e+003,1.950119e-003
2.499334e+003,2.032068e-003
2.501263e+003,2.155811e-003
2.503191e+003,2.174404e-003
2.505120e+003,2.253931e-003
2.507048e+003,2.239492e-003
2.508977e+003,2.271913e-003
2.510905e+003,2.300575e-003
2.512833e+003,2.329785e-003
2.514762e+003,2.464503e-003
2.516691e+003,2.612539e-003
2.518619e+003,2.577279e-003
2.520548e+003,2.772409e-003
2.522476e+003,3.020607e-003
2.524405e+003,3.110722e-003
2.526333e+003,3.059551e-003
2.528261e+003,3.143173e-003
2.530190e+003,3.217839e-003
2.532119e+003,3.332727e-003
2.534047e+003,3.216416e-003
2.535976e+003,3.021691e-003
2.537904e+003,3.087759e-003
2.539833e+003,3.265511e-003
2.541761e+003,3.297713e-003
2.543689e+003,3.335316e-003
2.545618e+003,3.518317e-003
2.547547e+003,3.778480e-003
2.549475e+003,3.909308e-003
2.551404e+003,4.062697e-003
2.553332e+003,4.115608e-003
2.555260e+003,4.197363e-003
2.557189e+003,4.210681e-003
2.559117e+003,4.349273e-003
2.561046e+003,4.445694e-003
2.562975e+003,4.642058e-003
2.564903e+003,4.768793e-003
2.566832e+003,4.803807e-003
2.568760e+003,4.832644e-003
2.570688e+003,4.937049e-003
2.572617e+003,5.146161e-003
2.574546e+003,5.389191e-003
2.576474e+003,5.494051e-003
2.578403e+003,5.569097e-003
2.580331e+003,5.635951e-003
2.582260e+003,5.807746e-003
2.584188e+003,6.097451e-003
2.586116e+003,6.260931e-003
2.588045e+003,6.453495e-003
2.589974e+003,6.762460e-003
2.591902e+003,6.817091e-003
2.593831e+003,6.939057e-003
2.595759e+003,7.073678e-003
2.597688e+003,7.301074e-003
2.599616e+003,7.488482e-003
2.601544e+003,7.577952e-003
2.603473e+003,7.786963e-003
2.605402e+003,8.054622e-003
2.607330e+003,8.152284e-003
2.609259e+003,8.419558e-003
2.611187e+003,8.694421e-003
2.613115e+003,9.064518e-003
2.615044e+003,9.462111e-003
2.616972e+003,9.751968e-003
2.618901e+003,1.004758e-002
2.620830e+003,1.037997e-002
2.622758e+003,1.069070e-002
2.624687e+003,1.112166e-002
2.626615e+003,1.162833e-002
2.628543e+003,1.203568e-002
2.630472e+003,1.239571e-002
2.632400e+003,1.277824e-002
2.634329e+003,1.297469e-002
2.636258e+003,1.297888e-002
2.638186e+003,1.288491e-002
2.640115e+003,1.281762e-002
2.642043e+003,1.280289e-002
2.643971e+003,1.279693e-002
2.645900e+003,1.275864e-002
2.647828e+003,1.285908e-002
2.649757e+003,1.301074e-002
2.651686e+003,1.323364e-002
2.653614e+003,1.345053e-002
2.655542e+003,1.365617e-002
2.657471e+003,1.375544e-002
2.659399e+003,1.367914e-002
2.661328e+003,1.348894e-002
2.663256e+003,1.323881e-002
2.665185e+003,1.297788e-002
2.667114e+003,1.281346e-002
2.669042e+003,1.266357e-002
2.670970e+003,1.250890e-002
2.672899e+003,1.227178e-002
2.674827e+003,1.208558e-002
2.676756e+003,1.200312e-002
2.678685e+003,1.188453e-002
2.680613e+003,1.175597e-002
2.682542e+003,1.168974e-002
2.684470e+003,1.170345e-002
2.686398e+003,1.173357e-002
2.688327e+003,1.169544e-002
2.690255e+003,1.162846e-002
2.692184e+003,1.155986e-002
2.694113e+003,1.157350e-002
2.696041e+003,1.162509e-002
2.697969e+003,1.176277e-002
2.699898e+003,1.200590e-002
2.701826e+003,1.219812e-002
2.703755e+003,1.236508e-002
2.705683e+003,1.261560e-002
2.707612e+003,1.283449e-002
2.709541e+003,1.303571e-002
2.711469e+003,1.315565e-002
2.713397e+003,1.323035e-002
2.715326e+003,1.337361e-002
2.717254e+003,1.361709e-002
2.719183e+003,1.385554e-002
2.721111e+003,1.408857e-002
2.723040e+003,1.429115e-002
2.724969e+003,1.452608e-002
2.726897e+003,1.479566e-002
2.728825e+003,1.513901e-002
2.730754e+003,1.542231e-002
2.732682e+003,1.568129e-002
2.734611e+003,1.594113e-002
2.736539e+003,1.616331e-002
2.738468e+003,1.632718e-002
2.740396e+003,1.647130e-002
2.742325e+003,1.654741e-002
2.744253e+003,1.658447e-002
2.746182e+003,1.664925e-002
2.748110e+003,1.674936e-002
2.750039e+003,1.687356e-002
2.751967e+003,1.704354e-002
2.753896e+003,1.733557e-002
2.755824e+003,1.771798e-002
2.757753e+003,1.816928e-002
2.759681e+003,1.860650e-002
2.761610e+003,1.896967e-002
2.763538e+003,1.937862e-002
2.765467e+003,1.984161e-002
2.767395e+003,2.034931e-002
2.769324e+003,2.095830e-002
2.771252e+003,2.160448e-002
2.773181e+003,2.228400e-002
2.775109e+003,2.304592e-002
2.777038e+003,2.386067e-002
2.778966e+003,2.480929e-002
2.780895e+003,2.588936e-002
2.782823e+003,2.708377e-002
2.784752e+003,2.835709e-002
2.786680e+003,2.969893e-002
2.788609e+003,3.111231e-002
2.790537e+003,3.261002e-002
2.792466e+003,3.417642e-002
2.794394e+003,3.579095e-002
2.796323e+003,3.749046e-002
2.798251e+003,3.917905e-002
2.800180e+003,4.094907e-002
2.802108e+003,4.290969e-002
2.804037e+003,4.507069e-002
2.805965e+003,4.735850e-002
2.807894e+003,4.986585e-002
2.809822e+003,5.273807e-002
2.811751e+003,5.604186e-002
2.813679e+003,5.987246e-002
2.815608e+003,6.438290e-002
2.817536e+003,6.953205e-002
2.819465e+003,7.548875e-002
2.821393e+003,8.260991e-002
2.823322e+003,9.129348e-002
2.825250e+003,1.019626e-001
2.827179e+003,1.151982e-001
2.829107e+003,1.316110e-001
2.831036e+003,1.522047e-001
2.832964e+003,1.788960e-001
2.834893e+003,2.146982e-001
2.836821e+003,2.635627e-001
2.838750e+003,3.317356e-001
2.840678e+003,4.290919e-001
2.842607e+003,5.655240e-001
2.844535e+003,7.341849e-001
2.846464e+003,8.693501e-001
2.848392e+003,8.462895e-001
2.850321e+003,6.726738e-001
2.852249e+003,4.945410e-001
2.854178e+003,3.731118e-001
2.856106e+003,2.925671e-001
2.858035e+003,2.351470e-001
2.859963e+003,1.932852e-001
2.861892e+003,1.635501e-001
2.863820e+003,1.436527e-001
2.865749e+003,1.318118e-001
2.867677e+003,1.265444e-001
2.869606e+003,1.264860e-001
2.871534e+003,1.304230e-001
2.873463e+003,1.377521e-001
2.875391e+003,1.490877e-001
2.877320e+003,1.648249e-001
2.879248e+003,1.844656e-001
2.881177e+003,2.068993e-001
2.883105e+003,2.308147e-001
2.885034e+003,2.552942e-001
2.886962e+003,2.799457e-001
2.888891e+003,3.045929e-001
2.890819e+003,3.291478e-001
2.892748e+003,3.535144e-001
2.894676e+003,3.776909e-001
2.896605e+003,4.020177e-001
2.898533e+003,4.274729e-001
2.900462e+003,4.559031e-001
2.902390e+003,4.903155e-001
2.904319e+003,5.348683e-001
2.906247e+003,5.941351e-001
2.908176e+003,6.712158e-001
2.910104e+003,7.640308e-001
2.912033e+003,8.566167e-001
2.913961e+003,9.115804e-001
2.915890e+003,8.916376e-001
2.917818e+003,8.029963e-001
2.919747e+003,6.887319e-001
2.921675e+003,5.812074e-001
2.923604e+003,4.912552e-001
2.925532e+003,4.191666e-001
2.927461e+003,3.604455e-001
2.929389e+003,3.105001e-001
2.931318e+003,2.669231e-001
2.933246e+003,2.287389e-001
2.935175e+003,1.955352e-001
2.937103e+003,1.667964e-001
2.939032e+003,1.422727e-001
2.940960e+003,1.216387e-001
2.942889e+003,1.046667e-001
2.944817e+003,9.146920e-002
2.946746e+003,8.167949e-002
2.948674e+003,7.477587e-002
2.950603e+003,7.022802e-002
2.952531e+003,6.689350e-002
2.954460e+003,6.358929e-002
2.956388e+003,5.996320e-002
2.958317e+003,5.598415e-002
2.960245e+003,5.156943e-002
2.962174e+003,4.690710e-002
2.964102e+003,4.220726e-002
2.966031e+003,3.762391e-002
2.967959e+003,3.334255e-002
2.969888e+003,2.946758e-002
2.971816e+003,2.614191e-002
2.973745e+003,2.321821e-002
2.975673e+003,2.072444e-002
2.977602e+003,1.862977e-002
2.979530e+003,1.693121e-002
2.981459e+003,1.545688e-002
2.983387e+003,1.419411e-002
2.985316e+003,1.318194e-002
2.987244e+003,1.245654e-002
2.989173e+003,1.188975e-002
2.991101e+003,1.156066e-002
2.993030e+003,1.153109e-002
2.994958e+003,1.180014e-002
2.996887e+003,1.229079e-002
2.998815e+003,1.297165e-002
3.000744e+003,1.362641e-002
3.002672e+003,1.407035e-002
3.004601e+003,1.414877e-002
3.006529e+003,1.394007e-002
3.008458e+003,1.342630e-002
3.010386e+003,1.260087e-002
3.012315e+003,1.152498e-002
3.014243e+003,1.033950e-002
3.016172e+003,9.161521e-003
3.018100e+003,8.277714e-003
3.020029e+003,7.468924e-003
3.021957e+003,6.792579e-003
3.023886e+003,6.352086e-003
3.025814e+003,6.029941e-003
3.027743e+003,5.692922e-003
3.029671e+003,5.385675e-003
3.031600e+003,5.211841e-003
3.033528e+003,5.082496e-003
3.035457e+003,4.840858e-003
3.037385e+003,4.585538e-003
3.039314e+003,4.352577e-003
3.041242e+003,4.153635e-003
3.043171e+003,3.892057e-003
3.045099e+003,3.670800e-003
3.047028e+003,3.561724e-003
3.048956e+003,3.456190e-003
3.050885e+003,3.300700e-003
3.052813e+003,3.252696e-003
3.054742e+003,3.157277e-003
3.056670e+003,3.105327e-003
3.058599e+003,3.057618e-003
3.060527e+003,3.049258e-003
3.062456e+003,2.999235e-003
3.064384e+003,2.926130e-003
3.066313e+003,2.931379e-003
3.068241e+003,2.899110e-003
3.070170e+003,2.810989e-003
3.072098e+003,2.771188e-003
3.074027e+003,2.725307e-003
3.075955e+003,2.668560e-003
3.077884e+003,2.595626e-003
3.079812e+003,2.474256e-003
3.081741e+003,2.309568e-003
3.083669e+003,2.241895e-003
3.085598e+003,2.235938e-003
3.087526e+003,2.182253e-003
3.089455e+003,2.028041e-003
3.091383e+003,1.931708e-003
3.093312e+003,1.791108e-003
3.095240e+003,1.659911e-003
3.097169e+003,1.391362e-003
3.099097e+003,1.107294e-003
3.101026e+003,8.978620e-004
3.102954e+003,7.335320e-004
3.104883e+003,6.729476e-004
3.106811e+003,6.903633e-004
3.108740e+003,6.249696e-004
3.110668e+003,5.041137e-004
3.112597e+003,4.748963e-004
3.114525e+003,4.521534e-004
3.116454e+003,3.611632e-004
3.118382e+003,3.538579e-004
3.120311e+003,3.172643e-004
3.122239e+003,2.927445e-004
3.124168e+003,3.607273e-004
3.126096e+003,4.400685e-004
3.128025e+003,4.458614e-004
3.129953e+003,4.333816e-004
3.131882e+003,4.152805e-004
3.133810e+003,4.675724e-004
3.135739e+003,5.720891e-004
3.137667e+003,5.816221e-004
3.139596e+003,5.334318e-004
3.141524e+003,5.781278e-004
3.143453e+003,6.128326e-004
3.145381e+003,7.345937e-004
3.147310e+003,8.678734e-004
3.149238e+003,9.023696e-004
3.151167e+003,8.631386e-004
3.153095e+003,8.802041e-004
3.155024e+003,9.992421e-004
3.156952e+003,1.124937e-003
3.158881e+003,1.144569e-003
3.160809e+003,1.116842e-003
3.162738e+003,1.183778e-003
3.164666e+003,1.237299e-003
3.166594e+003,1.278475e-003
3.168523e+003,1.326330e-003
3.170452e+003,1.408145e-003
3.172380e+003,1.508929e-003
3.174309e+003,1.596510e-003
3.176237e+003,1.653943e-003
3.178166e+003,1.706518e-003
3.180094e+003,1.782682e-003
3.182022e+003,1.773775e-003
3.183951e+003,1.859240e-003
3.185880e+003,1.927607e-003
3.187808e+003,2.018102e-003
3.189737e+003,2.139416e-003
3.191665e+003,2.273727e-003
3.193594e+003,2.218343e-003
3.195522e+003,2.188060e-003
3.197450e+003,2.332311e-003
3.199379e+003,2.406940e-003
3.201308e+003,2.356641e-003
3.203236e+003,2.472915e-003
3.205165e+003,2.623960e-003
3.207093e+003,2.763156e-003
3.209021e+003,2.849188e-003
3.210950e+003,2.789669e-003
3.212878e+003,2.790436e-003
3.214807e+003,2.983056e-003
3.216736e+003,3.088783e-003
3.218664e+003,3.116965e-003
3.220593e+003,3.143173e-003
3.222521e+003,3.079891e-003
3.224449e+003,3.068585e-003
3.226378e+003,3.149539e-003
3.228307e+003,3.264260e-003
3.230235e+003,3.393352e-003
3.232164e+003,3.467843e-003
3.234092e+003,3.512915e-003
3.236021e+003,3.632683e-003
3.237949e+003,3.799655e-003
3.239877e+003,3.892414e-003
3.241806e+003,3.906779e-003
3.243735e+003,3.994327e-003
3.245663e+003,4.165266e-003
3.247592e+003,4.106648e-003
3.249520e+003,4.160095e-003
3.251448e+003,4.302081e-003
3.253377e+003,4.432693e-003
3.255305e+003,4.558418e-003
3.257234e+003,4.681256e-003
3.259163e+003,4.755728e-003
3.261091e+003,4.724879e-003
3.263020e+003,4.779544e-003
3.264948e+003,5.032174e-003
3.266876e+003,5.218368e-003
3.268805e+003,5.264059e-003
3.270733e+003,5.351733e-003
3.272662e+003,5.425073e-003
3.274591e+003,5.486853e-003
3.276519e+003,5.562037e-003
3.278448e+003,5.589601e-003
3.280376e+003,5.556457e-003
3.282304e+003,5.615942e-003
3.284233e+003,5.770378e-003
3.286161e+003,5.728532e-003
3.288090e+003,5.714960e-003
3.290019e+003,5.810145e-003
3.291947e+003,5.839601e-003
3.293875e+003,5.791862e-003
3.295804e+003,5.778830e-003
3.297732e+003,5.839784e-003
3.299661e+003,5.791135e-003
3.301589e+003,5.756766e-003
3.303518e+003,5.784076e-003
3.305447e+003,5.796928e-003
3.307375e+003,5.771823e-003
3.309303e+003,5.828828e-003
3.311232e+003,5.981904e-003
3.313160e+003,5.932957e-003
3.315089e+003,5.822562e-003
3.317018e+003,5.827419e-003
3.318946e+003,5.867984e-003
3.320875e+003,5.866908e-003
3.322803e+003,5.785055e-003
3.324731e+003,5.796168e-003
3.326660e+003,5.903974e-003
3.328588e+003,5.953830e-003
3.330517e+003,5.857561e-003
3.332446e+003,5.844697e-003
3.334374e+003,5.934346e-003
3.336302e+003,5.960371e-003
3.338231e+003,5.927604e-003
3.340159e+003,5.760875e-003
3.342088e+003,5.702943e-003
3.344016e+003,5.765405e-003
3.345945e+003,5.840715e-003
3.347874e+003,5.937353e-003
3.349802e+003,5.935583e-003
3.351730e+003,5.847611e-003
3.353659e+003,5.822297e-003
3.355587e+003,5.893078e-003
3.357516e+003,5.899694e-003
3.359444e+003,5.887195e-003
3.361373e+003,5.944204e-003
3.363302e+003,5.901553e-003
3.365230e+003,5.801197e-003
3.367158e+003,5.661603e-003
3.369087e+003,5.671315e-003
3.371015e+003,5.672880e-003
3.372944e+003,5.713966e-003
3.374872e+003,5.810469e-003
3.376801e+003,5.785782e-003
3.378729e+003,5.779468e-003
3.380658e+003,5.768355e-003
3.382586e+003,5.708952e-003
3.384515e+003,5.700801e-003
3.386443e+003,5.610116e-003
3.388372e+003,5.584616e-003
3.390300e+003,5.552277e-003
3.392229e+003,5.463682e-003
3.394157e+003,5.362354e-003
3.396086e+003,5.393125e-003
3.398014e+003,5.450852e-003
3.399943e+003,5.401690e-003
3.401871e+003,5.361132e-003
3.403800e+003,5.354878e-003
3.405728e+003,5.301207e-003
3.407657e+003,5.291495e-003
3.409585e+003,5.226675e-003
3.411514e+003,5.230524e-003
3.413442e+003,5.187802e-003
3.415371e+003,5.125612e-003
3.417299e+003,5.123034e-003
3.419228e+003,5.212549e-003
3.421156e+003,5.239695e-003
3.423085e+003,5.147059e-003
3.425013e+003,5.033307e-003
3.426942e+003,5.034991e-003
3.428870e+003,5.081549e-003
3.430799e+003,4.999112e-003
3.432727e+003,4.859824e-003
3.434656e+003,4.827671e-003
3.436584e+003,4.887912e-003
3.438513e+003,4.860453e-003
3.440441e+003,4.797529e-003
3.442370e+003,4.685581e-003
3.444298e+003,4.569825e-003
3.446227e+003,4.647717e-003
3.448155e+003,4.608743e-003
3.450084e+003,4.551884e-003
3.452012e+003,4.604790e-003
3.453941e+003,4.533116e-003
3.455869e+003,4.426967e-003
3.457798e+003,4.489388e-003
3.459726e+003,4.537221e-003
3.461655e+003,4.625138e-003
3.463583e+003,4.564688e-003
3.465512e+003,4.521336e-003
3.467440e+003,4.435085e-003
3.469369e+003,4.329376e-003
3.471297e+003,4.252832e-003
3.473226e+003,4.220314e-003
3.475154e+003,4.125439e-003
3.477083e+003,4.001733e-003
3.479011e+003,3.968406e-003
3.480940e+003,3.967617e-003
3.482868e+003,3.839176e-003
3.484797e+003,3.690220e-003
3.486725e+003,3.649186e-003
3.488654e+003,3.552891e-003
3.490582e+003,3.327526e-003
3.492511e+003,3.235161e-003
3.494439e+003,3.382131e-003
3.496368e+003,3.353179e-003
3.498296e+003,3.153082e-003
3.500225e+003,3.154658e-003
3.502153e+003,3.182128e-003
3.504082e+003,3.190093e-003
3.506010e+003,3.173839e-003
3.507939e+003,3.019884e-003
3.509867e+003,2.837665e-003
3.511796e+003,2.722871e-003
3.513724e+003,2.582103e-003
3.515653e+003,2.511412e-003
3.517581e+003,2.487916e-003
3.519510e+003,2.497416e-003
3.521438e+003,2.464924e-003
3.523367e+003,2.351966e-003
3.525295e+003,2.203271e-003
3.527224e+003,2.140597e-003
3.529152e+003,2.141900e-003
3.531081e+003,2.019055e-003
3.533009e+003,1.753680e-003
3.534938e+003,1.652129e-003
3.536866e+003,1.613654e-003
3.538795e+003,1.540240e-003
3.540723e+003,1.462359e-003
3.542652e+003,1.425415e-003
3.544580e+003,1.513831e-003
3.546509e+003,1.519982e-003
3.548437e+003,1.275290e-003
3.550366e+003,9.506233e-004
3.552294e+003,7.864311e-004
3.554223e+003,7.488541e-004
3.556151e+003,6.710663e-004
3.558080e+003,5.632639e-004
3.560008e+003,6.543174e-004
3.561937e+003,5.933382e-004
3.563865e+003,3.857277e-004
3.565794e+003,6.677732e-004
3.567722e+003,1.201335e-003
3.569651e+003,6.903857e-004
3.571579e+003,4.715845e-005
3.573508e+003,-2.610646e-004
3.575436e+003,-2.497733e-004
3.577365e+003,-5.606189e-005
3.579293e+003,3.579631e-005
3.581222e+003,-1.450703e-004
3.583150e+003,-3.729500e-004
3.585079e+003,-4.726537e-004
3.587007e+003,-4.277378e-005
3.588936e+003,2.691709e-004
3.590864e+003,1.999736e-005
3.592793e+003,-1.256168e-005
3.594721e+003,4.211813e-004
3.596650e+003,5.863160e-004
3.598578e+003,7.381774e-004
3.600507e+003,9.826832e-004
3.602435e+003,9.084493e-004
3.604364e+003,7.596388e-004
3.606292e+003,8.265972e-004
3.608221e+003,1.039941e-003
3.610149e+003,7.377453e-004
3.612078e+003,3.706887e-004
3.614006e+003,-2.024025e-004
3.615935e+003,-6.192513e-004
3.617863e+003,-4.696250e-004
3.619792e+003,-1.778826e-005
3.621720e+003,-1.528412e-004
3.623649e+003,-5.922057e-004
3.625577e+003,-9.437725e-004
3.627506e+003,-4.862845e-004
3.629434e+003,2.016015e-004
3.631363e+003,-2.013668e-004
3.633291e+003,-4.822910e-004
3.635220e+003,-8.729249e-004
3.637148e+003,-1.062218e-003
3.639077e+003,-8.401573e-004
3.641005e+003,-5.191788e-004
3.642934e+003,-5.284734e-004
3.644862e+003,-7.529184e-004
3.646791e+003,-4.550293e-004
3.648719e+003,2.257079e-004
3.650648e+003,4.223548e-004
3.652576e+003,-6.128401e-004
3.654505e+003,-1.118131e-003
3.656433e+003,-8.998588e-004
3.658362e+003,-1.122419e-003
3.660290e+003,-1.224346e-003
3.662219e+003,-1.317583e-003
3.664147e+003,-1.629587e-003
3.666076e+003,-1.737442e-003
3.668004e+003,-1.433168e-003
3.669933e+003,-9.668246e-004
3.671861e+003,-1.504444e-003
3.673790e+003,-1.868710e-003
3.675718e+003,-9.359829e-004
3.677647e+003,-8.723810e-004
3.679575e+003,-8.691549e-004
3.681504e+003,-1.210537e-003
3.683432e+003,-1.541600e-003
3.685361e+003,-1.755226e-003
3.687289e+003,-1.343492e-003
3.689218e+003,-1.724362e-004
3.691146e+003,-2.616830e-004
3.693075e+003,-9.237416e-004
3.695003e+003,-1.612812e-003
3.696932e+003,-1.958661e-003
3.698860e+003,-1.851961e-003
3.700789e+003,-1.204137e-003
3.702717e+003,-7.501729e-004
3.704646e+003,-1.118209e-003
3.706574e+003,-1.777451e-003
3.708503e+003,-2.105385e-003
3.710431e+003,-1.273368e-003
3.712360e+003,-4.162528e-004
3.714288e+003,-7.638931e-004
3.716217e+003,-1.333360e-003
3.718145e+003,-1.676936e-003
3.720074e+003,-1.781270e-003
3.722002e+003,-1.437597e-003
3.723931e+003,-9.630173e-004
3.725859e+003,-6.558485e-004
3.727788e+003,-1.033083e-003
3.729716e+003,-1.402706e-003
3.731645e+003,-1.405701e-003
3.733573e+003,-1.094770e-003
3.735502e+003,2.848841e-004
3.737430e+003,7.628277e-005
3.739359e+003,-8.739904e-004
3.741287e+003,-1.180474e-003
3.743216e+003,-7.127784e-004
3.745144e+003,5.061179e-005
3.747073e+003,-6.309114e-004
3.749001e+003,-4.736297e-004
3.750930e+003,4.834346e-004
3.752858e+003,1.531206e-004
3.754787e+003,-5.241409e-004
3.756715e+003,-4.379936e-004
3.758644e+003,-1.832657e-004
3.760572e+003,-1.465157e-004
3.762501e+003,-4.599579e-004
3.764429e+003,-6.084368e-004
3.766358e+003,-8.506887e-004
3.768286e+003,-8.404553e-004
3.770215e+003,-3.671311e-004
3.772143e+003,-4.858784e-004
3.774072e+003,-7.354468e-004
3.776000e+003,-7.892400e-004
3.777929e+003,-5.666539e-004
3.779857e+003,-2.131499e-004
3.781786e+003,-3.914312e-004
3.783714e+003,-4.790500e-004
3.785643e+003,-4.309639e-004
3.787571e+003,-5.446784e-004
3.789500e+003,-7.469840e-004
3.791428e+003,-7.552728e-004
3.793357e+003,-5.972236e-004
3.795285e+003,-3.055967e-004
3.797214e+003,-2.513118e-004
3.799142e+003,-4.403591e-004
3.801071e+003,-2.597868e-004
3.802999e+003,-3.236942e-004
3.804927e+003,-4.000776e-004
3.806856e+003,1.761615e-004
3.808785e+003,1.315437e-004
3.810713e+003,-1.623817e-004
3.812642e+003,-3.873855e-004
3.814570e+003,-1.026876e-004
3.816499e+003,4.862398e-004
3.818427e+003,3.059134e-004
3.820355e+003,7.367432e-004
3.822284e+003,4.543029e-004
3.824213e+003,-1.292937e-004
3.826141e+003,-1.274496e-004
3.828070e+003,-1.579076e-004
3.829998e+003,1.638755e-005
3.831927e+003,3.863536e-004
3.833855e+003,3.288612e-004
3.835783e+003,2.356470e-004
3.837712e+003,1.855195e-004
3.839641e+003,3.156550e-004
3.841569e+003,4.658215e-004
3.843498e+003,5.449429e-004
3.845426e+003,2.960414e-004
3.847354e+003,-1.243539e-004
3.849283e+003,-4.128218e-004
3.851211e+003,-1.969486e-004
3.853140e+003,1.410794e-003
3.855069e+003,1.149900e-003
3.856997e+003,4.739091e-004
3.858926e+003,-1.087897e-004
3.860854e+003,-1.892187e-004
3.862782e+003,4.889183e-004
3.864711e+003,9.114817e-004
3.866640e+003,4.181378e-004
3.868568e+003,2.852157e-004
3.870497e+003,5.422570e-004
3.872425e+003,5.436875e-004
3.874354e+003,7.176511e-004
3.876282e+003,3.223531e-004
3.878210e+003,3.304482e-004
3.880139e+003,8.300245e-004
3.882068e+003,9.966306e-004
3.883996e+003,1.034651e-003
3.885925e+003,7.033497e-004
3.887853e+003,7.775053e-005
3.889781e+003,5.090982e-005
3.891710e+003,6.284900e-004
3.893638e+003,8.140132e-004
3.895567e+003,6.218664e-004
3.897496e+003,3.877021e-004
3.899424e+003,5.019121e-004
3.901353e+003,9.559579e-004
3.903281e+003,1.193006e-003
3.905209e+003,1.202878e-003
3.907138e+003,9.626932e-004
3.909066e+003,7.227063e-004
3.910995e+003,5.909167e-004
3.912924e+003,4.029013e-004
3.914852e+003,4.352033e-004
3.916781e+003,7.515848e-004
3.918709e+003,8.186512e-004
3.920637e+003,6.090887e-004
3.922566e+003,5.507097e-004
3.924494e+003,7.995106e-004
3.926423e+003,8.047372e-004
3.928352e+003,6.739832e-004
3.930280e+003,5.948767e-004
3.932208e+003,6.692000e-004
3.934137e+003,6.469525e-004
3.936065e+003,5.045272e-004
3.937994e+003,3.071204e-004
3.939922e+003,2.396703e-004
3.941851e+003,5.302951e-004
3.943780e+003,6.246567e-004
3.945708e+003,5.455911e-004
3.947636e+003,6.255619e-004
3.949565e+003,6.029159e-004
3.951493e+003,5.201884e-004
3.953422e+003,4.716851e-004
3.955351e+003,4.208349e-004
3.957279e+003,4.341304e-004
3.959208e+003,5.862266e-004
3.961136e+003,7.725842e-004
3.963064e+003,6.842278e-004
3.964993e+003,5.095601e-004
3.966921e+003,5.373359e-004
3.968850e+003,6.303377e-004
3.970779e+003,6.316230e-004
3.972707e+003,5.721375e-004
3.974635e+003,6.580539e-004
3.976564e+003,7.657446e-004
3.978492e+003,7.088147e-004
3.980421e+003,6.272458e-004
3.982349e+003,6.276928e-004
3.984278e+003,5.410761e-004
3.986207e+003,4.527494e-004
3.988135e+003,5.518608e-004
3.990063e+003,5.831793e-004
3.991992e+003,5.715415e-004
3.993920e+003,5.848147e-004
3.995849e+003,5.390272e-004
3.997777e+003,3.747270e-004
3.999706e+003,3.268719e-004
4.001635e+003,0.000000e+000
