3.991992e+002,0.000000e+000
4.011277e+002,0.000000e+000
4.030562e+002,0.000000e+000
4.049846e+002,0.000000e+000
4.069131e+002,0.000000e+000
4.088416e+002,0.000000e+000
4.107701e+002,0.000000e+000
4.126986e+002,0.000000e+000
4.146271e+002,0.000000e+000
4.165556e+002,0.000000e+000
4.184841e+002,0.000000e+000
4.204126e+002,0.000000e+000
4.223411e+002,0.000000e+000
4.242697e+002,0.000000e+000
4.261982e+002,0.000000e+000
4.281266e+002,0.000000e+000
4.300551e+002,0.000000e+000
4.319836e+002,0.000000e+000
4.339121e+002,0.000000e+000
4.358406e+002,0.000000e+000
4.377691e+002,0.000000e+000
4.396976e+002,0.000000e+000
4.416261e+002,0.000000e+000
4.435546e+002,0.000000e+000
4.454831e+002,0.000000e+000
4.474116e+002,0.000000e+000
4.493401e+002,0.000000e+000
4.512686e+002,0.000000e+000
4.531971e+002,0.000000e+000
4.551256e+002,0.000000e+000
4.570541e+002,0.000000e+000
4.589826e+002,0.000000e+000
4.609111e+002,0.000000e+000
4.628396e+002,0.000000e+000
4.647681e+002,0.000000e+000
4.666966e+002,0.000000e+000
4.686251e+002,0.000000e+000
4.705536e+002,0.000000e+000
4.724821e+002,0.000000e+000
4.744106e+002,0.000000e+000
4.763391e+002,0.000000e+000
4.782676e+002,0.000000e+000
4.801961e+002,0.000000e+000
4.821246e+002,0.000000e+000
4.840531e+002,0.000000e+000
4.859816e+002,0.000000e+000
4.879101e+002,0.000000e+000
4.898386e+002,0.000000e+000
4.917671e+002,0.000000e+000
4.936956e+002,0.000000e+000
4.956241e+002,0.000000e+000
4.975526e+002,0.000000e+000
4.994811e+002,0.000000e+000
5.014096e+002,0.000000e+000
5.033381e+002,0.000000e+000
5.052666e+002,0.000000e+000
5.071951e+002,0.000000e+000
5.091236e+002,0.000000e+000
5.110521e+002,0.000000e+000
5.129806e+002,0.000000e+000
5.149091e+002,0.000000e+000
5.168376e+002,0.000000e+000
5.187661e+002,0.000000e+000
5.206946e+002,0.000000e+000
5.226230e+002,0.000000e+000
5.245516e+002,-2.915465e-004
5.264800e+002,-2.343215e-004
5.284086e+002,-2.309552e-004
5.303370e+002,-3.797092e-004
5.322656e+002,-2.908582e-004
5.341940e+002,-2.312153e-004
5.361226e+002,-2.272240e-004
5.380510e+002,-2.663344e-004
5.399796e+002,-1.639744e-004
5.419081e+002,-6.309076e-005
5.438365e+002,-1.020645e-004
5.457650e+002,-1.958023e-004
5.476935e+002,-2.293712e-004
5.496221e+002,-2.592147e-004
5.515505e+002,-6.737025e-005
5.534790e+002,1.329811e-004
5.554075e+002,9.088498e-005
5.573361e+002,-6.597990e-005
5.592645e+002,-7.972302e-005
5.611931e+002,-9.337207e-005
5.631215e+002,-4.940253e-005
5.650500e+002,-1.477438e-005
5.669785e+002,-8.598901e-006
5.689070e+002,-1.649087e-005
5.708355e+002,-9.246136e-005
5.727640e+002,-1.467146e-004
5.746925e+002,-1.623314e-004
5.766210e+002,-1.341735e-004
5.785495e+002,-7.796928e-005
5.804780e+002,-1.991227e-004
5.824065e+002,-2.022332e-004
5.843350e+002,-9.381538e-005
5.862635e+002,1.713191e-005
5.881920e+002,-2.060662e-005
5.901205e+002,-1.362787e-004
5.920490e+002,-2.711604e-004
5.939775e+002,-1.534591e-004
5.959060e+002,-1.370272e-004
5.978345e+002,-9.778561e-005
5.997630e+002,-1.194589e-004
6.016915e+002,-9.330781e-005
6.036200e+002,-3.398256e-005
6.055485e+002,-3.067893e-006
6.074770e+002,-1.846626e-005
6.094055e+002,-1.085305e-005
6.113340e+002,1.593726e-007
6.132625e+002,-3.523834e-005
6.151910e+002,-1.309926e-004
6.171195e+002,-1.683760e-004
6.190480e+002,-8.254952e-005
6.209765e+002,8.451554e-005
6.229050e+002,1.435946e-004
6.248335e+002,1.658616e-004
6.267620e+002,1.286046e-004
6.286905e+002,1.999063e-004
6.306190e+002,2.731855e-004
6.325475e+002,3.696025e-004
6.344760e+002,3.910962e-004
6.364045e+002,4.217448e-004
6.383330e+002,4.302536e-004
6.402615e+002,5.942297e-004
6.421899e+002,5.757475e-004
6.441185e+002,4.790152e-004
6.460470e+002,4.987281e-004
6.479755e+002,6.018311e-004
6.499039e+002,6.483778e-004
6.518325e+002,6.990032e-004
6.537610e+002,6.134618e-004
6.556895e+002,6.302686e-004
6.576179e+002,6.766089e-004
6.595464e+002,7.580502e-004
6.614750e+002,7.650485e-004
6.634034e+002,7.290078e-004
6.653319e+002,6.943773e-004
6.672604e+002,7.655392e-004
6.691890e+002,7.652015e-004
6.711174e+002,9.004476e-004
6.730460e+002,1.008105e-003
6.749745e+002,1.172214e-003
6.769030e+002,1.234223e-003
6.788314e+002,1.388077e-003
6.807599e+002,1.412638e-003
6.826885e+002,1.519491e-003
6.846169e+002,1.698702e-003
6.865454e+002,1.931346e-003
6.884739e+002,2.125493e-003
6.904025e+002,2.426411e-003
6.923309e+002,2.732183e-003
6.942594e+002,3.098056e-003
6.961879e+002,3.488332e-003
6.981165e+002,4.233486e-003
7.000449e+002,5.125269e-003
7.019734e+002,6.401853e-003
7.039019e+002,7.978994e-003
7.058304e+002,1.010341e-002
7.077589e+002,1.298000e-002
7.096874e+002,1.731272e-002
7.116159e+002,2.425472e-002
7.135444e+002,3.758827e-002
7.154729e+002,6.180739e-002
7.174014e+002,9.520729e-002
7.193299e+002,1.105976e-001
7.212584e+002,8.483426e-002
7.231869e+002,5.762048e-002
7.251154e+002,4.818558e-002
7.270439e+002,5.298904e-002
7.289724e+002,6.697050e-002
7.309009e+002,6.135752e-002
7.328294e+002,3.504153e-002
7.347579e+002,1.855725e-002
7.366864e+002,1.263560e-002
7.386149e+002,1.002420e-002
7.405434e+002,8.405851e-003
7.424719e+002,7.427762e-003
7.444004e+002,6.651804e-003
7.463289e+002,6.090773e-003
7.482574e+002,5.556031e-003
7.501859e+002,5.164601e-003
7.521144e+002,4.854086e-003
7.540428e+002,4.613645e-003
7.559714e+002,4.347905e-003
7.578999e+002,4.207662e-003
7.598284e+002,4.101070e-003
7.617568e+002,4.023932e-003
7.636854e+002,3.946047e-003
7.656139e+002,3.887585e-003
7.675424e+002,3.715006e-003
7.694709e+002,3.614509e-003
7.713994e+002,3.561389e-003
7.733279e+002,3.505787e-003
7.752563e+002,3.509235e-003
7.771849e+002,3.450603e-003
7.791134e+002,3.238871e-003
7.810419e+002,3.127504e-003
7.829703e+002,3.001456e-003
7.848989e+002,2.855847e-003
7.868274e+002,2.799314e-003
7.887559e+002,2.798203e-003
7.906843e+002,2.747088e-003
7.926129e+002,2.728360e-003
7.945414e+002,2.753793e-003
7.964698e+002,2.685780e-003
7.983983e+002,2.665163e-003
8.003268e+002,2.631979e-003
8.022554e+002,2.555111e-003
8.041838e+002,2.538027e-003
8.061123e+002,2.511278e-003
8.080408e+002,2.427357e-003
8.099694e+002,2.325310e-003
8.118978e+002,2.240725e-003
8.138263e+002,2.207639e-003
8.157548e+002,2.168905e-003
8.176833e+002,2.105651e-003
8.196118e+002,2.033504e-003
8.215403e+002,1.984777e-003
8.234689e+002,1.995884e-003
8.253973e+002,1.983688e-003
8.273258e+002,1.901320e-003
8.292543e+002,1.856285e-003
8.311829e+002,1.796861e-003
8.331113e+002,1.781974e-003
8.350398e+002,1.769690e-003
8.369683e+002,1.790516e-003
8.388969e+002,1.803724e-003
8.408253e+002,1.844674e-003
8.427538e+002,1.894641e-003
8.446823e+002,1.913779e-003
8.466108e+002,1.827146e-003
8.485393e+002,1.845954e-003
8.504678e+002,1.870550e-003
8.523963e+002,1.821943e-003
8.543248e+002,1.804546e-003
8.562533e+002,1.832573e-003
8.581818e+002,1.864526e-003
8.601103e+002,1.876381e-003
8.620388e+002,1.847631e-003
8.639673e+002,1.848249e-003
8.658958e+002,1.865294e-003
8.678243e+002,1.942823e-003
8.697528e+002,1.981317e-003
8.716813e+002,2.055055e-003
8.736098e+002,2.040280e-003
8.755383e+002,2.088832e-003
8.774668e+002,2.208985e-003
8.793953e+002,2.346543e-003
8.813238e+002,2.472058e-003
8.832523e+002,2.696380e-003
8.851808e+002,2.969867e-003
8.871093e+002,3.147136e-003
8.890378e+002,3.087531e-003
8.909663e+002,3.035143e-003
8.928948e+002,2.913729e-003
8.948232e+002,2.762970e-003
8.967518e+002,2.651458e-003
8.986803e+002,2.624118e-003
9.006088e+002,2.564028e-003
9.025372e+002,2.613389e-003
9.044658e+002,2.767307e-003
9.063943e+002,2.993145e-003
9.083228e+002,3.100473e-003
9.102512e+002,2.995868e-003
9.121797e+002,2.723791e-003
9.141083e+002,2.586695e-003
9.160367e+002,2.449472e-003
9.179653e+002,2.419427e-003
9.198937e+002,2.400610e-003
9.218223e+002,2.441073e-003
9.237507e+002,2.459809e-003
9.256793e+002,2.442351e-003
9.276077e+002,2.364835e-003
9.295363e+002,2.358682e-003
9.314647e+002,2.389528e-003
9.333932e+002,2.493320e-003
9.353217e+002,2.528089e-003
9.372502e+002,2.510873e-003
9.391787e+002,2.474744e-003
9.411072e+002,2.415392e-003
9.430358e+002,2.411060e-003
9.449642e+002,2.420057e-003
9.468928e+002,2.396484e-003
9.488212e+002,2.467992e-003
9.507498e+002,2.432747e-003
9.526782e+002,2.435321e-003
9.546068e+002,2.501003e-003
9.565352e+002,2.617230e-003
9.584637e+002,2.628019e-003
9.603922e+002,2.666940e-003
9.623207e+002,2.730093e-003
9.642492e+002,2.859264e-003
9.661777e+002,2.917632e-003
9.681062e+002,2.927295e-003
9.700347e+002,2.846468e-003
9.719632e+002,2.799556e-003
9.738917e+002,2.759145e-003
9.758202e+002,2.743505e-003
9.777487e+002,2.701530e-003
9.796772e+002,2.747232e-003
9.816057e+002,2.758298e-003
9.835342e+002,2.815218e-003
9.854627e+002,2.851357e-003
9.873912e+002,2.951477e-003
9.893197e+002,3.044557e-003
9.912482e+002,3.152726e-003
9.931767e+002,3.150103e-003
9.951052e+002,3.193296e-003
9.970337e+002,3.281557e-003
9.989622e+002,3.339327e-003
1.000891e+003,3.323440e-003
1.002819e+003,3.365007e-003
1.004748e+003,3.447969e-003
1.006676e+003,3.586989e-003
1.008605e+003,3.693075e-003
1.010533e+003,3.785133e-003
1.012462e+003,3.882166e-003
1.014390e+003,4.027113e-003
1.016319e+003,4.102090e-003
1.018247e+003,4.233497e-003
1.020176e+003,4.287539e-003
1.022104e+003,4.336035e-003
1.024033e+003,4.362271e-003
1.025961e+003,4.388615e-003
1.027890e+003,4.407054e-003
1.029818e+003,4.500331e-003
1.031747e+003,4.520507e-003
1.033675e+003,4.625462e-003
1.035604e+003,4.712927e-003
1.037532e+003,4.788443e-003
1.039461e+003,4.832023e-003
1.041389e+003,4.934906e-003
1.043318e+003,4.946342e-003
1.045246e+003,5.024825e-003
1.047175e+003,5.131442e-003
1.049103e+003,5.310256e-003
1.051032e+003,5.377864e-003
1.052960e+003,5.357688e-003
1.054889e+003,5.327175e-003
1.056817e+003,5.426678e-003
1.058746e+003,5.545714e-003
1.060674e+003,5.720626e-003
1.062603e+003,5.827347e-003
1.064531e+003,5.894396e-003
1.066460e+003,5.938318e-003
1.068388e+003,5.990976e-003
1.070317e+003,6.008008e-003
1.072245e+003,6.174818e-003
1.074174e+003,6.339496e-003
1.076102e+003,6.476652e-003
1.078031e+003,6.556568e-003
1.079959e+003,6.668906e-003
1.081888e+003,6.674408e-003
1.083816e+003,6.686796e-003
1.085745e+003,6.583370e-003
1.087673e+003,6.514739e-003
1.089602e+003,6.428441e-003
1.091530e+003,6.342737e-003
1.093459e+003,6.181813e-003
1.095387e+003,6.099637e-003
1.097316e+003,6.000927e-003
1.099244e+003,5.974346e-003
1.101173e+003,5.820768e-003
1.103101e+003,5.737949e-003
1.105030e+003,5.653075e-003
1.106958e+003,5.574778e-003
1.108887e+003,5.460555e-003
1.110815e+003,5.430820e-003
1.112744e+003,5.338822e-003
1.114672e+003,5.279217e-003
1.116601e+003,5.226552e-003
1.118529e+003,5.244750e-003
1.120458e+003,5.158164e-003
1.122386e+003,5.170908e-003
1.124315e+003,5.171293e-003
1.126243e+003,5.204776e-003
1.128172e+003,5.229598e-003
1.130100e+003,5.296160e-003
1.132029e+003,5.231362e-003
1.133957e+003,5.197644e-003
1.135885e+003,5.194593e-003
1.137814e+003,5.237351e-003
1.139743e+003,5.198625e-003
1.141671e+003,5.245255e-003
1.143600e+003,5.334878e-003
1.145528e+003,5.551051e-003
1.147457e+003,5.755636e-003
1.149385e+003,6.100724e-003
1.151314e+003,6.507640e-003
1.153242e+003,6.941048e-003
1.155171e+003,7.288842e-003
1.157099e+003,7.553571e-003
1.159028e+003,7.712625e-003
1.160956e+003,7.858172e-003
1.162885e+003,7.837487e-003
1.164813e+003,7.766226e-003
1.166742e+003,7.586342e-003
1.168670e+003,7.374887e-003
1.170599e+003,7.116979e-003
1.172527e+003,6.884954e-003
1.174456e+003,6.586527e-003
1.176384e+003,6.410074e-003
1.178313e+003,6.148329e-003
1.180241e+003,5.897344e-003
1.182170e+003,5.720021e-003
1.184098e+003,5.659677e-003
1.186027e+003,5.638694e-003
1.187955e+003,5.718334e-003
1.189884e+003,5.723143e-003
1.191812e+003,5.803284e-003
1.193740e+003,5.880036e-003
1.195669e+003,6.024890e-003
1.197598e+003,6.163033e-003
1.199526e+003,6.358517e-003
1.201455e+003,6.529919e-003
1.203383e+003,6.792784e-003
1.205312e+003,7.037951e-003
1.207240e+003,7.359458e-003
1.209168e+003,7.654931e-003
1.211097e+003,7.984900e-003
1.213026e+003,8.247165e-003
1.214954e+003,8.556605e-003
1.216883e+003,8.809494e-003
1.218811e+003,9.065140e-003
1.220740e+003,9.265935e-003
1.222668e+003,9.528855e-003
1.224596e+003,9.719204e-003
1.226525e+003,9.966789e-003
1.228453e+003,1.017474e-002
1.230382e+003,1.042959e-002
1.232311e+003,1.065325e-002
1.234239e+003,1.089829e-002
1.236167e+003,1.104491e-002
1.238096e+003,1.120573e-002
1.240025e+003,1.125985e-002
1.241953e+003,1.131615e-002
1.243882e+003,1.126266e-002
1.245810e+003,1.118810e-002
1.247739e+003,1.096605e-002
1.249667e+003,1.073134e-002
1.251595e+003,1.041337e-002
1.253524e+003,1.014553e-002
1.255453e+003,9.828569e-003
1.257381e+003,9.628290e-003
1.259310e+003,9.364301e-003
1.261238e+003,9.077448e-003
1.263167e+003,8.780344e-003
1.265095e+003,8.587545e-003
1.267023e+003,8.350223e-003
1.268952e+003,8.252326e-003
1.270880e+003,8.139958e-003
1.272809e+003,8.120393e-003
1.274738e+003,8.109801e-003
1.276666e+003,8.157757e-003
1.278594e+003,8.147335e-003
1.280523e+003,8.281630e-003
1.282451e+003,8.406430e-003
1.284380e+003,8.611063e-003
1.286308e+003,8.775019e-003
1.288237e+003,9.064437e-003
1.290166e+003,9.315319e-003
1.292094e+003,9.692916e-003
1.294022e+003,1.008267e-002
1.295951e+003,1.053227e-002
1.297879e+003,1.080056e-002
1.299808e+003,1.104108e-002
1.301736e+003,1.112332e-002
1.303665e+003,1.118350e-002
1.305594e+003,1.108306e-002
1.307522e+003,1.097895e-002
1.309450e+003,1.072297e-002
1.311379e+003,1.045007e-002
1.313307e+003,9.984274e-003
1.315236e+003,9.596020e-003
1.317164e+003,9.180410e-003
1.319093e+003,8.803809e-003
1.321021e+003,8.347488e-003
1.322950e+003,8.073612e-003
1.324878e+003,7.818906e-003
1.326807e+003,7.741929e-003
1.328735e+003,7.704640e-003
1.330664e+003,7.845383e-003
1.332592e+003,8.076350e-003
1.334521e+003,8.613759e-003
1.336449e+003,9.255273e-003
1.338378e+003,1.016189e-002
1.340306e+003,1.081830e-002
1.342235e+003,1.122506e-002
1.344163e+003,1.162649e-002
1.346092e+003,1.229928e-002
1.348021e+003,1.297775e-002
1.349949e+003,1.370442e-002
1.351877e+003,1.405313e-002
1.353806e+003,1.414760e-002
1.355734e+003,1.391370e-002
1.357663e+003,1.395105e-002
1.359591e+003,1.434744e-002
1.361520e+003,1.530781e-002
1.363448e+003,1.649766e-002
1.365377e+003,1.768664e-002
1.367305e+003,1.865229e-002
1.369234e+003,1.913015e-002
1.371162e+003,1.891316e-002
1.373091e+003,1.931824e-002
1.375019e+003,2.115661e-002
1.376948e+003,2.261247e-002
1.378876e+003,2.094532e-002
1.380805e+003,1.655431e-002
1.382733e+003,1.231004e-002
1.384662e+003,9.957300e-003
1.386590e+003,8.615755e-003
1.388519e+003,7.783555e-003
1.390447e+003,7.247997e-003
1.392376e+003,7.224022e-003
1.394304e+003,7.121048e-003
1.396233e+003,7.220534e-003
1.398161e+003,7.049236e-003
1.400090e+003,7.011497e-003
1.402018e+003,6.865199e-003
1.403947e+003,7.229356e-003
1.405875e+003,7.261967e-003
1.407804e+003,7.469821e-003
1.409732e+003,7.575221e-003
1.411661e+003,7.943795e-003
1.413589e+003,7.942596e-003
1.415518e+003,8.348576e-003
1.417446e+003,8.617184e-003
1.419375e+003,9.253215e-003
1.421303e+003,9.514018e-003
1.423232e+003,1.066705e-002
1.425160e+003,1.199568e-002
1.427089e+003,1.394055e-002
1.429017e+003,1.651525e-002
1.430946e+003,2.031470e-002
1.432874e+003,2.337269e-002
1.434803e+003,2.642036e-002
1.436731e+003,2.962752e-002
1.438660e+003,3.262613e-002
1.440588e+003,3.439175e-002
1.442517e+003,3.690021e-002
1.444445e+003,3.896213e-002
1.446374e+003,4.195148e-002
1.448302e+003,4.598183e-002
1.450231e+003,5.204191e-002
1.452159e+003,6.098212e-002
1.454088e+003,7.241367e-002
1.456016e+003,8.367717e-002
1.457945e+003,1.079456e-001
1.459873e+003,1.491661e-001
1.461802e+003,1.937529e-001
1.463730e+003,1.987407e-001
1.465659e+003,1.581301e-001
1.467587e+003,1.434998e-001
1.469516e+003,1.406215e-001
1.471444e+003,1.564717e-001
1.473373e+003,1.339763e-001
1.475301e+003,7.353748e-002
1.477230e+003,3.417752e-002
1.479158e+003,2.256905e-002
1.481087e+003,1.689862e-002
1.483015e+003,1.424208e-002
1.484944e+003,1.214549e-002
1.486872e+003,1.164671e-002
1.488801e+003,1.022267e-002
1.490729e+003,9.715246e-003
1.492658e+003,8.570403e-003
1.494586e+003,8.712597e-003
1.496515e+003,8.017564e-003
1.498443e+003,8.102960e-003
1.500372e+003,7.420196e-003
1.502300e+003,7.473930e-003
1.504229e+003,7.177225e-003
1.506157e+003,8.125170e-003
1.508086e+003,7.146785e-003
1.510014e+003,7.323261e-003
1.511943e+003,6.886759e-003
1.513871e+003,7.213899e-003
1.515800e+003,7.209245e-003
1.517728e+003,7.544506e-003
1.519657e+003,7.350880e-003
1.521585e+003,7.723428e-003
1.523514e+003,7.054986e-003
1.525442e+003,7.360796e-003
1.527371e+003,7.020302e-003
1.529299e+003,7.125112e-003
1.531228e+003,7.135959e-003
1.533156e+003,7.567123e-003
1.535085e+003,7.221321e-003
1.537013e+003,7.563110e-003
1.538942e+003,7.716559e-003
1.540870e+003,7.947738e-003
1.542799e+003,7.342725e-003
1.544727e+003,7.349083e-003
1.546656e+003,6.890866e-003
1.548584e+003,7.107927e-003
1.550513e+003,6.952805e-003
1.552441e+003,6.999024e-003
1.554370e+003,6.779566e-003
1.556298e+003,6.934245e-003
1.558227e+003,6.724708e-003
1.560155e+003,5.888839e-003
1.562084e+003,5.548110e-003
1.564012e+003,5.610404e-003
1.565941e+003,5.304931e-003
1.567869e+003,5.475890e-003
1.569798e+003,5.297810e-003
1.571726e+003,5.087310e-003
1.573655e+003,4.970463e-003
1.575583e+003,5.086554e-003
1.577512e+003,4.637977e-003
1.579440e+003,4.634819e-003
1.581369e+003,4.572501e-003
1.583297e+003,4.671135e-003
1.585226e+003,4.580382e-003
1.587154e+003,4.636119e-003
1.589083e+003,4.581062e-003
1.591011e+003,4.658011e-003
1.592940e+003,4.636573e-003
1.594868e+003,4.701717e-003
1.596797e+003,4.596476e-003
1.598725e+003,4.668961e-003
1.600654e+003,4.649606e-003
1.602582e+003,4.790209e-003
1.604511e+003,4.750334e-003
1.606439e+003,4.885048e-003
1.608368e+003,4.965074e-003
1.610296e+003,5.114194e-003
1.612225e+003,5.191037e-003
1.614153e+003,5.510603e-003
1.616082e+003,5.656238e-003
1.618010e+003,5.794619e-003
1.619939e+003,5.904011e-003
1.621867e+003,6.237431e-003
1.623796e+003,6.401753e-003
1.625724e+003,6.724016e-003
1.627653e+003,7.017384e-003
1.629581e+003,7.286520e-003
1.631510e+003,7.466663e-003
1.633438e+003,7.905314e-003
1.635367e+003,8.255279e-003
1.637295e+003,8.480880e-003
1.639224e+003,8.629249e-003
1.641152e+003,8.957002e-003
1.643081e+003,9.131690e-003
1.645009e+003,9.555352e-003
1.646938e+003,9.662090e-003
1.648866e+003,9.502244e-003
1.650795e+003,9.562977e-003
1.652723e+003,9.842416e-003
1.654652e+003,9.406507e-003
1.656580e+003,9.510345e-003
1.658509e+003,9.454494e-003
1.660437e+003,9.594555e-003
1.662366e+003,9.463711e-003
1.664294e+003,9.051833e-003
1.666223e+003,8.799506e-003
1.668151e+003,8.734088e-003
1.670080e+003,8.135447e-003
1.672008e+003,7.839390e-003
1.673937e+003,7.675722e-003
1.675865e+003,7.404974e-003
1.677794e+003,7.041906e-003
1.679722e+003,6.952523e-003
1.681651e+003,6.721298e-003
1.683579e+003,6.606245e-003
1.685508e+003,5.644075e-003
1.687436e+003,5.581264e-003
1.689365e+003,5.236545e-003
1.691293e+003,4.981403e-003
1.693222e+003,4.837917e-003
1.695150e+003,4.833667e-003
1.697079e+003,4.368151e-003
1.699007e+003,4.251792e-003
1.700936e+003,3.387908e-003
1.702864e+003,3.503222e-003
1.704793e+003,3.502959e-003
1.706721e+003,3.534522e-003
1.708650e+003,3.539834e-003
1.710578e+003,3.784505e-003
1.712507e+003,3.965897e-003
1.714435e+003,4.470211e-003
1.716364e+003,4.774692e-003
1.718292e+003,4.911563e-003
1.720221e+003,4.733156e-003
1.722149e+003,4.704014e-003
1.724078e+003,4.198334e-003
1.726006e+003,3.760657e-003
1.727935e+003,3.543849e-003
1.729863e+003,3.567675e-003
1.731792e+003,3.450417e-003
1.733720e+003,3.433693e-003
1.735649e+003,2.742018e-003
1.737577e+003,2.798724e-003
1.739506e+003,2.694461e-003
1.741434e+003,2.610377e-003
1.743363e+003,2.461937e-003
1.745291e+003,2.329555e-003
1.747220e+003,2.249094e-003
1.749148e+003,2.355984e-003
1.751077e+003,1.955702e-003
1.753005e+003,1.587759e-003
1.754934e+003,1.394633e-003
1.756862e+003,1.296961e-003
1.758791e+003,1.174167e-003
1.760719e+003,1.274733e-003
1.762648e+003,9.581922e-004
1.764576e+003,9.436705e-004
1.766505e+003,1.052140e-003
1.768433e+003,1.107565e-003
1.770362e+003,1.055836e-003
1.772290e+003,9.906488e-004
1.774219e+003,5.433057e-004
1.776147e+003,5.280017e-004
1.778076e+003,5.310434e-004
1.780004e+003,6.472371e-004
1.781933e+003,5.453634e-004
1.783861e+003,5.844254e-004
1.785790e+003,4.062117e-004
1.787718e+003,4.386064e-004
1.789646e+003,5.660164e-004
1.791575e+003,7.009483e-004
1.793504e+003,3.361404e-004
1.795432e+003,3.387346e-004
1.797361e+003,2.438021e-004
1.799289e+003,3.254805e-004
1.801218e+003,3.437074e-004
1.803146e+003,3.061509e-004
1.805074e+003,1.363368e-004
1.807003e+003,1.394446e-004
1.808932e+003,-2.523419e-006
1.810860e+003,-4.900945e-005
1.812789e+003,-4.020673e-004
1.814717e+003,-6.485828e-004
1.816646e+003,-8.258917e-004
1.818574e+003,-4.971265e-004
1.820502e+003,-4.019593e-004
1.822431e+003,-2.925429e-004
1.824360e+003,-3.134604e-004
1.826288e+003,-3.310158e-004
1.828217e+003,-4.859748e-004
1.830145e+003,-6.145393e-004
1.832073e+003,-8.486942e-004
1.834002e+003,-6.739874e-004
1.835931e+003,-7.343576e-004
1.837859e+003,-6.908108e-004
1.839788e+003,-7.310170e-004
1.841716e+003,-4.568887e-004
1.843645e+003,-4.526433e-004
1.845573e+003,-5.057091e-004
1.847501e+003,-8.150367e-004
1.849430e+003,-8.931961e-004
1.851359e+003,-1.056091e-003
1.853287e+003,-1.085102e-003
1.855216e+003,-1.294098e-003
1.857144e+003,-1.023799e-003
1.859073e+003,-1.083834e-003
1.861001e+003,-1.010931e-003
1.862929e+003,-1.125481e-003
1.864858e+003,-1.058416e-003
1.866787e+003,-1.208489e-003
1.868715e+003,-9.503821e-004
1.870644e+003,-1.115583e-003
1.872572e+003,-1.097463e-003
1.874500e+003,-1.240110e-003
1.876429e+003,-1.288062e-003
1.878357e+003,-1.565911e-003
1.880286e+003,-1.453866e-003
1.882215e+003,-1.598849e-003
1.884143e+003,-1.442186e-003
1.886072e+003,-1.515749e-003
1.888000e+003,-1.382611e-003
1.889928e+003,-1.458077e-003
1.891857e+003,-1.179315e-003
1.893785e+003,-1.063130e-003
1.895714e+003,-6.054537e-004
1.897643e+003,-7.818108e-004
1.899571e+003,-7.766150e-004
1.901500e+003,-7.696673e-004
1.903428e+003,-7.627327e-004
1.905356e+003,-7.558074e-004
1.907285e+003,-7.488923e-004
1.909213e+003,-7.419894e-004
1.911142e+003,-7.350976e-004
1.913071e+003,-7.282170e-004
1.914999e+003,-7.213475e-004
1.916927e+003,-7.144893e-004
1.918856e+003,-7.076403e-004
1.920784e+003,-7.008044e-004
1.922713e+003,-6.939797e-004
1.924641e+003,-6.871643e-004
1.926570e+003,-6.803591e-004
1.928499e+003,-6.735679e-004
1.930427e+003,-6.667860e-004
1.932355e+003,-6.600153e-004
1.934284e+003,-6.532557e-004
1.936212e+003,-6.465055e-004
1.938141e+003,-6.397683e-004
1.940070e+003,-6.330423e-004
1.941998e+003,-6.263256e-004
1.943927e+003,-6.196192e-004
1.945855e+003,-6.129267e-004
1.947783e+003,-6.062435e-004
1.949712e+003,-5.995715e-004
1.951640e+003,-5.929107e-004
1.953569e+003,-5.862629e-004
1.955498e+003,-5.796226e-004
1.957426e+003,-5.729944e-004
1.959354e+003,-5.663782e-004
1.961283e+003,-5.597733e-004
1.963211e+003,-5.531777e-004
1.965140e+003,-5.465951e-004
1.967068e+003,-5.400218e-004
1.968997e+003,-5.334597e-004
1.970926e+003,-5.269079e-004
1.972854e+003,-5.203681e-004
1.974782e+003,-5.138395e-004
1.976711e+003,-5.073221e-004
1.978639e+003,-5.008141e-004
1.980568e+003,-4.943190e-004
1.982496e+003,-4.878333e-004
1.984425e+003,-4.813606e-004
1.986354e+003,-4.748991e-004
1.988282e+003,-4.684469e-004
1.990210e+003,-4.620049e-004
1.992139e+003,-4.555751e-004
1.994067e+003,-4.491583e-004
1.995996e+003,-4.427489e-004
1.997924e+003,-4.363526e-004
1.999853e+003,-4.299674e-004
2.001781e+003,-4.235916e-004
2.003710e+003,-4.172279e-004
2.005638e+003,-4.108744e-004
2.007567e+003,-4.045339e-004
2.009495e+003,-3.982028e-004
2.011424e+003,-3.918828e-004
2.013352e+003,-3.855741e-004
2.015281e+003,-3.792765e-004
2.017209e+003,-3.729900e-004
2.019138e+003,-3.667148e-004
2.021066e+003,-3.604479e-004
2.022995e+003,-3.541950e-004
2.024923e+003,-3.479514e-004
2.026852e+003,-3.417209e-004
2.028781e+003,-3.354996e-004
2.030709e+003,-3.292914e-004
2.032637e+003,-3.230926e-004
2.034566e+003,-3.169049e-004
2.036494e+003,-3.107265e-004
2.038423e+003,-3.045611e-004
2.040351e+003,-2.984060e-004
2.042280e+003,-2.922630e-004
2.044208e+003,-2.861293e-004
2.046137e+003,-2.800068e-004
2.048065e+003,-2.738973e-004
2.049994e+003,-2.677971e-004
2.051922e+003,-2.617100e-004
2.053851e+003,-2.556313e-004
2.055779e+003,-2.495646e-004
2.057708e+003,-2.435073e-004
2.059636e+003,-2.374649e-004
2.061565e+003,-2.314299e-004
2.063493e+003,-2.254080e-004
2.065422e+003,-2.193954e-004
2.067350e+003,-2.133958e-004
2.069279e+003,-2.074046e-004
2.071207e+003,-2.014264e-004
2.073136e+003,-1.954585e-004
2.075064e+003,-1.895009e-004
2.076993e+003,-1.835553e-004
2.078921e+003,-1.776209e-004
2.080850e+003,-1.716977e-004
2.082778e+003,-1.657857e-004
2.084707e+003,-1.598820e-004
2.086635e+003,-1.539923e-004
2.088564e+003,-1.481120e-004
2.090492e+003,-1.422428e-004
2.092421e+003,-1.363866e-004
2.094349e+003,-1.305398e-004
2.096278e+003,-1.247041e-004
2.098206e+003,-1.188796e-004
2.100135e+003,-1.130654e-004
2.102063e+003,-1.072614e-004
2.103992e+003,-1.014713e-004
2.105920e+003,-9.568874e-005
2.107849e+003,-8.992013e-005
2.109777e+003,-8.416083e-005
2.111706e+003,-7.841270e-005
2.113634e+003,-7.267576e-005
2.115563e+003,-6.695185e-005
2.117491e+003,-6.123632e-005
2.119420e+003,-5.553290e-005
2.121348e+003,-4.984066e-005
2.123277e+003,-4.415773e-005
2.125205e+003,-3.848784e-005
2.127134e+003,-3.282912e-005
2.129062e+003,-2.717972e-005
2.130991e+003,-2.154149e-005
2.132919e+003,-1.591444e-005
2.134848e+003,-1.030043e-005
2.136776e+003,-4.695728e-006
2.138705e+003,8.996576e-007
2.140633e+003,6.482936e-006
2.142562e+003,1.205411e-005
2.144490e+003,1.761410e-005
2.146419e+003,2.316572e-005
2.148347e+003,2.870336e-005
2.150276e+003,3.423169e-005
2.152204e+003,3.974605e-005
2.154133e+003,4.525296e-005
2.156061e+003,5.074777e-005
2.157990e+003,5.623139e-005
2.159918e+003,6.170385e-005
2.161847e+003,6.716512e-005
2.163775e+003,7.261522e-005
2.165704e+003,7.805694e-005
2.167632e+003,8.348469e-005
2.169561e+003,8.890312e-005
2.171489e+003,9.430945e-005
2.173418e+003,9.970646e-005
2.175346e+003,1.050895e-004
2.177275e+003,1.104632e-004
2.179203e+003,1.158258e-004
2.181132e+003,1.211772e-004
2.183060e+003,1.265183e-004
2.184989e+003,1.318492e-004
2.186917e+003,1.371671e-004
2.188846e+003,1.424756e-004
2.190774e+003,1.477711e-004
2.192703e+003,1.530573e-004
2.194631e+003,1.583304e-004
2.196560e+003,1.635943e-004
2.198488e+003,1.688479e-004
2.200417e+003,1.740893e-004
2.202345e+003,1.793215e-004
2.204274e+003,1.845406e-004
2.206202e+003,1.897486e-004
2.208131e+003,1.949472e-004
2.210059e+003,2.001328e-004
2.211988e+003,2.053101e-004
2.213916e+003,2.104733e-004
2.215845e+003,2.156273e-004
2.217773e+003,2.207700e-004
2.219702e+003,2.259016e-004
2.221630e+003,2.310220e-004
2.223559e+003,2.361313e-004
2.225487e+003,2.412293e-004
2.227416e+003,2.463181e-004
2.229344e+003,2.513938e-004
2.231273e+003,2.564602e-004
2.233201e+003,2.615154e-004
2.235130e+003,2.665594e-004
2.237058e+003,2.715914e-004
2.238987e+003,2.766130e-004
2.240915e+003,2.816254e-004
2.242844e+003,2.866257e-004
2.244772e+003,2.916139e-004
2.246701e+003,2.965908e-004
2.248629e+003,3.015567e-004
2.250558e+003,3.065132e-004
2.252486e+003,3.114585e-004
2.254415e+003,3.163908e-004
2.256343e+003,3.213137e-004
2.258272e+003,3.262237e-004
2.260200e+003,3.311262e-004
2.262129e+003,3.360165e-004
2.264057e+003,3.408948e-004
2.265986e+003,3.457619e-004
2.267914e+003,3.506197e-004
2.269843e+003,3.554644e-004
2.271771e+003,3.602998e-004
2.273700e+003,3.651222e-004
2.275628e+003,3.699362e-004
2.277557e+003,3.747372e-004
2.279485e+003,3.795261e-004
2.281414e+003,3.843084e-004
2.283342e+003,3.890768e-004
2.285271e+003,3.938340e-004
2.287199e+003,3.985800e-004
2.289128e+003,4.033148e-004
2.291056e+003,4.080404e-004
2.292985e+003,4.127538e-004
2.294913e+003,4.174570e-004
2.296842e+003,4.221490e-004
2.298770e+003,4.268298e-004
2.300699e+003,4.314994e-004
2.302627e+003,4.361579e-004
2.304556e+003,4.408052e-004
2.306484e+003,4.454413e-004
2.308413e+003,4.500691e-004
2.310341e+003,4.546819e-004
2.312270e+003,4.592845e-004
2.314198e+003,4.638787e-004
2.316127e+003,4.684608e-004
2.318055e+003,4.730299e-004
2.319984e+003,4.775897e-004
2.321912e+003,4.821382e-004
2.323841e+003,4.866756e-004
2.325769e+003,4.912019e-004
2.327698e+003,4.957188e-004
2.329626e+003,5.002227e-004
2.331555e+003,5.047163e-004
2.333483e+003,5.091997e-004
2.335412e+003,5.136719e-004
2.337340e+003,5.181329e-004
2.339269e+003,5.225809e-004
2.341197e+003,5.270196e-004
2.343126e+003,5.314499e-004
2.345054e+003,5.358644e-004
2.346983e+003,5.402686e-004
2.348911e+003,5.446654e-004
2.350840e+003,5.490482e-004
2.352768e+003,5.534198e-004
2.354697e+003,5.577821e-004
2.356625e+003,5.621323e-004
2.358554e+003,5.664723e-004
2.360482e+003,5.708011e-004
2.362411e+003,5.751178e-004
2.364339e+003,5.794251e-004
2.366268e+003,5.837223e-004
2.368196e+003,5.880073e-004
2.370125e+003,5.922802e-004
2.372053e+003,5.965438e-004
2.373982e+003,6.007934e-004
2.375910e+003,6.050346e-004
2.377839e+003,6.092638e-004
2.379767e+003,6.134827e-004
2.381696e+003,6.176904e-004
2.383624e+003,6.218869e-004
2.385553e+003,6.260723e-004
2.387481e+003,6.302465e-004
2.389410e+003,6.344095e-004
2.391338e+003,6.385632e-004
2.393267e+003,6.427038e-004
2.395195e+003,6.468361e-004
2.397124e+003,6.509544e-004
2.399052e+003,6.550634e-004
2.400981e+003,6.111190e-004
2.402909e+003,5.629938e-004
2.404838e+003,5.271910e-004
2.406766e+003,6.690901e-004
2.408695e+003,9.959992e-004
2.410623e+003,1.035538e-003
2.412552e+003,9.181285e-004
2.414480e+003,9.726547e-004
2.416409e+003,1.080165e-003
2.418337e+003,9.428496e-004
2.420266e+003,8.635502e-004
2.422194e+003,8.989135e-004
2.424123e+003,8.319514e-004
2.426051e+003,8.002007e-004
2.427979e+003,8.523343e-004
2.429908e+003,8.340329e-004
2.431837e+003,8.550975e-004
2.433765e+003,7.903622e-004
2.435694e+003,8.376697e-004
2.437622e+003,8.039726e-004
2.439551e+003,7.037558e-004
2.441479e+003,5.315859e-004
2.443407e+003,6.542718e-004
2.445336e+003,7.775631e-004
2.447265e+003,9.070104e-004
2.449193e+003,7.727928e-004
2.451122e+003,8.144565e-004
2.453050e+003,9.936523e-004
2.454979e+003,1.094307e-003
2.456907e+003,1.007415e-003
2.458836e+003,9.230515e-004
2.460764e+003,8.322503e-004
2.462693e+003,8.680560e-004
2.464621e+003,9.351829e-004
2.466550e+003,1.015305e-003
2.468478e+003,9.433245e-004
2.470406e+003,9.093927e-004
2.472335e+003,7.993486e-004
2.474264e+003,9.281337e-004
2.476192e+003,1.094495e-003
2.478121e+003,1.238649e-003
2.480049e+003,1.255170e-003
2.481978e+003,1.264613e-003
2.483906e+003,1.230121e-003
2.485835e+003,1.370328e-003
2.487763e+003,1.311556e-003
2.489692e+003,1.198578e-003
2.491620e+003,1.254925e-003
2.493549e+003,1.392942e-003
2.495477e+003,1.441234e-003
2.497406e+003,1.530749e-003
2.499334e+003,1.509510e-003
2.501263e+003,1.606939e-003
2.503191e+003,1.588923e-003
2.505120e+003,1.559583e-003
2.507048e+003,1.555671e-003
2.508977e+003,1.646074e-003
2.510905e+003,1.697795e-003
2.512833e+003,1.764307e-003
2.514762e+003,1.850443e-003
2.516691e+003,2.113600e-003
2.518619e+003,2.220710e-003
2.520548e+003,2.250253e-003
2.522476e+003,2.402717e-003
2.524405e+003,2.468003e-003
2.526333e+003,2.442983e-003
2.528261e+003,2.566733e-003
2.530190e+003,2.628950e-003
2.532119e+003,2.683506e-003
2.534047e+003,2.698171e-003
2.535976e+003,2.664756e-003
2.537904e+003,2.641227e-003
2.539833e+003,2.778805e-003
2.541761e+003,2.903041e-003
2.543689e+003,3.165382e-003
2.545618e+003,3.460469e-003
2.547547e+003,3.671361e-003
2.549475e+003,3.648334e-003
2.551404e+003,3.662852e-003
2.553332e+003,3.900566e-003
2.555260e+003,4.064376e-003
2.557189e+003,3.978060e-003
2.559117e+003,4.058306e-003
2.561046e+003,4.178527e-003
2.562975e+003,4.312201e-003
2.564903e+003,4.471630e-003
2.566832e+003,4.625640e-003
2.568760e+003,4.757013e-003
2.570688e+003,4.971029e-003
2.572617e+003,5.109672e-003
2.574546e+003,5.228307e-003
2.576474e+003,5.342190e-003
2.578403e+003,5.604434e-003
2.580331e+003,5.857491e-003
2.582260e+003,6.078225e-003
2.584188e+003,6.220018e-003
2.586116e+003,6.469681e-003
2.588045e+003,6.666994e-003
2.589974e+003,6.861457e-003
2.591902e+003,7.172417e-003
2.593831e+003,7.400800e-003
2.595759e+003,7.620714e-003
2.597688e+003,7.889279e-003
2.599616e+003,8.001151e-003
2.601544e+003,8.259442e-003
2.603473e+003,8.557625e-003
2.605402e+003,8.849503e-003
2.607330e+003,9.129266e-003
2.609259e+003,9.431625e-003
2.611187e+003,9.699801e-003
2.613115e+003,9.921311e-003
2.615044e+003,1.013338e-002
2.616972e+003,1.056973e-002
2.618901e+003,1.102285e-002
2.620830e+003,1.143507e-002
2.622758e+003,1.174589e-002
2.624687e+003,1.217193e-002
2.626615e+003,1.266905e-002
2.628543e+003,1.303966e-002
2.630472e+003,1.338346e-002
2.632400e+003,1.371208e-002
2.634329e+003,1.396277e-002
2.636258e+003,1.413117e-002
2.638186e+003,1.420179e-002
2.640115e+003,1.418741e-002
2.642043e+003,1.415849e-002
2.643971e+003,1.419220e-002
2.645900e+003,1.418397e-002
2.647828e+003,1.423243e-002
2.649757e+003,1.438450e-002
2.651686e+003,1.459380e-002
2.653614e+003,1.471458e-002
2.655542e+003,1.481997e-002
2.657471e+003,1.495699e-002
2.659399e+003,1.499383e-002
2.661328e+003,1.484505e-002
2.663256e+003,1.470377e-002
2.665185e+003,1.453896e-002
2.667114e+003,1.435396e-002
2.669042e+003,1.421148e-002
2.670970e+003,1.405992e-002
2.672899e+003,1.391090e-002
2.674827e+003,1.378221e-002
2.676756e+003,1.365387e-002
2.678685e+003,1.358846e-002
2.680613e+003,1.350771e-002
2.682542e+003,1.331825e-002
2.684470e+003,1.310979e-002
2.686398e+003,1.302270e-002
2.688327e+003,1.296075e-002
2.690255e+003,1.290657e-002
2.692184e+003,1.279112e-002
2.694113e+003,1.272902e-002
2.696041e+003,1.270066e-002
2.697969e+003,1.270836e-002
2.699898e+003,1.276403e-002
2.701826e+003,1.281276e-002
2.703755e+003,1.292209e-002
2.705683e+003,1.315904e-002
2.707612e+003,1.338547e-002
2.709541e+003,1.362692e-002
2.711469e+003,1.378591e-002
2.713397e+003,1.392546e-002
2.715326e+003,1.412633e-002
2.717254e+003,1.438390e-002
2.719183e+003,1.456941e-002
2.721111e+003,1.477619e-002
2.723040e+003,1.504682e-002
2.724969e+003,1.535786e-002
2.726897e+003,1.566913e-002
2.728825e+003,1.596209e-002
2.730754e+003,1.615164e-002
2.732682e+003,1.628510e-002
2.734611e+003,1.642822e-002
2.736539e+003,1.660967e-002
2.738468e+003,1.673889e-002
2.740396e+003,1.680207e-002
2.742325e+003,1.680272e-002
2.744253e+003,1.681295e-002
2.746182e+003,1.682399e-002
2.748110e+003,1.682991e-002
2.750039e+003,1.686807e-002
2.751967e+003,1.697359e-002
2.753896e+003,1.714938e-002
2.755824e+003,1.737403e-002
2.757753e+003,1.776502e-002
2.759681e+003,1.819928e-002
2.761610e+003,1.859982e-002
2.763538e+003,1.903211e-002
2.765467e+003,1.947621e-002
2.767395e+003,1.996176e-002
2.769324e+003,2.049999e-002
2.771252e+003,2.111424e-002
2.773181e+003,2.180814e-002
2.775109e+003,2.259665e-002
2.777038e+003,2.349691e-002
2.778966e+003,2.443857e-002
2.780895e+003,2.552261e-002
2.782823e+003,2.672762e-002
2.784752e+003,2.797366e-002
2.786680e+003,2.932708e-002
2.788609e+003,3.086196e-002
2.790537e+003,3.250304e-002
2.792466e+003,3.420452e-002
2.794394e+003,3.594764e-002
2.796323e+003,3.779324e-002
2.798251e+003,3.972390e-002
2.800180e+003,4.173619e-002
2.802108e+003,4.385146e-002
2.804037e+003,4.616118e-002
2.805965e+003,4.864684e-002
2.807894e+003,5.141592e-002
2.809822e+003,5.446728e-002
2.811751e+003,5.790794e-002
2.813679e+003,6.182553e-002
2.815608e+003,6.635085e-002
2.817536e+003,7.153007e-002
2.819465e+003,7.758416e-002
2.821393e+003,8.480507e-002
2.823322e+003,9.359680e-002
2.825250e+003,1.044764e-001
2.827179e+003,1.182379e-001
2.829107e+003,1.360751e-001
2.831036e+003,1.599858e-001
2.832964e+003,1.928400e-001
2.834893e+003,2.393629e-001
2.836821e+003,3.058094e-001
2.838750e+003,4.019010e-001
2.840678e+003,5.434238e-001
2.842607e+003,7.502032e-001
2.844535e+003,1.030251e+000
2.846464e+003,1.310852e+000
2.848392e+003,1.356819e+000
2.850321e+003,1.109462e+000
2.852249e+003,8.233858e-001
2.854178e+003,6.179266e-001
2.856106e+003,4.782545e-001
2.858035e+003,3.797026e-001
2.859963e+003,3.093639e-001
2.861892e+003,2.601776e-001
2.863820e+003,2.272824e-001
2.865749e+003,2.074604e-001
2.867677e+003,1.979013e-001
2.869606e+003,1.952641e-001
2.871534e+003,1.965261e-001
2.873463e+003,2.010158e-001
2.875391e+003,2.101790e-001
2.877320e+003,2.253032e-001
2.879248e+003,2.463530e-001
2.881177e+003,2.722374e-001
2.883105e+003,3.020188e-001
2.885034e+003,3.351625e-001
2.886962e+003,3.710113e-001
2.888891e+003,4.084951e-001
2.890819e+003,4.466143e-001
2.892748e+003,4.847871e-001
2.894676e+003,5.227094e-001
2.896605e+003,5.610605e-001
2.898533e+003,6.015009e-001
2.900462e+003,6.467215e-001
2.902390e+003,7.011449e-001
2.904319e+003,7.713665e-001
2.906247e+003,8.661260e-001
2.908176e+003,9.958183e-001
2.910104e+003,1.167814e+000
2.912033e+003,1.369302e+000
2.913961e+003,1.532299e+000
2.915890e+003,1.548585e+000
2.917818e+003,1.401859e+000
2.919747e+003,1.192208e+000
2.921675e+003,9.963794e-001
2.923604e+003,8.351102e-001
2.925532e+003,7.058572e-001
2.927461e+003,6.004933e-001
2.929389e+003,5.120093e-001
2.931318e+003,4.364812e-001
2.933246e+003,3.714871e-001
2.935175e+003,3.156375e-001
2.937103e+003,2.678494e-001
2.939032e+003,2.271558e-001
2.940960e+003,1.931095e-001
2.942889e+003,1.655664e-001
2.944817e+003,1.443756e-001
2.946746e+003,1.292350e-001
2.948674e+003,1.196939e-001
2.950603e+003,1.143944e-001
2.952531e+003,1.110064e-001
2.954460e+003,1.076623e-001
2.956388e+003,1.034731e-001
2.958317e+003,9.824048e-002
2.960245e+003,9.196861e-002
2.962174e+003,8.471039e-002
2.964102e+003,7.671526e-002
2.966031e+003,6.848955e-002
2.967959e+003,6.063404e-002
2.969888e+003,5.347495e-002
2.971816e+003,4.716207e-002
2.973745e+003,4.177354e-002
2.975673e+003,3.728762e-002
2.977602e+003,3.354022e-002
2.979530e+003,3.044228e-002
2.981459e+003,2.790545e-002
2.983387e+003,2.579802e-002
2.985316e+003,2.398322e-002
2.987244e+003,2.245628e-002
2.989173e+003,2.114953e-002
2.991101e+003,1.999338e-002
2.993030e+003,1.902090e-002
2.994958e+003,1.814653e-002
2.996887e+003,1.740322e-002
2.998815e+003,1.673986e-002
3.000744e+003,1.611124e-002
3.002672e+003,1.554225e-002
3.004601e+003,1.500474e-002
3.006529e+003,1.456530e-002
3.008458e+003,1.417334e-002
3.010386e+003,1.385250e-002
3.012315e+003,1.343525e-002
3.014243e+003,1.307083e-002
3.016172e+003,1.287699e-002
3.018100e+003,1.263874e-002
3.020029e+003,1.231860e-002
3.021957e+003,1.204406e-002
3.023886e+003,1.180954e-002
3.025814e+003,1.165184e-002
3.027743e+003,1.145849e-002
3.029671e+003,1.111471e-002
3.031600e+003,1.077680e-002
3.033528e+003,1.054612e-002
3.035457e+003,1.031980e-002
3.037385e+003,1.011798e-002
3.039314e+003,9.875744e-003
3.041242e+003,9.599087e-003
3.043171e+003,9.328173e-003
3.045099e+003,9.013707e-003
3.047028e+003,8.730176e-003
3.048956e+003,8.552083e-003
3.050885e+003,8.323806e-003
3.052813e+003,8.066381e-003
3.054742e+003,7.930235e-003
3.056670e+003,7.794932e-003
3.058599e+003,7.687990e-003
3.060527e+003,7.581821e-003
3.062456e+003,7.439669e-003
3.064384e+003,7.309096e-003
3.066313e+003,7.102431e-003
3.068241e+003,7.000505e-003
3.070170e+003,6.865062e-003
3.072098e+003,6.713817e-003
3.074027e+003,6.576001e-003
3.075955e+003,6.462109e-003
3.077884e+003,6.450285e-003
3.079812e+003,6.453605e-003
3.081741e+003,6.180056e-003
3.083669e+003,5.969265e-003
3.085598e+003,5.865857e-003
3.087526e+003,5.741718e-003
3.089455e+003,5.602840e-003
3.091383e+003,5.385092e-003
3.093312e+003,5.066410e-003
3.095240e+003,4.765481e-003
3.097169e+003,4.463827e-003
3.099097e+003,4.226165e-003
3.101026e+003,3.985173e-003
3.102954e+003,3.815552e-003
3.104883e+003,3.742904e-003
3.106811e+003,3.727129e-003
3.108740e+003,3.551714e-003
3.110668e+003,3.371581e-003
3.112597e+003,3.299091e-003
3.114525e+003,3.184414e-003
3.116454e+003,3.122298e-003
3.118382e+003,3.043552e-003
3.120311e+003,2.912874e-003
3.122239e+003,2.857569e-003
3.124168e+003,2.852853e-003
3.126096e+003,2.843283e-003
3.128025e+003,2.818746e-003
3.129953e+003,2.824402e-003
3.131882e+003,2.858650e-003
3.133810e+003,2.775295e-003
3.135739e+003,2.775026e-003
3.137667e+003,2.831319e-003
3.139596e+003,2.794962e-003
3.141524e+003,2.752964e-003
3.143453e+003,2.688222e-003
3.145381e+003,2.722292e-003
3.147310e+003,2.784299e-003
3.149238e+003,2.781612e-003
3.151167e+003,2.782033e-003
3.153095e+003,2.823603e-003
3.155024e+003,2.865118e-003
3.156952e+003,2.876189e-003
3.158881e+003,2.862384e-003
3.160809e+003,2.842514e-003
3.162738e+003,2.825119e-003
3.164666e+003,2.896987e-003
3.166594e+003,2.888985e-003
3.168523e+003,2.878984e-003
3.170452e+003,2.944004e-003
3.172380e+003,3.034930e-003
3.174309e+003,3.038590e-003
3.176237e+003,3.077325e-003
3.178166e+003,3.206845e-003
3.180094e+003,3.343029e-003
3.182022e+003,3.343822e-003
3.183951e+003,3.334219e-003
3.185880e+003,3.379433e-003
3.187808e+003,3.409456e-003
3.189737e+003,3.375664e-003
3.191665e+003,3.336565e-003
3.193594e+003,3.402615e-003
3.195522e+003,3.359154e-003
3.197450e+003,3.322383e-003
3.199379e+003,3.398764e-003
3.201308e+003,3.495401e-003
3.203236e+003,3.593319e-003
3.205165e+003,3.549807e-003
3.207093e+003,3.582500e-003
3.209021e+003,3.650153e-003
3.210950e+003,3.617700e-003
3.212878e+003,3.671354e-003
3.214807e+003,3.651374e-003
3.216736e+003,3.598369e-003
3.218664e+003,3.669609e-003
3.220593e+003,3.762393e-003
3.222521e+003,3.886224e-003
3.224449e+003,3.848942e-003
3.226378e+003,3.778302e-003
3.228307e+003,3.808102e-003
3.230235e+003,3.793176e-003
3.232164e+003,3.806269e-003
3.234092e+003,3.866316e-003
3.236021e+003,3.887785e-003
3.237949e+003,4.035543e-003
3.239877e+003,4.181882e-003
3.241806e+003,4.249245e-003
3.243735e+003,4.299346e-003
3.245663e+003,4.304836e-003
3.247592e+003,4.300468e-003
3.249520e+003,4.391638e-003
3.251448e+003,4.493113e-003
3.253377e+003,4.593634e-003
3.255305e+003,4.701800e-003
3.257234e+003,4.864292e-003
3.259163e+003,4.964899e-003
3.261091e+003,5.062183e-003
3.263020e+003,5.139112e-003
3.264948e+003,5.148961e-003
3.266876e+003,5.214481e-003
3.268805e+003,5.308897e-003
3.270733e+003,5.389384e-003
3.272662e+003,5.530493e-003
3.274591e+003,5.586329e-003
3.276519e+003,5.656727e-003
3.278448e+003,5.797172e-003
3.280376e+003,5.859432e-003
3.282304e+003,5.876648e-003
3.284233e+003,5.838106e-003
3.286161e+003,5.909602e-003
3.288090e+003,6.037564e-003
3.290019e+003,6.003805e-003
3.291947e+003,6.014382e-003
3.293875e+003,6.062513e-003
3.295804e+003,6.047529e-003
3.297732e+003,6.034593e-003
3.299661e+003,6.084329e-003
3.301589e+003,6.142735e-003
3.303518e+003,6.132867e-003
3.305447e+003,6.146354e-003
3.307375e+003,6.158321e-003
3.309303e+003,6.128083e-003
3.311232e+003,6.042876e-003
3.313160e+003,5.922647e-003
3.315089e+003,5.885083e-003
3.317018e+003,5.810758e-003
3.318946e+003,5.727021e-003
3.320875e+003,5.756076e-003
3.322803e+003,5.860798e-003
3.324731e+003,5.881386e-003
3.326660e+003,5.798565e-003
3.328588e+003,5.769089e-003
3.330517e+003,5.655401e-003
3.332446e+003,5.662239e-003
3.334374e+003,5.719748e-003
3.336302e+003,5.600527e-003
3.338231e+003,5.573689e-003
3.340159e+003,5.543284e-003
3.342088e+003,5.553134e-003
3.344016e+003,5.515047e-003
3.345945e+003,5.417449e-003
3.347874e+003,5.297848e-003
3.349802e+003,5.233978e-003
3.351730e+003,5.174015e-003
3.353659e+003,5.241462e-003
3.355587e+003,5.290696e-003
3.357516e+003,5.295735e-003
3.359444e+003,5.223218e-003
3.361373e+003,5.172483e-003
3.363302e+003,5.197439e-003
3.365230e+003,5.160511e-003
3.367158e+003,5.065602e-003
3.369087e+003,4.970139e-003
3.371015e+003,4.915972e-003
3.372944e+003,4.929680e-003
3.374872e+003,4.920776e-003
3.376801e+003,4.888997e-003
3.378729e+003,4.812329e-003
3.380658e+003,4.704093e-003
3.382586e+003,4.601878e-003
3.384515e+003,4.466030e-003
3.386443e+003,4.399785e-003
3.388372e+003,4.427077e-003
3.390300e+003,4.506217e-003
3.392229e+003,4.444118e-003
3.394157e+003,4.326824e-003
3.396086e+003,4.344923e-003
3.398014e+003,4.238649e-003
3.399943e+003,4.170635e-003
3.401871e+003,4.137347e-003
3.403800e+003,4.142661e-003
3.405728e+003,4.154946e-003
3.407657e+003,4.096271e-003
3.409585e+003,3.885848e-003
3.411514e+003,3.868719e-003
3.413442e+003,3.957565e-003
3.415371e+003,3.991957e-003
3.417299e+003,3.941011e-003
3.419228e+003,3.861116e-003
3.421156e+003,3.787113e-003
3.423085e+003,3.628880e-003
3.425013e+003,3.523251e-003
3.426942e+003,3.613104e-003
3.428870e+003,3.612889e-003
3.430799e+003,3.496076e-003
3.432727e+003,3.444708e-003
3.434656e+003,3.438263e-003
3.436584e+003,3.348361e-003
3.438513e+003,3.270270e-003
3.440441e+003,3.309215e-003
3.442370e+003,3.336388e-003
3.444298e+003,3.302232e-003
3.446227e+003,3.361143e-003
3.448155e+003,3.219571e-003
3.450084e+003,3.113355e-003
3.452012e+003,3.063610e-003
3.453941e+003,3.011184e-003
3.455869e+003,2.975343e-003
3.457798e+003,2.919269e-003
3.459726e+003,2.938898e-003
3.461655e+003,2.862069e-003
3.463583e+003,2.700516e-003
3.465512e+003,2.574333e-003
3.467440e+003,2.460249e-003
3.469369e+003,2.496348e-003
3.471297e+003,2.492998e-003
3.473226e+003,2.436386e-003
3.475154e+003,2.381657e-003
3.477083e+003,2.355412e-003
3.479011e+003,2.363429e-003
3.480940e+003,2.372142e-003
3.482868e+003,2.268784e-003
3.484797e+003,2.201962e-003
3.486725e+003,2.000584e-003
3.488654e+003,1.796591e-003
3.490582e+003,1.844105e-003
3.492511e+003,1.871642e-003
3.494439e+003,1.819959e-003
3.496368e+003,1.787580e-003
3.498296e+003,1.684367e-003
3.500225e+003,1.798266e-003
3.502153e+003,2.047714e-003
3.504082e+003,1.797528e-003
3.506010e+003,1.576218e-003
3.507939e+003,1.564040e-003
3.509867e+003,1.387719e-003
3.511796e+003,1.364658e-003
3.513724e+003,1.406756e-003
3.515653e+003,1.313120e-003
3.517581e+003,1.250215e-003
3.519510e+003,1.255890e-003
3.521438e+003,1.331769e-003
3.523367e+003,1.336215e-003
3.525295e+003,1.164909e-003
3.527224e+003,1.124749e-003
3.529152e+003,8.571250e-004
3.531081e+003,6.701974e-004
3.533009e+003,6.634491e-004
3.534938e+003,8.049197e-004
3.536866e+003,7.905429e-004
3.538795e+003,6.077085e-004
3.540723e+003,7.441221e-004
3.542652e+003,9.026341e-004
3.544580e+003,8.457638e-004
3.546509e+003,5.546026e-004
3.548437e+003,2.357131e-004
3.550366e+003,3.060708e-004
3.552294e+003,3.866823e-004
3.554223e+003,1.558019e-004
3.556151e+003,-8.115731e-005
3.558080e+003,-6.519258e-008
3.560008e+003,3.062086e-004
3.561937e+003,3.857408e-004
3.563865e+003,3.557298e-004
3.565794e+003,3.402466e-004
3.567722e+003,-9.624287e-006
3.569651e+003,-4.252531e-004
3.571579e+003,-6.103599e-004
3.573508e+003,-4.745489e-004
3.575436e+003,-2.746647e-004
3.577365e+003,-2.867812e-004
3.579293e+003,-3.048033e-004
3.581222e+003,-3.589261e-004
3.583150e+003,-1.877928e-004
3.585079e+003,2.326481e-004
3.587007e+003,3.453959e-004
3.588936e+003,-6.698910e-005
3.590864e+003,1.743063e-005
3.592793e+003,3.458150e-004
3.594721e+003,4.872829e-004
3.596650e+003,7.811775e-004
3.598578e+003,1.385923e-003
3.600507e+003,1.653603e-003
3.602435e+003,1.590388e-003
3.604364e+003,1.897241e-003
3.606292e+003,2.160954e-003
3.608221e+003,1.950708e-003
3.610149e+003,1.569121e-003
3.612078e+003,1.185190e-003
3.614006e+003,5.470905e-004
3.615935e+003,3.615711e-004
3.617863e+003,1.801616e-004
3.619792e+003,-1.913104e-004
3.621720e+003,1.502689e-005
3.623649e+003,2.346225e-004
3.625577e+003,5.226778e-004
3.627506e+003,8.642860e-004
3.629434e+003,4.334841e-005
3.631363e+003,-2.710270e-004
3.633291e+003,-2.622185e-004
3.635220e+003,-3.340775e-004
3.637148e+003,-2.939189e-004
3.639077e+003,-3.075236e-004
3.641005e+003,-1.267903e-004
3.642934e+003,-2.011377e-005
3.644862e+003,4.070019e-004
3.646791e+003,8.018790e-004
3.648719e+003,2.433024e-004
3.650648e+003,-7.123146e-004
3.652576e+003,-9.570476e-004
3.654505e+003,-7.132748e-004
3.656433e+003,-1.144690e-003
3.658362e+003,-1.311854e-003
3.660290e+003,-1.072036e-003
3.662219e+003,-8.812323e-004
3.664147e+003,-8.646268e-004
3.666076e+003,-6.888183e-004
3.668004e+003,-1.574559e-004
3.669933e+003,-6.392831e-004
3.671861e+003,-1.140210e-003
3.673790e+003,-1.070987e-003
3.675718e+003,-2.295281e-003
3.677647e+003,-1.878605e-003
3.679575e+003,-1.276959e-003
3.681504e+003,-1.131457e-003
3.683432e+003,-1.038533e-003
3.685361e+003,-7.953076e-004
3.687289e+003,-6.009629e-004
3.689218e+003,-9.538271e-004
3.691146e+003,-1.228025e-003
3.693075e+003,-1.407063e-003
3.695003e+003,-1.364601e-003
3.696932e+003,-1.402519e-003
3.698860e+003,-1.109103e-003
3.700789e+003,-6.169565e-004
3.702717e+003,-8.029230e-004
3.704646e+003,-9.763855e-004
3.706574e+003,-9.091552e-004
3.708503e+003,-9.081485e-004
3.710431e+003,-8.504614e-004
3.712360e+003,-9.458549e-004
3.714288e+003,-1.053206e-003
3.716217e+003,-9.615049e-004
3.718145e+003,-9.961491e-004
3.720074e+003,-9.361636e-004
3.722002e+003,-7.262398e-004
3.723931e+003,-6.543947e-004
3.725859e+003,-5.686078e-004
3.727788e+003,-9.379918e-004
3.729716e+003,-7.571094e-004
3.731645e+003,-6.110445e-004
3.733573e+003,-5.598543e-004
3.735502e+003,-6.948505e-004
3.737430e+003,-1.046420e-003
3.739359e+003,-1.161216e-003
3.741287e+003,-9.477679e-004
3.743216e+003,-5.531209e-004
3.745144e+003,-6.776229e-004
3.747073e+003,-3.946694e-004
3.749001e+003,-6.688656e-004
3.750930e+003,-1.182626e-003
3.752858e+003,-1.438241e-003
3.754787e+003,-1.156469e-003
3.756715e+003,-6.795237e-004
3.758644e+003,-5.569970e-004
3.760572e+003,-7.736702e-004
3.762501e+003,-7.368131e-004
3.764429e+003,-5.551251e-004
3.766358e+003,-8.432046e-004
3.768286e+003,-8.134069e-004
3.770215e+003,-8.780565e-004
3.772143e+003,-8.858889e-004
3.774072e+003,-6.506331e-004
3.776000e+003,-3.851289e-004
3.777929e+003,-1.026317e-004
3.779857e+003,-4.272209e-004
3.781786e+003,-5.529290e-004
3.783714e+003,-4.993128e-004
3.785643e+003,-6.804196e-004
3.787571e+003,-5.530957e-004
3.789500e+003,-6.084889e-004
3.791428e+003,-6.755488e-004
3.793357e+003,-3.544874e-004
3.795285e+003,3.461447e-005
3.797214e+003,-6.240327e-005
3.799142e+003,8.557085e-005
3.801071e+003,5.134474e-005
3.802999e+003,-8.629458e-004
3.804927e+003,-7.184902e-004
3.806856e+003,-7.554246e-004
3.808785e+003,-5.909400e-004
3.810713e+003,-7.387530e-005
3.812642e+003,3.537815e-004
3.814570e+003,7.749433e-004
3.816499e+003,3.418820e-004
3.818427e+003,5.121091e-004
3.820355e+003,1.422353e-004
3.822284e+003,-9.962954e-004
3.824213e+003,-3.395285e-004
3.826141e+003,1.154151e-004
3.828070e+003,9.583309e-007
3.829998e+003,4.100464e-004
3.831927e+003,7.401910e-004
3.833855e+003,6.810548e-004
3.835783e+003,6.556185e-004
3.837712e+003,5.059298e-004
3.839641e+003,2.280362e-004
3.841569e+003,6.130245e-005
3.843498e+003,6.855652e-005
3.845426e+003,2.591908e-004
3.847354e+003,5.183946e-004
3.849283e+003,8.337377e-004
3.851211e+003,1.618646e-003
3.853140e+003,1.183579e-003
3.855069e+003,2.758857e-005
3.856997e+003,-9.899680e-005
3.858926e+003,-1.183851e-004
3.860854e+003,3.607227e-004
3.862782e+003,9.051468e-004
3.864711e+003,9.117052e-004
3.866640e+003,6.639389e-004
3.868568e+003,7.382259e-004
3.870497e+003,1.550019e-004
3.872425e+003,3.140867e-004
3.874354e+003,1.926497e-004
3.876282e+003,1.468537e-004
3.878210e+003,7.720459e-004
3.880139e+003,1.042997e-003
3.882068e+003,7.978436e-004
3.883996e+003,1.043463e-003
3.885925e+003,5.195392e-004
3.887853e+003,1.937300e-004
3.889781e+003,7.061828e-004
3.891710e+003,6.892988e-004
3.893638e+003,3.214618e-004
3.895567e+003,6.647212e-004
3.897496e+003,1.207879e-003
3.899424e+003,1.301030e-003
3.901353e+003,1.181833e-003
3.903281e+003,9.600641e-004
3.905209e+003,3.437409e-004
3.907138e+003,1.317365e-004
3.909066e+003,3.126515e-004
3.910995e+003,5.680313e-004
3.912924e+003,7.353229e-004
3.914852e+003,1.114528e-003
3.916781e+003,1.087501e-003
3.918709e+003,7.599927e-004
3.920637e+003,5.798349e-004
3.922566e+003,7.571112e-004
3.924494e+003,8.632699e-004
3.926423e+003,5.583363e-004
3.928352e+003,6.371522e-004
3.930280e+003,5.928082e-004
3.932208e+003,3.577182e-004
3.934137e+003,1.374679e-004
3.936065e+003,1.875293e-004
3.937994e+003,1.767585e-004
3.939922e+003,2.324749e-004
3.941851e+003,3.673853e-004
3.943780e+003,1.641316e-004
3.945708e+003,2.830038e-004
3.947636e+003,4.935004e-004
3.949565e+003,3.519654e-004
3.951493e+003,1.746109e-004
3.953422e+003,1.822822e-004
3.955351e+003,3.067954e-004
3.957279e+003,3.029257e-004
3.959208e+003,4.207054e-004
3.961136e+003,4.452225e-004
3.963064e+003,3.291676e-004
3.964993e+003,3.523547e-004
3.966921e+003,4.610997e-004
3.968850e+003,4.915679e-004
3.970779e+003,4.487457e-004
3.972707e+003,4.252642e-004
3.974635e+003,4.991340e-004
3.976564e+003,4.891530e-004
3.978492e+003,4.381025e-004
3.980421e+003,4.866179e-004
3.982349e+003,4.582293e-004
3.984278e+003,3.798902e-004
3.986207e+003,3.666645e-004
3.988135e+003,3.055613e-004
3.990063e+003,3.053080e-004
3.991992e+003,3.573066e-004
3.993920e+003,4.354315e-004
3.995849e+003,3.079604e-004
3.997777e+003,2.129255e-004
3.999706e+003,2.978100e-004
4.001635e+003,0.000000e+000
