3.991992e+002,0.000000e+000
4.011277e+002,0.000000e+000
4.030562e+002,0.000000e+000
4.049846e+002,0.000000e+000
4.069131e+002,0.000000e+000
4.088416e+002,0.000000e+000
4.107701e+002,0.000000e+000
4.126986e+002,0.000000e+000
4.146271e+002,0.000000e+000
4.165556e+002,0.000000e+000
4.184841e+002,0.000000e+000
4.204126e+002,0.000000e+000
4.223411e+002,0.000000e+000
4.242697e+002,0.000000e+000
4.261982e+002,0.000000e+000
4.281266e+002,0.000000e+000
4.300551e+002,0.000000e+000
4.319836e+002,0.000000e+000
4.339121e+002,0.000000e+000
4.358406e+002,0.000000e+000
4.377691e+002,0.000000e+000
4.396976e+002,0.000000e+000
4.416261e+002,0.000000e+000
4.435546e+002,0.000000e+000
4.454831e+002,0.000000e+000
4.474116e+002,0.000000e+000
4.493401e+002,0.000000e+000
4.512686e+002,0.000000e+000
4.531971e+002,0.000000e+000
4.551256e+002,0.000000e+000
4.570541e+002,0.000000e+000
4.589826e+002,0.000000e+000
4.609111e+002,0.000000e+000
4.628396e+002,0.000000e+000
4.647681e+002,0.000000e+000
4.666966e+002,0.000000e+000
4.686251e+002,0.000000e+000
4.705536e+002,0.000000e+000
4.724821e+002,0.000000e+000
4.744106e+002,0.000000e+000
4.763391e+002,0.000000e+000
4.782676e+002,0.000000e+000
4.801961e+002,0.000000e+000
4.821246e+002,0.000000e+000
4.840531e+002,0.000000e+000
4.859816e+002,0.000000e+000
4.879101e+002,0.000000e+000
4.898386e+002,0.000000e+000
4.917671e+002,0.000000e+000
4.936956e+002,0.000000e+000
4.956241e+002,0.000000e+000
4.975526e+002,0.000000e+000
4.994811e+002,0.000000e+000
5.014096e+002,0.000000e+000
5.033381e+002,0.000000e+000
5.052666e+002,0.000000e+000
5.071951e+002,0.000000e+000
5.091236e+002,0.000000e+000
5.110521e+002,0.000000e+000
5.129806e+002,0.000000e+000
5.149091e+002,0.000000e+000
5.168376e+002,0.000000e+000
5.187661e+002,0.000000e+000
5.206946e+002,0.000000e+000
5.226230e+002,0.000000e+000
5.245516e+002,2.869358e-005
5.264800e+002,1.198191e-004
5.284086e+002,-2.412545e-005
5.303370e+002,-6.665755e-005
5.322656e+002,1.575926e-004
5.341940e+002,9.645848e-005
5.361226e+002,1.367624e-005
5.380510e+002,1.060164e-004
5.399796e+002,1.204307e-004
5.419081e+002,-3.826083e-005
5.438365e+002,-9.173295e-006
5.457650e+002,-1.521353e-004
5.476935e+002,-1.507939e-004
5.496221e+002,1.061794e-004
5.515505e+002,1.914259e-004
5.534790e+002,2.795192e-004
5.554075e+002,2.177365e-004
5.573361e+002,-4.884717e-005
5.592645e+002,-1.368206e-005
5.611931e+002,7.129996e-005
5.631215e+002,1.277311e-004
5.650500e+002,1.610096e-004
5.669785e+002,2.152033e-004
5.689070e+002,1.997796e-004
5.708355e+002,2.825591e-004
5.727640e+002,2.574727e-004
5.746925e+002,2.293715e-004
5.766210e+002,3.238013e-004
5.785495e+002,3.404433e-004
5.804780e+002,3.216949e-004
5.824065e+002,2.622313e-004
5.843350e+002,9.097229e-005
5.862635e+002,1.084046e-004
5.881920e+002,1.436311e-004
5.901205e+002,1.698227e-004
5.920490e+002,1.010634e-004
5.939775e+002,8.953735e-006
5.959060e+002,2.146419e-005
5.978345e+002,1.670169e-004
5.997630e+002,2.590034e-004
6.016915e+002,2.428722e-004
6.036200e+002,1.902909e-004
6.055485e+002,1.016287e-004
6.074770e+002,-4.913076e-005
6.094055e+002,-1.564382e-004
6.113340e+002,-1.342553e-004
6.132625e+002,-9.956793e-005
6.151910e+002,-8.373312e-005
6.171195e+002,-1.631675e-004
6.190480e+002,-2.681524e-004
6.209765e+002,-1.865469e-004
6.229050e+002,-1.223392e-004
6.248335e+002,-9.596418e-005
6.267620e+002,-1.038346e-004
6.286905e+002,-8.947542e-005
6.306190e+002,4.634471e-005
6.325475e+002,2.564737e-004
6.344760e+002,3.380987e-004
6.364045e+002,4.202311e-004
6.383330e+002,3.369970e-004
6.402615e+002,2.852092e-004
6.421899e+002,3.360850e-004
6.441185e+002,4.246894e-004
6.460470e+002,4.420832e-004
6.479755e+002,5.860666e-004
6.499039e+002,6.224287e-004
6.518325e+002,6.565771e-004
6.537610e+002,6.313517e-004
6.556895e+002,7.758420e-004
6.576179e+002,8.470274e-004
6.595464e+002,7.900458e-004
6.614750e+002,7.744231e-004
6.634034e+002,9.198631e-004
6.653319e+002,9.748135e-004
6.672604e+002,1.126827e-003
6.691890e+002,1.418073e-003
6.711174e+002,1.566315e-003
6.730460e+002,1.627755e-003
6.749745e+002,1.781222e-003
6.769030e+002,1.853622e-003
6.788314e+002,1.974097e-003
6.807599e+002,2.170523e-003
6.826885e+002,2.520076e-003
6.846169e+002,2.739031e-003
6.865454e+002,3.054733e-003
6.884739e+002,3.407178e-003
6.904025e+002,3.723113e-003
6.923309e+002,4.055023e-003
6.942594e+002,4.615859e-003
6.961879e+002,5.152330e-003
6.981165e+002,5.836992e-003
7.000449e+002,6.766815e-003
7.019734e+002,8.028663e-003
7.039019e+002,9.503246e-003
7.058304e+002,1.160766e-002
7.077589e+002,1.462745e-002
7.096874e+002,1.919476e-002
7.116159e+002,2.674207e-002
7.135444e+002,4.140095e-002
7.154729e+002,6.555645e-002
7.174014e+002,9.257476e-002
7.193299e+002,1.027118e-001
7.212584e+002,8.105439e-002
7.231869e+002,5.774231e-002
7.251154e+002,4.962692e-002
7.270439e+002,5.469405e-002
7.289724e+002,6.795978e-002
7.309009e+002,6.156316e-002
7.328294e+002,3.587935e-002
7.347579e+002,1.989482e-002
7.366864e+002,1.402697e-002
7.386149e+002,1.131418e-002
7.405434e+002,9.602921e-003
7.424719e+002,8.500944e-003
7.444004e+002,7.646072e-003
7.463289e+002,6.948517e-003
7.482574e+002,6.325301e-003
7.501859e+002,5.891621e-003
7.521144e+002,5.516283e-003
7.540428e+002,5.134465e-003
7.559714e+002,4.823693e-003
7.578999e+002,4.659082e-003
7.598284e+002,4.518948e-003
7.617568e+002,4.372572e-003
7.636854e+002,4.250444e-003
7.656139e+002,4.283696e-003
7.675424e+002,4.313114e-003
7.694709e+002,4.138856e-003
7.713994e+002,3.904446e-003
7.733279e+002,3.708528e-003
7.752563e+002,3.543756e-003
7.771849e+002,3.467610e-003
7.791134e+002,3.342428e-003
7.810419e+002,3.155510e-003
7.829703e+002,3.081676e-003
7.848989e+002,2.898624e-003
7.868274e+002,2.691912e-003
7.887559e+002,2.655763e-003
7.906843e+002,2.716357e-003
7.926129e+002,2.750849e-003
7.945414e+002,2.784060e-003
7.964698e+002,2.730376e-003
7.983983e+002,2.674832e-003
8.003268e+002,2.660263e-003
8.022554e+002,2.627644e-003
8.041838e+002,2.568923e-003
8.061123e+002,2.569704e-003
8.080408e+002,2.557442e-003
8.099694e+002,2.533815e-003
8.118978e+002,2.451624e-003
8.138263e+002,2.423903e-003
8.157548e+002,2.385418e-003
8.176833e+002,2.394344e-003
8.196118e+002,2.371137e-003
8.215403e+002,2.379614e-003
8.234689e+002,2.326720e-003
8.253973e+002,2.249806e-003
8.273258e+002,2.297306e-003
8.292543e+002,2.392501e-003
8.311829e+002,2.277546e-003
8.331113e+002,2.173640e-003
8.350398e+002,2.217060e-003
8.369683e+002,2.301632e-003
8.388969e+002,2.338143e-003
8.408253e+002,2.401332e-003
8.427538e+002,2.439540e-003
8.446823e+002,2.504848e-003
8.466108e+002,2.557810e-003
8.485393e+002,2.590209e-003
8.504678e+002,2.667398e-003
8.523963e+002,2.772563e-003
8.543248e+002,2.727257e-003
8.562533e+002,2.683325e-003
8.581818e+002,2.628542e-003
8.601103e+002,2.685415e-003
8.620388e+002,2.696138e-003
8.639673e+002,2.757488e-003
8.658958e+002,2.801727e-003
8.678243e+002,2.836808e-003
8.697528e+002,2.830450e-003
8.716813e+002,2.924523e-003
8.736098e+002,3.002354e-003
8.755383e+002,3.065565e-003
8.774668e+002,3.064784e-003
8.793953e+002,3.110014e-003
8.813238e+002,3.302641e-003
8.832523e+002,3.559027e-003
8.851808e+002,3.834235e-003
8.871093e+002,3.995262e-003
8.890378e+002,3.980013e-003
8.909663e+002,3.891200e-003
8.928948e+002,3.675114e-003
8.948232e+002,3.476258e-003
8.967518e+002,3.363578e-003
8.986803e+002,3.379332e-003
9.006088e+002,3.328203e-003
9.025372e+002,3.332995e-003
9.044658e+002,3.512741e-003
9.063943e+002,3.788361e-003
9.083228e+002,3.872503e-003
9.102512e+002,3.725311e-003
9.121797e+002,3.510190e-003
9.141083e+002,3.383269e-003
9.160367e+002,3.226063e-003
9.179653e+002,3.208456e-003
9.198937e+002,3.158019e-003
9.218223e+002,3.138082e-003
9.237507e+002,3.148954e-003
9.256793e+002,3.170572e-003
9.276077e+002,3.241390e-003
9.295363e+002,3.315974e-003
9.314647e+002,3.345142e-003
9.333932e+002,3.431305e-003
9.353217e+002,3.433142e-003
9.372502e+002,3.444438e-003
9.391787e+002,3.462030e-003
9.411072e+002,3.554489e-003
9.430358e+002,3.627062e-003
9.449642e+002,3.698001e-003
9.468928e+002,3.789749e-003
9.488212e+002,3.901556e-003
9.507498e+002,3.948314e-003
9.526782e+002,4.055752e-003
9.546068e+002,4.096874e-003
9.565352e+002,4.158962e-003
9.584637e+002,4.290231e-003
9.603922e+002,4.494967e-003
9.623207e+002,4.564290e-003
9.642492e+002,4.679040e-003
9.661777e+002,4.713503e-003
9.681062e+002,4.705173e-003
9.700347e+002,4.635069e-003
9.719632e+002,4.578914e-003
9.738917e+002,4.494843e-003
9.758202e+002,4.464206e-003
9.777487e+002,4.433348e-003
9.796772e+002,4.477377e-003
9.816057e+002,4.523299e-003
9.835342e+002,4.621760e-003
9.854627e+002,4.690332e-003
9.873912e+002,4.752782e-003
9.893197e+002,4.783435e-003
9.912482e+002,4.859678e-003
9.931767e+002,4.902871e-003
9.951052e+002,5.035951e-003
9.970337e+002,5.058943e-003
9.989622e+002,5.099237e-003
1.000891e+003,5.121047e-003
1.002819e+003,5.197192e-003
1.004748e+003,5.295357e-003
1.006676e+003,5.433992e-003
1.008605e+003,5.524475e-003
1.010533e+003,5.654234e-003
1.012462e+003,5.775623e-003
1.014390e+003,5.966020e-003
1.016319e+003,6.102565e-003
1.018247e+003,6.278300e-003
1.020176e+003,6.383355e-003
1.022104e+003,6.452281e-003
1.024033e+003,6.485694e-003
1.025961e+003,6.650518e-003
1.027890e+003,6.775418e-003
1.029818e+003,6.885193e-003
1.031747e+003,6.914373e-003
1.033675e+003,6.969789e-003
1.035604e+003,6.908770e-003
1.037532e+003,6.935357e-003
1.039461e+003,6.973258e-003
1.041389e+003,7.041701e-003
1.043318e+003,7.038895e-003
1.045246e+003,7.123229e-003
1.047175e+003,7.307387e-003
1.049103e+003,7.614101e-003
1.051032e+003,7.811564e-003
1.052960e+003,7.947482e-003
1.054889e+003,8.075544e-003
1.056817e+003,8.279867e-003
1.058746e+003,8.477991e-003
1.060674e+003,8.703614e-003
1.062603e+003,8.861090e-003
1.064531e+003,9.020434e-003
1.066460e+003,9.087216e-003
1.068388e+003,9.196995e-003
1.070317e+003,9.337796e-003
1.072245e+003,9.607308e-003
1.074174e+003,1.001476e-002
1.076102e+003,1.052819e-002
1.078031e+003,1.106161e-002
1.079959e+003,1.161477e-002
1.081888e+003,1.208097e-002
1.083816e+003,1.247241e-002
1.085745e+003,1.274356e-002
1.087673e+003,1.311093e-002
1.089602e+003,1.350622e-002
1.091530e+003,1.387751e-002
1.093459e+003,1.411493e-002
1.095387e+003,1.423368e-002
1.097316e+003,1.415647e-002
1.099244e+003,1.403192e-002
1.101173e+003,1.374095e-002
1.103101e+003,1.351285e-002
1.105030e+003,1.324248e-002
1.106958e+003,1.301813e-002
1.108887e+003,1.297377e-002
1.110815e+003,1.321786e-002
1.112744e+003,1.353507e-002
1.114672e+003,1.394380e-002
1.116601e+003,1.424353e-002
1.118529e+003,1.439171e-002
1.120458e+003,1.430444e-002
1.122386e+003,1.395028e-002
1.124315e+003,1.334184e-002
1.126243e+003,1.290976e-002
1.128172e+003,1.278376e-002
1.130100e+003,1.301705e-002
1.132029e+003,1.355080e-002
1.133957e+003,1.452641e-002
1.135885e+003,1.567028e-002
1.137814e+003,1.690921e-002
1.139743e+003,1.804043e-002
1.141671e+003,1.896240e-002
1.143600e+003,1.956956e-002
1.145528e+003,2.013349e-002
1.147457e+003,2.066186e-002
1.149385e+003,2.125289e-002
1.151314e+003,2.192374e-002
1.153242e+003,2.273430e-002
1.155171e+003,2.347585e-002
1.157099e+003,2.418827e-002
1.159028e+003,2.467091e-002
1.160956e+003,2.494686e-002
1.162885e+003,2.499877e-002
1.164813e+003,2.485011e-002
1.166742e+003,2.438469e-002
1.168670e+003,2.380271e-002
1.170599e+003,2.306201e-002
1.172527e+003,2.229531e-002
1.174456e+003,2.151218e-002
1.176384e+003,2.077758e-002
1.178313e+003,1.991589e-002
1.180241e+003,1.901377e-002
1.182170e+003,1.820456e-002
1.184098e+003,1.758259e-002
1.186027e+003,1.702412e-002
1.187955e+003,1.657318e-002
1.189884e+003,1.608675e-002
1.191812e+003,1.561383e-002
1.193740e+003,1.517454e-002
1.195669e+003,1.478788e-002
1.197598e+003,1.439975e-002
1.199526e+003,1.413823e-002
1.201455e+003,1.388451e-002
1.203383e+003,1.373403e-002
1.205312e+003,1.363892e-002
1.207240e+003,1.368098e-002
1.209168e+003,1.374158e-002
1.211097e+003,1.382154e-002
1.213026e+003,1.385275e-002
1.214954e+003,1.397518e-002
1.216883e+003,1.410671e-002
1.218811e+003,1.436484e-002
1.220740e+003,1.461175e-002
1.222668e+003,1.491788e-002
1.224596e+003,1.521025e-002
1.226525e+003,1.551300e-002
1.228453e+003,1.574198e-002
1.230382e+003,1.607252e-002
1.232311e+003,1.635485e-002
1.234239e+003,1.662469e-002
1.236167e+003,1.673470e-002
1.238096e+003,1.681877e-002
1.240025e+003,1.676870e-002
1.241953e+003,1.662425e-002
1.243882e+003,1.630379e-002
1.245810e+003,1.590342e-002
1.247739e+003,1.535353e-002
1.249667e+003,1.486128e-002
1.251595e+003,1.443127e-002
1.253524e+003,1.422434e-002
1.255453e+003,1.414083e-002
1.257381e+003,1.415915e-002
1.259310e+003,1.408773e-002
1.261238e+003,1.399040e-002
1.263167e+003,1.374036e-002
1.265095e+003,1.355981e-002
1.267023e+003,1.334976e-002
1.268952e+003,1.321919e-002
1.270880e+003,1.308472e-002
1.272809e+003,1.303398e-002
1.274738e+003,1.296615e-002
1.276666e+003,1.303823e-002
1.278594e+003,1.310409e-002
1.280523e+003,1.316156e-002
1.282451e+003,1.302347e-002
1.284380e+003,1.291725e-002
1.286308e+003,1.285705e-002
1.288237e+003,1.297263e-002
1.290166e+003,1.304355e-002
1.292094e+003,1.332827e-002
1.294022e+003,1.363714e-002
1.295951e+003,1.403444e-002
1.297879e+003,1.425287e-002
1.299808e+003,1.445850e-002
1.301736e+003,1.450474e-002
1.303665e+003,1.451864e-002
1.305594e+003,1.437291e-002
1.307522e+003,1.424618e-002
1.309450e+003,1.391624e-002
1.311379e+003,1.371534e-002
1.313307e+003,1.344608e-002
1.315236e+003,1.306419e-002
1.317164e+003,1.270891e-002
1.319093e+003,1.243887e-002
1.321021e+003,1.184905e-002
1.322950e+003,1.132915e-002
1.324878e+003,1.089284e-002
1.326807e+003,1.065339e-002
1.328735e+003,1.050950e-002
1.330664e+003,1.058689e-002
1.332592e+003,1.078905e-002
1.334521e+003,1.141142e-002
1.336449e+003,1.238476e-002
1.338378e+003,1.388061e-002
1.340306e+003,1.465769e-002
1.342235e+003,1.458261e-002
1.344163e+003,1.485914e-002
1.346092e+003,1.560099e-002
1.348021e+003,1.637325e-002
1.349949e+003,1.713573e-002
1.351877e+003,1.745781e-002
1.353806e+003,1.761083e-002
1.355734e+003,1.750752e-002
1.357663e+003,1.756422e-002
1.359591e+003,1.799513e-002
1.361520e+003,1.922990e-002
1.363448e+003,2.044886e-002
1.365377e+003,2.104460e-002
1.367305e+003,2.190207e-002
1.369234e+003,2.262383e-002
1.371162e+003,2.251291e-002
1.373091e+003,2.341543e-002
1.375019e+003,2.589224e-002
1.376948e+003,2.719551e-002
1.378876e+003,2.524393e-002
1.380805e+003,2.035153e-002
1.382733e+003,1.559680e-002
1.384662e+003,1.285405e-002
1.386590e+003,1.151783e-002
1.388519e+003,1.027049e-002
1.390447e+003,9.139982e-003
1.392376e+003,8.945439e-003
1.394304e+003,9.324121e-003
1.396233e+003,9.549903e-003
1.398161e+003,9.303970e-003
1.400090e+003,9.217927e-003
1.402018e+003,8.693910e-003
1.403947e+003,9.048292e-003
1.405875e+003,8.935431e-003
1.407804e+003,8.783991e-003
1.409732e+003,8.955325e-003
1.411661e+003,9.739809e-003
1.413589e+003,1.020590e-002
1.415518e+003,1.120556e-002
1.417446e+003,1.217455e-002
1.419375e+003,1.296319e-002
1.421303e+003,1.223169e-002
1.423232e+003,1.304981e-002
1.425160e+003,1.426290e-002
1.427089e+003,1.591728e-002
1.429017e+003,1.883596e-002
1.430946e+003,2.310369e-002
1.432874e+003,2.631779e-002
1.434803e+003,2.965063e-002
1.436731e+003,3.361661e-002
1.438660e+003,3.626553e-002
1.440588e+003,3.763764e-002
1.442517e+003,4.016440e-002
1.444445e+003,4.236650e-002
1.446374e+003,4.565734e-002
1.448302e+003,5.004218e-002
1.450231e+003,5.602565e-002
1.452159e+003,6.515475e-002
1.454088e+003,7.684588e-002
1.456016e+003,8.876100e-002
1.457945e+003,1.100762e-001
1.459873e+003,1.426037e-001
1.461802e+003,1.805217e-001
1.463730e+003,1.887316e-001
1.465659e+003,1.564113e-001
1.467587e+003,1.431936e-001
1.469516e+003,1.400998e-001
1.471444e+003,1.554016e-001
1.473373e+003,1.314997e-001
1.475301e+003,7.204969e-002
1.477230e+003,3.381908e-002
1.479158e+003,2.222573e-002
1.481087e+003,1.669119e-002
1.483015e+003,1.394525e-002
1.484944e+003,1.191183e-002
1.486872e+003,1.196482e-002
1.488801e+003,1.136833e-002
1.490729e+003,1.058202e-002
1.492658e+003,8.241965e-003
1.494586e+003,8.176852e-003
1.496515e+003,8.240859e-003
1.498443e+003,8.257248e-003
1.500372e+003,7.066341e-003
1.502300e+003,6.843992e-003
1.504229e+003,6.526425e-003
1.506157e+003,9.198518e-003
1.508086e+003,9.218171e-003
1.510014e+003,7.537348e-003
1.511943e+003,6.118079e-003
1.513871e+003,6.073958e-003
1.515800e+003,6.734540e-003
1.517728e+003,7.315242e-003
1.519657e+003,6.645321e-003
1.521585e+003,8.019997e-003
1.523514e+003,6.591089e-003
1.525442e+003,6.263074e-003
1.527371e+003,5.752769e-003
1.529299e+003,5.188707e-003
1.531228e+003,4.816608e-003
1.533156e+003,6.013366e-003
1.535085e+003,5.350246e-003
1.537013e+003,5.091511e-003
1.538942e+003,6.455046e-003
1.540870e+003,8.960656e-003
1.542799e+003,6.981968e-003
1.544727e+003,6.037026e-003
1.546656e+003,4.415061e-003
1.548584e+003,4.466503e-003
1.550513e+003,4.664023e-003
1.552441e+003,4.599634e-003
1.554370e+003,5.045668e-003
1.556298e+003,5.487378e-003
1.558227e+003,6.634044e-003
1.560155e+003,5.972600e-003
1.562084e+003,3.831865e-003
1.564012e+003,3.705231e-003
1.565941e+003,3.603989e-003
1.567869e+003,3.730954e-003
1.569798e+003,4.241176e-003
1.571726e+003,3.688179e-003
1.573655e+003,3.190928e-003
1.575583e+003,4.187972e-003
1.577512e+003,4.109834e-003
1.579440e+003,3.104360e-003
1.581369e+003,2.689188e-003
1.583297e+003,2.784625e-003
1.585226e+003,2.716905e-003
1.587154e+003,2.798630e-003
1.589083e+003,2.886590e-003
1.591011e+003,2.969279e-003
1.592940e+003,2.865874e-003
1.594868e+003,3.052282e-003
1.596797e+003,2.933529e-003
1.598725e+003,2.825324e-003
1.600654e+003,2.834198e-003
1.602582e+003,3.067073e-003
1.604511e+003,2.945105e-003
1.606439e+003,3.026615e-003
1.608368e+003,3.117119e-003
1.610296e+003,3.088913e-003
1.612225e+003,2.859500e-003
1.614153e+003,3.075736e-003
1.616082e+003,3.986054e-003
1.618010e+003,4.141075e-003
1.619939e+003,3.254874e-003
1.621867e+003,3.599950e-003
1.623796e+003,4.193931e-003
1.625724e+003,3.674657e-003
1.627653e+003,3.538072e-003
1.629581e+003,3.498683e-003
1.631510e+003,3.278936e-003
1.633438e+003,3.650876e-003
1.635367e+003,5.374423e-003
1.637295e+003,5.364120e-003
1.639224e+003,3.941062e-003
1.641152e+003,3.773939e-003
1.643081e+003,3.909421e-003
1.645009e+003,4.632518e-003
1.646938e+003,6.403831e-003
1.648866e+003,5.596807e-003
1.650795e+003,4.670730e-003
1.652723e+003,6.258181e-003
1.654652e+003,5.933620e-003
1.656580e+003,4.361525e-003
1.658509e+003,3.666675e-003
1.660437e+003,3.720599e-003
1.662366e+003,4.050919e-003
1.664294e+003,3.748612e-003
1.666223e+003,3.392948e-003
1.668151e+003,4.179745e-003
1.670080e+003,4.828257e-003
1.672008e+003,4.116644e-003
1.673937e+003,3.707640e-003
1.675865e+003,3.963584e-003
1.677794e+003,3.574194e-003
1.679722e+003,4.062032e-003
1.681651e+003,4.446710e-003
1.683579e+003,5.631785e-003
1.685508e+003,5.134305e-003
1.687436e+003,4.242216e-003
1.689365e+003,4.066864e-003
1.691293e+003,3.822570e-003
1.693222e+003,3.628636e-003
1.695150e+003,5.064269e-003
1.697079e+003,6.285512e-003
1.699007e+003,5.900677e-003
1.700936e+003,6.227252e-003
1.702864e+003,5.818754e-003
1.704793e+003,5.946228e-003
1.706721e+003,6.533218e-003
1.708650e+003,6.266980e-003
1.710578e+003,6.587908e-003
1.712507e+003,7.276319e-003
1.714435e+003,8.736767e-003
1.716364e+003,9.932802e-003
1.718292e+003,1.058262e-002
1.720221e+003,9.823731e-003
1.722149e+003,1.005957e-002
1.724078e+003,1.104411e-002
1.726006e+003,1.185577e-002
1.727935e+003,1.327007e-002
1.729863e+003,1.623127e-002
1.731792e+003,1.865990e-002
1.733720e+003,2.372295e-002
1.735649e+003,2.914902e-002
1.737577e+003,3.215901e-002
1.739506e+003,3.914108e-002
1.741434e+003,4.599097e-002
1.743363e+003,5.159545e-002
1.745291e+003,5.551093e-002
1.747220e+003,5.689771e-002
1.749148e+003,5.464364e-002
1.751077e+003,4.784607e-002
1.753005e+003,3.893076e-002
1.754934e+003,3.205957e-002
1.756862e+003,2.469001e-002
1.758791e+003,1.842405e-002
1.760719e+003,1.447108e-002
1.762648e+003,1.067493e-002
1.764576e+003,7.796458e-003
1.766505e+003,6.405210e-003
1.768433e+003,5.881136e-003
1.770362e+003,5.603792e-003
1.772290e+003,5.700483e-003
1.774219e+003,4.417413e-003
1.776147e+003,3.291820e-003
1.778076e+003,2.801290e-003
1.780004e+003,3.106234e-003
1.781933e+003,2.714152e-003
1.783861e+003,2.363459e-003
1.785790e+003,2.142751e-003
1.787718e+003,1.852509e-003
1.789646e+003,2.018744e-003
1.791575e+003,3.028593e-003
1.793504e+003,2.748995e-003
1.795432e+003,2.189617e-003
1.797361e+003,1.816557e-003
1.799289e+003,2.004372e-003
1.801218e+003,2.076922e-003
1.803146e+003,1.516772e-003
1.805074e+003,1.073518e-003
1.807003e+003,1.166292e-003
1.808932e+003,1.240891e-003
1.810860e+003,1.365994e-003
1.812789e+003,8.635288e-004
1.814717e+003,2.159523e-004
1.816646e+003,-5.926378e-005
1.818574e+003,3.164657e-004
1.820502e+003,5.144952e-004
1.822431e+003,7.625846e-004
1.824360e+003,1.232633e-003
1.826288e+003,1.128961e-003
1.828217e+003,8.652289e-004
1.830145e+003,1.206131e-003
1.832073e+003,3.567962e-004
1.834002e+003,-1.266759e-004
1.835931e+003,-1.104765e-004
1.837859e+003,4.711561e-005
1.839788e+003,-2.528187e-004
1.841716e+003,7.045013e-005
1.843645e+003,9.126258e-004
1.845573e+003,9.887516e-004
1.847501e+003,2.635850e-004
1.849430e+003,-2.103082e-004
1.851359e+003,-5.312411e-004
1.853287e+003,-5.041384e-004
1.855216e+003,-6.844210e-004
1.857144e+003,-3.966000e-004
1.859073e+003,-4.000554e-004
1.861001e+003,-4.599774e-004
1.862929e+003,-5.775818e-004
1.864858e+003,-7.822365e-005
1.866787e+003,6.304863e-004
1.868715e+003,1.471511e-003
1.870644e+003,4.544286e-004
1.872572e+003,-3.227196e-004
1.874500e+003,-6.071865e-004
1.876429e+003,-5.938923e-004
1.878357e+003,-7.844598e-004
1.880286e+003,-7.592253e-004
1.882215e+003,-8.495220e-004
1.884143e+003,-5.659969e-004
1.886072e+003,-6.583850e-004
1.888000e+003,-5.123436e-004
1.889928e+003,-1.951633e-004
1.891857e+003,-2.622509e-004
1.893785e+003,-4.592233e-004
1.895714e+003,-1.568373e-004
1.897643e+003,-3.569834e-004
1.899571e+003,-3.107972e-004
1.901500e+003,-3.089025e-004
1.903428e+003,-3.070151e-004
1.905356e+003,-3.051369e-004
1.907285e+003,-3.032668e-004
1.909213e+003,-3.014049e-004
1.911142e+003,-2.995511e-004
1.913071e+003,-2.977056e-004
1.914999e+003,-2.958688e-004
1.916927e+003,-2.940402e-004
1.918856e+003,-2.922199e-004
1.920784e+003,-2.904078e-004
1.922713e+003,-2.886043e-004
1.924641e+003,-2.868087e-004
1.926570e+003,-2.850217e-004
1.928499e+003,-2.832424e-004
1.930427e+003,-2.814720e-004
1.932355e+003,-2.797102e-004
1.934284e+003,-2.779560e-004
1.936212e+003,-2.762103e-004
1.938141e+003,-2.744731e-004
1.940070e+003,-2.727439e-004
1.941998e+003,-2.710235e-004
1.943927e+003,-2.693112e-004
1.945855e+003,-2.676072e-004
1.947783e+003,-2.659112e-004
1.949712e+003,-2.642237e-004
1.951640e+003,-2.625447e-004
1.953569e+003,-2.608742e-004
1.955498e+003,-2.592115e-004
1.957426e+003,-2.575573e-004
1.959354e+003,-2.559116e-004
1.961283e+003,-2.542741e-004
1.963211e+003,-2.526445e-004
1.965140e+003,-2.510238e-004
1.967068e+003,-2.494110e-004
1.968997e+003,-2.478068e-004
1.970926e+003,-2.462105e-004
1.972854e+003,-2.446228e-004
1.974782e+003,-2.430435e-004
1.976711e+003,-2.414724e-004
1.978639e+003,-2.399096e-004
1.980568e+003,-2.383546e-004
1.982496e+003,-2.368086e-004
1.984425e+003,-2.352702e-004
1.986354e+003,-2.337408e-004
1.988282e+003,-2.322197e-004
1.990210e+003,-2.307068e-004
1.992139e+003,-2.292020e-004
1.994067e+003,-2.277056e-004
1.995996e+003,-2.262176e-004
1.997924e+003,-2.247381e-004
1.999853e+003,-2.232664e-004
2.001781e+003,-2.218033e-004
2.003710e+003,-2.203486e-004
2.005638e+003,-2.189022e-004
2.007567e+003,-2.174641e-004
2.009495e+003,-2.160340e-004
2.011424e+003,-2.146126e-004
2.013352e+003,-2.131991e-004
2.015281e+003,-2.117944e-004
2.017209e+003,-2.103974e-004
2.019138e+003,-2.090095e-004
2.021066e+003,-2.076293e-004
2.022995e+003,-2.062577e-004
2.024923e+003,-2.048942e-004
2.026852e+003,-2.035392e-004
2.028781e+003,-2.021922e-004
2.030709e+003,-2.008537e-004
2.032637e+003,-1.995235e-004
2.034566e+003,-1.982020e-004
2.036494e+003,-1.968881e-004
2.038423e+003,-1.955829e-004
2.040351e+003,-1.942862e-004
2.042280e+003,-1.929973e-004
2.044208e+003,-1.917172e-004
2.046137e+003,-1.904452e-004
2.048065e+003,-1.891814e-004
2.049994e+003,-1.879260e-004
2.051922e+003,-1.866794e-004
2.053851e+003,-1.854398e-004
2.055779e+003,-1.842096e-004
2.057708e+003,-1.829874e-004
2.059636e+003,-1.817737e-004
2.061565e+003,-1.805681e-004
2.063493e+003,-1.793711e-004
2.065422e+003,-1.781820e-004
2.067350e+003,-1.770016e-004
2.069279e+003,-1.758286e-004
2.071207e+003,-1.746649e-004
2.073136e+003,-1.735091e-004
2.075064e+003,-1.723617e-004
2.076993e+003,-1.712230e-004
2.078921e+003,-1.700921e-004
2.080850e+003,-1.689699e-004
2.082778e+003,-1.678558e-004
2.084707e+003,-1.667496e-004
2.086635e+003,-1.656520e-004
2.088564e+003,-1.645621e-004
2.090492e+003,-1.634813e-004
2.092421e+003,-1.624089e-004
2.094349e+003,-1.613447e-004
2.096278e+003,-1.602888e-004
2.098206e+003,-1.592408e-004
2.100135e+003,-1.582012e-004
2.102063e+003,-1.571702e-004
2.103992e+003,-1.561476e-004
2.105920e+003,-1.551332e-004
2.107849e+003,-1.541269e-004
2.109777e+003,-1.531295e-004
2.111706e+003,-1.521399e-004
2.113634e+003,-1.511581e-004
2.115563e+003,-1.501851e-004
2.117491e+003,-1.492209e-004
2.119420e+003,-1.482647e-004
2.121348e+003,-1.473168e-004
2.123277e+003,-1.463774e-004
2.125205e+003,-1.454456e-004
2.127134e+003,-1.445226e-004
2.129062e+003,-1.436074e-004
2.130991e+003,-1.427012e-004
2.132919e+003,-1.418032e-004
2.134848e+003,-1.409135e-004
2.136776e+003,-1.400320e-004
2.138705e+003,-1.391587e-004
2.140633e+003,-1.382937e-004
2.142562e+003,-1.374371e-004
2.144490e+003,-1.365887e-004
2.146419e+003,-1.357489e-004
2.148347e+003,-1.349172e-004
2.150276e+003,-1.340939e-004
2.152204e+003,-1.332788e-004
2.154133e+003,-1.324718e-004
2.156061e+003,-1.316734e-004
2.157990e+003,-1.308832e-004
2.159918e+003,-1.301013e-004
2.161847e+003,-1.293281e-004
2.163775e+003,-1.285630e-004
2.165704e+003,-1.278061e-004
2.167632e+003,-1.270578e-004
2.169561e+003,-1.263174e-004
2.171489e+003,-1.255856e-004
2.173418e+003,-1.248613e-004
2.175346e+003,-1.241462e-004
2.177275e+003,-1.234389e-004
2.179203e+003,-1.227404e-004
2.181132e+003,-1.220501e-004
2.183060e+003,-1.213681e-004
2.184989e+003,-1.206941e-004
2.186917e+003,-1.200282e-004
2.188846e+003,-1.193713e-004
2.190774e+003,-1.187222e-004
2.192703e+003,-1.180819e-004
2.194631e+003,-1.174491e-004
2.196560e+003,-1.168251e-004
2.198488e+003,-1.162095e-004
2.200417e+003,-1.156018e-004
2.202345e+003,-1.150030e-004
2.204274e+003,-1.144120e-004
2.206202e+003,-1.138297e-004
2.208131e+003,-1.132556e-004
2.210059e+003,-1.126900e-004
2.211988e+003,-1.121329e-004
2.213916e+003,-1.115836e-004
2.215845e+003,-1.110428e-004
2.217773e+003,-1.105098e-004
2.219702e+003,-1.099857e-004
2.221630e+003,-1.094695e-004
2.223559e+003,-1.089619e-004
2.225487e+003,-1.084628e-004
2.227416e+003,-1.079720e-004
2.229344e+003,-1.074891e-004
2.231273e+003,-1.070143e-004
2.233201e+003,-1.065482e-004
2.235130e+003,-1.060907e-004
2.237058e+003,-1.056411e-004
2.238987e+003,-1.052003e-004
2.240915e+003,-1.047673e-004
2.242844e+003,-1.043428e-004
2.244772e+003,-1.039263e-004
2.246701e+003,-1.035184e-004
2.248629e+003,-1.031186e-004
2.250558e+003,-1.027274e-004
2.252486e+003,-1.023442e-004
2.254415e+003,-1.019696e-004
2.256343e+003,-1.016031e-004
2.258272e+003,-1.012452e-004
2.260200e+003,-1.008958e-004
2.262129e+003,-1.005537e-004
2.264057e+003,-1.002210e-004
2.265986e+003,-9.989599e-005
2.267914e+003,-9.957957e-005
2.269843e+003,-9.927154e-005
2.271771e+003,-9.897142e-005
2.273700e+003,-9.867968e-005
2.275628e+003,-9.839586e-005
2.277557e+003,-9.812112e-005
2.279485e+003,-9.785453e-005
2.281414e+003,-9.759609e-005
2.283342e+003,-9.734603e-005
2.285271e+003,-9.710435e-005
2.287199e+003,-9.687128e-005
2.289128e+003,-9.664521e-005
2.291056e+003,-9.642844e-005
2.292985e+003,-9.622006e-005
2.294913e+003,-9.602006e-005
2.296842e+003,-9.582820e-005
2.298770e+003,-9.564450e-005
2.300699e+003,-9.546918e-005
2.302627e+003,-9.530131e-005
2.304556e+003,-9.514298e-005
2.306484e+003,-9.499211e-005
2.308413e+003,-9.485031e-005
2.310341e+003,-9.471690e-005
2.312270e+003,-9.459117e-005
2.314198e+003,-9.447406e-005
2.316127e+003,-9.436556e-005
2.318055e+003,-9.426498e-005
2.319984e+003,-9.417231e-005
2.321912e+003,-9.408849e-005
2.323841e+003,-9.401282e-005
2.325769e+003,-9.394577e-005
2.327698e+003,-9.388686e-005
2.329626e+003,-9.383634e-005
2.331555e+003,-9.379373e-005
2.333483e+003,-9.375927e-005
2.335412e+003,-9.373389e-005
2.337340e+003,-9.371620e-005
2.339269e+003,-9.370688e-005
2.341197e+003,-9.370642e-005
2.343126e+003,-9.371387e-005
2.345054e+003,-9.372993e-005
2.346983e+003,-9.375345e-005
2.348911e+003,-9.378581e-005
2.350840e+003,-9.382656e-005
2.352768e+003,-9.387569e-005
2.354697e+003,-9.393273e-005
2.356625e+003,-9.399885e-005
2.358554e+003,-9.407313e-005
2.360482e+003,-9.415508e-005
2.362411e+003,-9.424565e-005
2.364339e+003,-9.434414e-005
2.366268e+003,-9.445124e-005
2.368196e+003,-9.456719e-005
2.370125e+003,-9.469083e-005
2.372053e+003,-9.482284e-005
2.373982e+003,-9.496347e-005
2.375910e+003,-9.511225e-005
2.377839e+003,-9.526871e-005
2.379767e+003,-9.543402e-005
2.381696e+003,-9.560818e-005
2.383624e+003,-9.579002e-005
2.385553e+003,-9.598047e-005
2.387481e+003,-9.617885e-005
2.389410e+003,-9.638583e-005
2.391338e+003,-9.660050e-005
2.393267e+003,-9.682425e-005
2.395195e+003,-9.705615e-005
2.397124e+003,-9.729620e-005
2.399052e+003,-9.754463e-005
2.400981e+003,-1.651396e-004
2.402909e+003,-2.882718e-004
2.404838e+003,-2.515826e-004
2.406766e+003,6.207312e-005
2.408695e+003,2.888481e-004
2.410623e+003,1.418020e-004
2.412552e+003,2.089504e-004
2.414480e+003,3.745682e-004
2.416409e+003,5.316304e-004
2.418337e+003,4.473068e-004
2.420266e+003,3.282377e-004
2.422194e+003,1.946494e-004
2.424123e+003,1.869202e-004
2.426051e+003,1.066518e-004
2.427979e+003,1.938529e-004
2.429908e+003,2.840210e-004
2.431837e+003,2.150959e-004
2.433765e+003,1.973687e-004
2.435694e+003,2.788273e-004
2.437622e+003,2.399515e-004
2.439551e+003,2.776734e-004
2.441479e+003,3.100913e-004
2.443407e+003,3.895254e-004
2.445336e+003,4.829941e-004
2.447265e+003,6.651883e-004
2.449193e+003,6.613361e-004
2.451122e+003,5.803348e-004
2.453050e+003,5.284178e-004
2.454979e+003,6.752689e-004
2.456907e+003,5.054737e-004
2.458836e+003,2.988796e-004
2.460764e+003,1.799555e-004
2.462693e+003,2.604185e-004
2.464621e+003,3.574027e-004
2.466550e+003,5.386379e-004
2.468478e+003,5.689152e-004
2.470406e+003,6.174794e-004
2.472335e+003,7.375109e-004
2.474264e+003,9.845316e-004
2.476192e+003,9.848329e-004
2.478121e+003,8.082490e-004
2.480049e+003,7.437081e-004
2.481978e+003,8.280340e-004
2.483906e+003,8.994332e-004
2.485835e+003,9.228801e-004
2.487763e+003,8.442039e-004
2.489692e+003,1.007065e-003
2.491620e+003,1.070104e-003
2.493549e+003,1.094314e-003
2.495477e+003,1.173208e-003
2.497406e+003,1.310665e-003
2.499334e+003,1.263884e-003
2.501263e+003,1.359155e-003
2.503191e+003,1.470491e-003
2.505120e+003,1.509771e-003
2.507048e+003,1.419477e-003
2.508977e+003,1.359446e-003
2.510905e+003,1.294640e-003
2.512833e+003,1.336548e-003
2.514762e+003,1.415435e-003
2.516691e+003,1.523351e-003
2.518619e+003,1.716143e-003
2.520548e+003,1.961815e-003
2.522476e+003,2.024971e-003
2.524405e+003,2.007997e-003
2.526333e+003,1.957247e-003
2.528261e+003,2.071475e-003
2.530190e+003,2.118616e-003
2.532119e+003,2.175103e-003
2.534047e+003,2.137118e-003
2.535976e+003,2.106840e-003
2.537904e+003,2.218129e-003
2.539833e+003,2.335261e-003
2.541761e+003,2.297583e-003
2.543689e+003,2.536417e-003
2.545618e+003,2.712103e-003
2.547547e+003,2.694118e-003
2.549475e+003,2.731589e-003
2.551404e+003,3.071320e-003
2.553332e+003,3.203548e-003
2.555260e+003,3.306924e-003
2.557189e+003,3.290037e-003
2.559117e+003,3.264240e-003
2.561046e+003,3.378466e-003
2.562975e+003,3.481157e-003
2.564903e+003,3.454985e-003
2.566832e+003,3.684944e-003
2.568760e+003,3.832236e-003
2.570688e+003,3.977787e-003
2.572617e+003,4.134895e-003
2.574546e+003,4.294747e-003
2.576474e+003,4.356284e-003
2.578403e+003,4.382960e-003
2.580331e+003,4.487626e-003
2.582260e+003,4.764200e-003
2.584188e+003,4.997400e-003
2.586116e+003,5.191762e-003
2.588045e+003,5.617507e-003
2.589974e+003,5.853479e-003
2.591902e+003,5.772912e-003
2.593831e+003,5.942944e-003
2.595759e+003,6.043904e-003
2.597688e+003,6.405501e-003
2.599616e+003,6.684085e-003
2.601544e+003,6.880538e-003
2.603473e+003,7.110845e-003
2.605402e+003,7.478175e-003
2.607330e+003,7.808525e-003
2.609259e+003,7.993602e-003
2.611187e+003,8.086271e-003
2.613115e+003,8.380995e-003
2.615044e+003,8.764805e-003
2.616972e+003,9.128155e-003
2.618901e+003,9.389665e-003
2.620830e+003,9.862736e-003
2.622758e+003,1.036995e-002
2.624687e+003,1.078066e-002
2.626615e+003,1.100760e-002
2.628543e+003,1.130049e-002
2.630472e+003,1.161860e-002
2.632400e+003,1.199139e-002
2.634329e+003,1.224564e-002
2.636258e+003,1.232341e-002
2.638186e+003,1.234249e-002
2.640115e+003,1.241287e-002
2.642043e+003,1.240803e-002
2.643971e+003,1.231224e-002
2.645900e+003,1.237096e-002
2.647828e+003,1.252366e-002
2.649757e+003,1.267337e-002
2.651686e+003,1.289935e-002
2.653614e+003,1.302921e-002
2.655542e+003,1.309852e-002
2.657471e+003,1.313860e-002
2.659399e+003,1.311342e-002
2.661328e+003,1.305534e-002
2.663256e+003,1.283962e-002
2.665185e+003,1.267451e-002
2.667114e+003,1.259426e-002
2.669042e+003,1.243977e-002
2.670970e+003,1.230006e-002
2.672899e+003,1.218942e-002
2.674827e+003,1.205381e-002
2.676756e+003,1.189526e-002
2.678685e+003,1.174530e-002
2.680613e+003,1.168616e-002
2.682542e+003,1.165972e-002
2.684470e+003,1.158696e-002
2.686398e+003,1.144255e-002
2.688327e+003,1.127781e-002
2.690255e+003,1.109170e-002
2.692184e+003,1.095215e-002
2.694113e+003,1.091613e-002
2.696041e+003,1.086538e-002
2.697969e+003,1.082052e-002
2.699898e+003,1.082497e-002
2.701826e+003,1.095165e-002
2.703755e+003,1.105020e-002
2.705683e+003,1.115978e-002
2.707612e+003,1.138733e-002
2.709541e+003,1.156582e-002
2.711469e+003,1.166124e-002
2.713397e+003,1.182087e-002
2.715326e+003,1.196202e-002
2.717254e+003,1.218874e-002
2.719183e+003,1.247109e-002
2.721111e+003,1.273331e-002
2.723040e+003,1.299411e-002
2.724969e+003,1.328217e-002
2.726897e+003,1.353849e-002
2.728825e+003,1.376316e-002
2.730754e+003,1.394452e-002
2.732682e+003,1.409396e-002
2.734611e+003,1.423164e-002
2.736539e+003,1.435275e-002
2.738468e+003,1.436976e-002
2.740396e+003,1.432396e-002
2.742325e+003,1.434537e-002
2.744253e+003,1.438332e-002
2.746182e+003,1.433322e-002
2.748110e+003,1.427915e-002
2.750039e+003,1.435428e-002
2.751967e+003,1.450029e-002
2.753896e+003,1.466282e-002
2.755824e+003,1.489433e-002
2.757753e+003,1.521119e-002
2.759681e+003,1.554017e-002
2.761610e+003,1.594320e-002
2.763538e+003,1.628589e-002
2.765467e+003,1.661252e-002
2.767395e+003,1.708352e-002
2.769324e+003,1.763890e-002
2.771252e+003,1.823260e-002
2.773181e+003,1.886159e-002
2.775109e+003,1.953922e-002
2.777038e+003,2.033338e-002
2.778966e+003,2.126223e-002
2.780895e+003,2.225588e-002
2.782823e+003,2.335481e-002
2.784752e+003,2.453239e-002
2.786680e+003,2.583312e-002
2.788609e+003,2.724144e-002
2.790537e+003,2.872873e-002
2.792466e+003,3.031867e-002
2.794394e+003,3.200834e-002
2.796323e+003,3.380264e-002
2.798251e+003,3.557984e-002
2.800180e+003,3.747888e-002
2.802108e+003,3.947572e-002
2.804037e+003,4.163259e-002
2.805965e+003,4.398217e-002
2.807894e+003,4.646695e-002
2.809822e+003,4.919336e-002
2.811751e+003,5.237176e-002
2.813679e+003,5.604964e-002
2.815608e+003,6.023845e-002
2.817536e+003,6.507174e-002
2.819465e+003,7.077152e-002
2.821393e+003,7.758235e-002
2.823322e+003,8.578898e-002
2.825250e+003,9.582718e-002
2.827179e+003,1.084129e-001
2.829107e+003,1.247119e-001
2.831036e+003,1.464184e-001
2.832964e+003,1.761593e-001
2.834893e+003,2.182446e-001
2.836821e+003,2.785536e-001
2.838750e+003,3.662831e-001
2.840678e+003,4.962336e-001
2.842607e+003,6.868535e-001
2.844535e+003,9.464417e-001
2.846464e+003,1.213919e+000
2.848392e+003,1.280676e+000
2.850321e+003,1.071082e+000
2.852249e+003,8.092709e-001
2.854178e+003,6.174294e-001
2.856106e+003,4.849988e-001
2.858035e+003,3.893947e-001
2.859963e+003,3.193380e-001
2.861892e+003,2.690263e-001
2.863820e+003,2.346279e-001
2.865749e+003,2.134191e-001
2.867677e+003,2.028687e-001
2.869606e+003,1.995100e-001
2.871534e+003,1.996206e-001
2.873463e+003,2.018162e-001
2.875391e+003,2.076484e-001
2.877320e+003,2.190853e-001
2.879248e+003,2.364172e-001
2.881177e+003,2.588175e-001
2.883105e+003,2.853440e-001
2.885034e+003,3.155318e-001
2.886962e+003,3.488034e-001
2.888891e+003,3.842316e-001
2.890819e+003,4.207197e-001
2.892748e+003,4.575298e-001
2.894676e+003,4.943808e-001
2.896605e+003,5.321130e-001
2.898533e+003,5.721443e-001
2.900462e+003,6.168180e-001
2.902390e+003,6.702418e-001
2.904319e+003,7.383196e-001
2.906247e+003,8.291865e-001
2.908176e+003,9.514579e-001
2.910104e+003,1.108755e+000
2.912033e+003,1.286551e+000
2.913961e+003,1.431365e+000
2.915890e+003,1.461747e+000
2.917818e+003,1.352177e+000
2.919747e+003,1.173165e+000
2.921675e+003,9.955102e-001
2.923604e+003,8.449414e-001
2.925532e+003,7.222733e-001
2.927461e+003,6.206592e-001
2.929389e+003,5.339302e-001
2.931318e+003,4.589249e-001
2.933246e+003,3.937622e-001
2.935175e+003,3.372043e-001
2.937103e+003,2.884215e-001
2.939032e+003,2.468150e-001
2.940960e+003,2.120063e-001
2.942889e+003,1.838192e-001
2.944817e+003,1.621732e-001
2.946746e+003,1.468017e-001
2.948674e+003,1.373982e-001
2.950603e+003,1.324758e-001
2.952531e+003,1.295373e-001
2.954460e+003,1.264076e-001
2.956388e+003,1.219240e-001
2.958317e+003,1.158898e-001
2.960245e+003,1.083691e-001
2.962174e+003,9.947801e-002
2.964102e+003,8.981084e-002
2.966031e+003,7.992150e-002
2.967959e+003,7.050855e-002
2.969888e+003,6.191394e-002
2.971816e+003,5.433749e-002
2.973745e+003,4.785895e-002
2.975673e+003,4.259158e-002
2.977602e+003,3.826976e-002
2.979530e+003,3.461061e-002
2.981459e+003,3.157594e-002
2.983387e+003,2.910660e-002
2.985316e+003,2.697743e-002
2.987244e+003,2.523292e-002
2.989173e+003,2.382047e-002
2.991101e+003,2.281033e-002
2.993030e+003,2.215744e-002
2.994958e+003,2.181677e-002
2.996887e+003,2.168465e-002
2.998815e+003,2.172653e-002
3.000744e+003,2.187766e-002
3.002672e+003,2.197849e-002
3.004601e+003,2.179695e-002
3.006529e+003,2.127526e-002
3.008458e+003,2.051710e-002
3.010386e+003,1.958993e-002
3.012315e+003,1.847123e-002
3.014243e+003,1.716641e-002
3.016172e+003,1.586213e-002
3.018100e+003,1.475162e-002
3.020029e+003,1.387089e-002
3.021957e+003,1.314946e-002
3.023886e+003,1.246293e-002
3.025814e+003,1.181753e-002
3.027743e+003,1.123602e-002
3.029671e+003,1.087922e-002
3.031600e+003,1.056566e-002
3.033528e+003,1.017142e-002
3.035457e+003,9.671590e-003
3.037385e+003,9.135384e-003
3.039314e+003,8.761968e-003
3.041242e+003,8.339401e-003
3.043171e+003,8.023171e-003
3.045099e+003,7.842246e-003
3.047028e+003,7.579130e-003
3.048956e+003,7.248609e-003
3.050885e+003,6.898051e-003
3.052813e+003,6.659416e-003
3.054742e+003,6.563295e-003
3.056670e+003,6.457852e-003
3.058599e+003,6.209133e-003
3.060527e+003,6.011895e-003
3.062456e+003,5.895589e-003
3.064384e+003,5.845798e-003
3.066313e+003,5.741531e-003
3.068241e+003,5.520678e-003
3.070170e+003,5.271272e-003
3.072098e+003,5.097823e-003
3.074027e+003,4.918834e-003
3.075955e+003,4.859705e-003
3.077884e+003,4.798440e-003
3.079812e+003,4.656269e-003
3.081741e+003,4.425350e-003
3.083669e+003,4.094652e-003
3.085598e+003,3.861526e-003
3.087526e+003,3.828714e-003
3.089455e+003,3.709781e-003
3.091383e+003,3.507166e-003
3.093312e+003,3.270485e-003
3.095240e+003,3.170520e-003
3.097169e+003,2.886697e-003
3.099097e+003,2.555877e-003
3.101026e+003,2.379755e-003
3.102954e+003,2.230111e-003
3.104883e+003,1.911234e-003
3.106811e+003,1.703501e-003
3.108740e+003,1.555598e-003
3.110668e+003,1.432387e-003
3.112597e+003,1.338680e-003
3.114525e+003,1.331471e-003
3.116454e+003,1.374801e-003
3.118382e+003,1.298010e-003
3.120311e+003,1.104636e-003
3.122239e+003,1.126986e-003
3.124168e+003,1.148839e-003
3.126096e+003,1.087015e-003
3.128025e+003,9.527216e-004
3.129953e+003,8.273385e-004
3.131882e+003,8.791746e-004
3.133810e+003,8.235988e-004
3.135739e+003,6.942493e-004
3.137667e+003,7.409630e-004
3.139596e+003,6.746356e-004
3.141524e+003,6.376128e-004
3.143453e+003,6.757835e-004
3.145381e+003,6.885505e-004
3.147310e+003,6.560665e-004
3.149238e+003,6.418866e-004
3.151167e+003,6.453092e-004
3.153095e+003,6.696205e-004
3.155024e+003,6.075152e-004
3.156952e+003,5.099182e-004
3.158881e+003,4.071556e-004
3.160809e+003,4.205257e-004
3.162738e+003,4.771762e-004
3.164666e+003,4.739538e-004
3.166594e+003,5.465145e-004
3.168523e+003,5.746493e-004
3.170452e+003,5.791741e-004
3.172380e+003,6.320705e-004
3.174309e+003,5.852683e-004
3.176237e+003,5.079559e-004
3.178166e+003,5.089436e-004
3.180094e+003,4.982855e-004
3.182022e+003,4.799836e-004
3.183951e+003,5.725212e-004
3.185880e+003,5.611284e-004
3.187808e+003,4.618494e-004
3.189737e+003,4.210621e-004
3.191665e+003,4.441803e-004
3.193594e+003,4.963460e-004
3.195522e+003,5.020862e-004
3.197450e+003,5.137911e-004
3.199379e+003,5.147480e-004
3.201308e+003,3.996501e-004
3.203236e+003,3.241897e-004
3.205165e+003,3.699390e-004
3.207093e+003,4.329286e-004
3.209021e+003,5.940679e-004
3.210950e+003,4.870892e-004
3.212878e+003,3.205235e-004
3.214807e+003,3.091409e-004
3.216736e+003,3.256863e-004
3.218664e+003,3.771773e-004
3.220593e+003,3.649397e-004
3.222521e+003,2.899314e-004
3.224449e+003,2.498240e-004
3.226378e+003,3.188807e-004
3.228307e+003,3.213943e-004
3.230235e+003,3.146599e-004
3.232164e+003,3.228686e-004
3.234092e+003,2.673543e-004
3.236021e+003,3.455537e-004
3.237949e+003,3.161696e-004
3.239877e+003,1.934655e-004
3.241806e+003,2.512448e-004
3.243735e+003,4.540025e-004
3.245663e+003,5.417275e-004
3.247592e+003,3.053155e-004
3.249520e+003,2.439818e-004
3.251448e+003,3.679721e-004
3.253377e+003,4.195529e-004
3.255305e+003,3.666142e-004
3.257234e+003,4.208488e-004
3.259163e+003,3.843335e-004
3.261091e+003,2.375869e-004
3.263020e+003,2.017850e-004
3.264948e+003,3.398275e-004
3.266876e+003,3.206735e-004
3.268805e+003,3.244532e-004
3.270733e+003,3.999881e-004
3.272662e+003,5.527558e-004
3.274591e+003,6.118380e-004
3.276519e+003,5.089855e-004
3.278448e+003,4.154015e-004
3.280376e+003,3.112261e-004
3.282304e+003,2.682270e-004
3.284233e+003,3.515598e-004
3.286161e+003,3.308426e-004
3.288090e+003,2.988228e-004
3.290019e+003,3.615017e-004
3.291947e+003,4.355423e-004
3.293875e+003,3.673290e-004
3.295804e+003,2.889410e-004
3.297732e+003,2.971850e-004
3.299661e+003,2.840171e-004
3.301589e+003,2.584108e-004
3.303518e+003,2.784086e-004
3.305447e+003,3.033797e-004
3.307375e+003,4.115100e-004
3.309303e+003,5.435715e-004
3.311232e+003,5.262895e-004
3.313160e+003,3.746292e-004
3.315089e+003,2.797469e-004
3.317018e+003,3.246637e-004
3.318946e+003,2.773693e-004
3.320875e+003,2.128836e-004
3.322803e+003,2.743099e-004
3.324731e+003,4.075347e-004
3.326660e+003,4.563001e-004
3.328588e+003,4.017213e-004
3.330517e+003,3.594952e-004
3.332446e+003,4.164060e-004
3.334374e+003,5.743029e-004
3.336302e+003,7.075099e-004
3.338231e+003,6.008679e-004
3.340159e+003,4.654122e-004
3.342088e+003,4.214961e-004
3.344016e+003,3.779735e-004
3.345945e+003,3.794027e-004
3.347874e+003,2.671401e-004
3.349802e+003,2.473113e-004
3.351730e+003,3.406066e-004
3.353659e+003,4.419400e-004
3.355587e+003,5.975878e-004
3.357516e+003,6.158999e-004
3.359444e+003,5.976497e-004
3.361373e+003,6.051189e-004
3.363302e+003,5.250131e-004
3.365230e+003,5.326653e-004
3.367158e+003,6.054691e-004
3.369087e+003,4.681130e-004
3.371015e+003,3.270167e-004
3.372944e+003,3.098524e-004
3.374872e+003,3.078366e-004
3.376801e+003,3.097490e-004
3.378729e+003,3.396720e-004
3.380658e+003,3.331564e-004
3.382586e+003,3.199852e-004
3.384515e+003,3.399262e-004
3.386443e+003,2.307897e-004
3.388372e+003,1.828969e-004
3.390300e+003,1.782891e-004
3.392229e+003,4.617977e-004
3.394157e+003,4.117908e-004
3.396086e+003,2.848343e-004
3.398014e+003,3.428282e-004
3.399943e+003,2.879077e-004
3.401871e+003,2.755108e-004
3.403800e+003,1.442204e-004
3.405728e+003,-5.840836e-005
3.407657e+003,-4.505506e-005
3.409585e+003,-7.981109e-005
3.411514e+003,-1.856936e-004
3.413442e+003,-1.318366e-004
3.415371e+003,1.530861e-005
3.417299e+003,1.080250e-004
3.419228e+003,5.040355e-004
3.421156e+003,7.205536e-004
3.423085e+003,3.314232e-004
3.425013e+003,3.635744e-005
3.426942e+003,1.214622e-004
3.428870e+003,2.772198e-004
3.430799e+003,2.933373e-004
3.432727e+003,1.333430e-004
3.434656e+003,3.025401e-006
3.436584e+003,5.801674e-005
3.438513e+003,1.628683e-004
3.440441e+003,3.507826e-004
3.442370e+003,5.523437e-004
3.444298e+003,5.141762e-004
3.446227e+003,9.457720e-004
3.448155e+003,8.550454e-004
3.450084e+003,1.177229e-004
3.452012e+003,-4.087249e-005
3.453941e+003,1.025451e-004
3.455869e+003,2.205884e-004
3.457798e+003,2.131565e-004
3.459726e+003,1.771445e-004
3.461655e+003,3.837245e-004
3.463583e+003,2.291962e-004
3.465512e+003,-2.690777e-005
3.467440e+003,9.443471e-005
3.469369e+003,1.111720e-005
3.471297e+003,-8.581439e-005
3.473226e+003,5.973922e-005
3.475154e+003,2.427264e-004
3.477083e+003,1.298790e-004
3.479011e+003,1.063333e-004
3.480940e+003,4.673549e-004
3.482868e+003,4.352606e-004
3.484797e+003,9.840820e-005
3.486725e+003,2.574031e-004
3.488654e+003,1.028143e-004
3.490582e+003,-3.279061e-004
3.492511e+003,-5.290858e-004
3.494439e+003,-3.817938e-004
3.496368e+003,-2.212911e-004
3.498296e+003,-2.875752e-004
3.500225e+003,2.401508e-004
3.502153e+003,1.230224e-003
3.504082e+003,1.149151e-003
3.506010e+003,9.863544e-005
3.507939e+003,9.947829e-005
3.509867e+003,3.858539e-004
3.511796e+003,-2.171001e-004
3.513724e+003,-6.718626e-004
3.515653e+003,-6.746138e-004
3.517581e+003,-3.195731e-004
3.519510e+003,-2.286434e-004
3.521438e+003,2.747686e-004
3.523367e+003,1.215819e-003
3.525295e+003,9.277212e-004
3.527224e+003,8.186568e-004
3.529152e+003,5.673524e-004
3.531081e+003,-2.311436e-004
3.533009e+003,-9.279437e-004
3.534938e+003,-4.429901e-004
3.536866e+003,-1.046527e-005
3.538795e+003,-5.228943e-004
3.540723e+003,-6.101122e-004
3.542652e+003,2.194424e-004
3.544580e+003,1.464359e-003
3.546509e+003,1.834851e-003
3.548437e+003,6.891056e-004
3.550366e+003,-4.772330e-005
3.552294e+003,3.451277e-004
3.554223e+003,-3.779847e-004
3.556151e+003,-9.672432e-004
3.558080e+003,-8.100341e-004
3.560008e+003,-1.927130e-004
3.561937e+003,2.291938e-004
3.563865e+003,1.076865e-003
3.565794e+003,3.566760e-003
3.567722e+003,4.026486e-003
3.569651e+003,8.552736e-004
3.571579e+003,-9.970684e-004
3.573508e+003,-9.595603e-004
3.575436e+003,-5.066944e-004
3.577365e+003,-6.129593e-004
3.579293e+003,-5.935249e-004
3.581222e+003,-5.335412e-004
3.583150e+003,-6.822171e-004
3.585079e+003,-2.099969e-004
3.587007e+003,2.475737e-003
3.588936e+003,2.053974e-003
3.590864e+003,-5.031424e-005
3.592793e+003,1.118612e-004
3.594721e+003,1.860059e-003
3.596650e+003,2.192255e-003
3.598578e+003,2.100523e-003
3.600507e+003,2.557783e-003
3.602435e+003,2.238570e-003
3.604364e+003,1.314600e-003
3.606292e+003,2.327240e-003
3.608221e+003,4.274971e-003
3.610149e+003,3.231206e-003
3.612078e+003,2.698655e-003
3.614006e+003,3.194286e-003
3.615935e+003,1.877449e-003
3.617863e+003,2.443127e-003
3.619792e+003,3.436247e-003
3.621720e+003,1.276507e-003
3.623649e+003,2.510268e-004
3.625577e+003,8.110134e-004
3.627506e+003,3.353981e-003
3.629434e+003,6.104091e-003
3.631363e+003,2.154102e-003
3.633291e+003,3.774054e-004
3.635220e+003,-4.902016e-005
3.637148e+003,-5.170782e-004
3.639077e+003,-5.551232e-004
3.641005e+003,-7.847510e-005
3.642934e+003,1.670644e-004
3.644862e+003,5.932106e-004
3.646791e+003,3.692598e-003
3.648719e+003,6.872022e-003
3.650648e+003,6.004462e-003
3.652576e+003,1.788862e-003
3.654505e+003,7.092487e-005
3.656433e+003,1.214013e-003
3.658362e+003,1.549618e-004
3.660290e+003,-1.372759e-003
3.662219e+003,-1.553465e-003
3.664147e+003,-1.033771e-003
3.666076e+003,-8.119978e-004
3.668004e+003,4.897723e-004
3.669933e+003,4.910761e-003
3.671861e+003,2.552303e-003
3.673790e+003,8.834312e-004
3.675718e+003,5.158465e-003
3.677647e+003,2.788910e-003
3.679575e+003,3.811456e-004
3.681504e+003,-4.482544e-004
3.683432e+003,-1.996588e-004
3.685361e+003,8.740928e-005
3.687289e+003,1.432660e-003
3.689218e+003,4.448862e-003
3.691146e+003,2.918949e-003
3.693075e+003,2.975389e-005
3.695003e+003,-1.067038e-003
3.696932e+003,-1.233380e-003
3.698860e+003,-1.550656e-003
3.700789e+003,-2.860120e-004
3.702717e+003,5.927905e-004
3.704646e+003,-4.480230e-004
3.706574e+003,-7.245024e-004
3.708503e+003,6.860988e-004
3.710431e+003,3.357004e-003
3.712360e+003,3.450511e-003
3.714288e+003,1.041600e-003
3.716217e+003,-4.113354e-004
3.718145e+003,2.308236e-004
3.720074e+003,9.908155e-004
3.722002e+003,1.940607e-003
3.723931e+003,1.981277e-003
3.725859e+003,2.331533e-003
3.727788e+003,1.215084e-003
3.729716e+003,-3.071129e-005
3.731645e+003,2.190284e-003
3.733573e+003,5.636382e-003
3.735502e+003,6.592270e-003
3.737430e+003,3.680736e-003
3.739359e+003,2.389654e-003
3.741287e+003,1.711273e-003
3.743216e+003,1.874820e-003
3.745144e+003,5.382991e-003
3.747073e+003,4.185717e-003
3.749001e+003,4.052565e-003
3.750930e+003,6.078484e-003
3.752858e+003,4.093750e-003
3.754787e+003,1.575857e-003
3.756715e+003,1.059455e-003
3.758644e+003,2.044121e-003
3.760572e+003,1.575794e-003
3.762501e+003,-3.734622e-004
3.764429e+003,-1.138877e-004
3.766358e+003,3.648261e-004
3.768286e+003,-2.007531e-004
3.770215e+003,7.376652e-004
3.772143e+003,-1.664395e-004
3.774072e+003,-1.097236e-003
3.776000e+003,-9.487402e-004
3.777929e+003,3.157519e-004
3.779857e+003,1.646923e-003
3.781786e+003,2.125800e-004
3.783714e+003,5.131494e-005
3.785643e+003,4.356047e-004
3.787571e+003,-7.195594e-004
3.789500e+003,-1.229521e-003
3.791428e+003,-8.347463e-004
3.793357e+003,-1.001670e-003
3.795285e+003,5.209995e-004
3.797214e+003,2.650484e-003
3.799142e+003,1.295758e-003
3.801071e+003,3.465734e-003
3.802999e+003,3.731535e-003
3.804927e+003,6.000521e-004
3.806856e+003,1.232444e-003
3.808785e+003,8.773934e-004
3.810713e+003,-4.709251e-004
3.812642e+003,-7.806355e-004
3.814570e+003,8.996436e-004
3.816499e+003,3.794761e-003
3.818427e+003,2.262668e-003
3.820355e+003,3.860470e-003
3.822284e+003,4.382656e-003
3.824213e+003,9.230999e-004
3.826141e+003,9.769229e-004
3.828070e+003,1.075718e-003
3.829998e+003,5.003372e-004
3.831927e+003,1.827016e-003
3.833855e+003,2.709051e-003
3.835783e+003,2.936766e-003
3.837712e+003,4.010884e-003
3.839641e+003,4.461531e-003
3.841569e+003,2.250171e-003
3.843498e+003,1.329319e-003
3.845426e+003,4.732655e-004
3.847354e+003,7.329974e-005
3.849283e+003,1.121441e-003
3.851211e+003,3.274965e-003
3.853140e+003,7.458141e-003
3.855069e+003,4.464416e-003
3.856997e+003,1.500549e-003
3.858926e+003,-3.452785e-005
3.860854e+003,7.358426e-004
3.862782e+003,2.495198e-003
3.864711e+003,3.984918e-003
3.866640e+003,1.757462e-003
3.868568e+003,1.940398e-003
3.870497e+003,4.289266e-003
3.872425e+003,2.086226e-003
3.874354e+003,2.037503e-003
3.876282e+003,9.087976e-004
3.878210e+003,-1.009088e-004
3.880139e+003,3.077324e-003
3.882068e+003,3.199873e-003
3.883996e+003,1.498586e-003
3.885925e+003,2.428940e-003
3.887853e+003,6.456058e-004
3.889781e+003,-2.442859e-004
3.891710e+003,2.258766e-003
3.893638e+003,1.598923e-003
3.895567e+003,-3.619306e-005
3.897496e+003,1.088401e-003
3.899424e+003,3.728897e-003
3.901353e+003,3.948673e-003
3.903281e+003,4.083168e-003
3.905209e+003,3.377983e-003
3.907138e+003,5.766852e-004
3.909066e+003,-1.015254e-003
3.910995e+003,-6.361427e-004
3.912924e+003,-2.834257e-004
3.914852e+003,3.522802e-004
3.916781e+003,1.436410e-003
3.918709e+003,1.223415e-003
3.920637e+003,3.344566e-004
3.922566e+003,2.963841e-004
3.924494e+003,1.434288e-003
3.926423e+003,5.990909e-004
3.928352e+003,4.357100e-005
3.930280e+003,1.099780e-003
3.932208e+003,1.736361e-003
3.934137e+003,2.993075e-004
3.936065e+003,-9.261444e-004
3.937994e+003,-6.162366e-004
3.939922e+003,-4.763342e-004
3.941851e+003,3.944077e-004
3.943780e+003,7.361583e-004
3.945708e+003,-7.374771e-005
3.947636e+003,3.262935e-004
3.949565e+003,7.007532e-004
3.951493e+003,2.986751e-005
3.953422e+003,-6.228499e-004
3.955351e+003,-5.363030e-004
3.957279e+003,-4.073493e-004
3.959208e+003,-5.428474e-004
3.961136e+003,-2.342993e-004
3.963064e+003,-3.229920e-004
3.964993e+003,-9.893067e-004
3.966921e+003,-9.759013e-004
3.968850e+003,-5.536135e-004
3.970779e+003,-3.903750e-004
3.972707e+003,-4.307926e-004
3.974635e+003,-4.430469e-004
3.976564e+003,-6.332202e-004
3.978492e+003,-9.510340e-004
3.980421e+003,-9.864960e-004
3.982349e+003,-9.615161e-004
3.984278e+003,-1.076504e-003
3.986207e+003,-1.178852e-003
3.988135e+003,-1.050871e-003
3.990063e+003,-6.665196e-004
3.991992e+003,-7.836083e-004
3.993920e+003,-9.433720e-004
3.995849e+003,-1.039933e-003
3.997777e+003,-1.173063e-003
3.999706e+003,-1.078949e-003
4.001635e+003,0.000000e+000
