3.991992e+002,0.000000e+000
4.011277e+002,0.000000e+000
4.030562e+002,0.000000e+000
4.049846e+002,0.000000e+000
4.069131e+002,0.000000e+000
4.088416e+002,0.000000e+000
4.107701e+002,0.000000e+000
4.126986e+002,0.000000e+000
4.146271e+002,0.000000e+000
4.165556e+002,0.000000e+000
4.184841e+002,0.000000e+000
4.204126e+002,0.000000e+000
4.223411e+002,0.000000e+000
4.242697e+002,0.000000e+000
4.261982e+002,0.000000e+000
4.281266e+002,0.000000e+000
4.300551e+002,0.000000e+000
4.319836e+002,0.000000e+000
4.339121e+002,0.000000e+000
4.358406e+002,0.000000e+000
4.377691e+002,0.000000e+000
4.396976e+002,0.000000e+000
4.416261e+002,0.000000e+000
4.435546e+002,0.000000e+000
4.454831e+002,0.000000e+000
4.474116e+002,0.000000e+000
4.493401e+002,0.000000e+000
4.512686e+002,0.000000e+000
4.531971e+002,0.000000e+000
4.551256e+002,0.000000e+000
4.570541e+002,0.000000e+000
4.589826e+002,0.000000e+000
4.609111e+002,0.000000e+000
4.628396e+002,0.000000e+000
4.647681e+002,0.000000e+000
4.666966e+002,0.000000e+000
4.686251e+002,0.000000e+000
4.705536e+002,0.000000e+000
4.724821e+002,0.000000e+000
4.744106e+002,0.000000e+000
4.763391e+002,0.000000e+000
4.782676e+002,0.000000e+000
4.801961e+002,0.000000e+000
4.821246e+002,0.000000e+000
4.840531e+002,0.000000e+000
4.859816e+002,0.000000e+000
4.879101e+002,0.000000e+000
4.898386e+002,0.000000e+000
4.917671e+002,0.000000e+000
4.936956e+002,0.000000e+000
4.956241e+002,0.000000e+000
4.975526e+002,0.000000e+000
4.994811e+002,0.000000e+000
5.014096e+002,0.000000e+000
5.033381e+002,0.000000e+000
5.052666e+002,0.000000e+000
5.071951e+002,0.000000e+000
5.091236e+002,0.000000e+000
5.110521e+002,0.000000e+000
5.129806e+002,0.000000e+000
5.149091e+002,0.000000e+000
5.168376e+002,0.000000e+000
5.187661e+002,0.000000e+000
5.206946e+002,0.000000e+000
5.226230e+002,0.000000e+000
5.245516e+002,-5.243812e-005
5.264800e+002,-1.614131e-004
5.284086e+002,-2.997601e-004
5.303370e+002,-2.358770e-004
5.322656e+002,-1.298953e-004
5.341940e+002,-1.425063e-004
5.361226e+002,-4.474074e-005
5.380510e+002,-2.735853e-005
5.399796e+002,-8.648634e-005
5.419081e+002,-1.728814e-004
5.438365e+002,-1.768470e-004
5.457650e+002,-2.208864e-004
5.476935e+002,-1.607575e-004
5.496221e+002,-1.390660e-004
5.515505e+002,-1.100637e-004
5.534790e+002,-5.121250e-005
5.554075e+002,1.947070e-004
5.573361e+002,1.553241e-004
5.592645e+002,-2.493151e-005
5.611931e+002,-5.206093e-005
5.631215e+002,1.151953e-005
5.650500e+002,4.543457e-005
5.669785e+002,5.306304e-005
5.689070e+002,5.398877e-006
5.708355e+002,3.997236e-005
5.727640e+002,1.690825e-004
5.746925e+002,1.520775e-004
5.766210e+002,9.711925e-005
5.785495e+002,1.640087e-004
5.804780e+002,8.932035e-005
5.824065e+002,3.406778e-005
5.843350e+002,4.899595e-005
5.862635e+002,1.398539e-004
5.881920e+002,1.115547e-004
5.901205e+002,5.544815e-005
5.920490e+002,1.227111e-005
5.939775e+002,9.899493e-005
5.959060e+002,1.115371e-004
5.978345e+002,1.485348e-004
5.997630e+002,1.195930e-004
6.016915e+002,1.784861e-004
6.036200e+002,3.018137e-004
6.055485e+002,2.795439e-004
6.074770e+002,1.651160e-004
6.094055e+002,1.927800e-004
6.113340e+002,2.255496e-004
6.132625e+002,1.086611e-004
6.151910e+002,-8.012634e-005
6.171195e+002,-4.852656e-005
6.190480e+002,1.249425e-004
6.209765e+002,2.854951e-004
6.229050e+002,2.885684e-004
6.248335e+002,2.925806e-004
6.267620e+002,2.670884e-004
6.286905e+002,3.129505e-004
6.306190e+002,3.318936e-004
6.325475e+002,4.044268e-004
6.344760e+002,4.772935e-004
6.364045e+002,5.928520e-004
6.383330e+002,6.707925e-004
6.402615e+002,7.143058e-004
6.421899e+002,6.786492e-004
6.441185e+002,7.361453e-004
6.460470e+002,7.211138e-004
6.479755e+002,7.459000e-004
6.499039e+002,7.993225e-004
6.518325e+002,8.935463e-004
6.537610e+002,9.217877e-004
6.556895e+002,1.009243e-003
6.576179e+002,1.112625e-003
6.595464e+002,1.306275e-003
6.614750e+002,1.299273e-003
6.634034e+002,1.246924e-003
6.653319e+002,1.211803e-003
6.672604e+002,1.252364e-003
6.691890e+002,1.440372e-003
6.711174e+002,1.666548e-003
6.730460e+002,1.761690e-003
6.749745e+002,1.901124e-003
6.769030e+002,2.049657e-003
6.788314e+002,2.343545e-003
6.807599e+002,2.536874e-003
6.826885e+002,2.747294e-003
6.846169e+002,2.958547e-003
6.865454e+002,3.210856e-003
6.884739e+002,3.390059e-003
6.904025e+002,3.720064e-003
6.923309e+002,4.104363e-003
6.942594e+002,4.636554e-003
6.961879e+002,5.125329e-003
6.981165e+002,5.861152e-003
7.000449e+002,6.789222e-003
7.019734e+002,7.992120e-003
7.039019e+002,9.469803e-003
7.058304e+002,1.162141e-002
7.077589e+002,1.447795e-002
7.096874e+002,1.865525e-002
7.116159e+002,2.544770e-002
7.135444e+002,3.833923e-002
7.154729e+002,6.104913e-002
7.174014e+002,9.136382e-002
7.193299e+002,1.055424e-001
7.212584e+002,8.286063e-002
7.231869e+002,5.807509e-002
7.251154e+002,4.941253e-002
7.270439e+002,5.416096e-002
7.289724e+002,6.705976e-002
7.309009e+002,6.069902e-002
7.328294e+002,3.540530e-002
7.347579e+002,1.976315e-002
7.366864e+002,1.396260e-002
7.386149e+002,1.127042e-002
7.405434e+002,9.620013e-003
7.424719e+002,8.571414e-003
7.444004e+002,7.644461e-003
7.463289e+002,7.024204e-003
7.482574e+002,6.509053e-003
7.501859e+002,6.128583e-003
7.521144e+002,5.726840e-003
7.540428e+002,5.334912e-003
7.559714e+002,5.030327e-003
7.578999e+002,4.895492e-003
7.598284e+002,4.725255e-003
7.617568e+002,4.601356e-003
7.636854e+002,4.560415e-003
7.656139e+002,4.562667e-003
7.675424e+002,4.464127e-003
7.694709e+002,4.318580e-003
7.713994e+002,4.166085e-003
7.733279e+002,3.969261e-003
7.752563e+002,3.822496e-003
7.771849e+002,3.751002e-003
7.791134e+002,3.644127e-003
7.810419e+002,3.502943e-003
7.829703e+002,3.352333e-003
7.848989e+002,3.216857e-003
7.868274e+002,3.133424e-003
7.887559e+002,3.097551e-003
7.906843e+002,3.022049e-003
7.926129e+002,2.961077e-003
7.945414e+002,2.999470e-003
7.964698e+002,2.998570e-003
7.983983e+002,3.031652e-003
8.003268e+002,3.078613e-003
8.022554e+002,3.043555e-003
8.041838e+002,2.990955e-003
8.061123e+002,2.953937e-003
8.080408e+002,2.864202e-003
8.099694e+002,2.836261e-003
8.118978e+002,2.813132e-003
8.138263e+002,2.750967e-003
8.157548e+002,2.664799e-003
8.176833e+002,2.642361e-003
8.196118e+002,2.641967e-003
8.215403e+002,2.594896e-003
8.234689e+002,2.575325e-003
8.253973e+002,2.553413e-003
8.273258e+002,2.473198e-003
8.292543e+002,2.523987e-003
8.311829e+002,2.583107e-003
8.331113e+002,2.566243e-003
8.350398e+002,2.538309e-003
8.369683e+002,2.582274e-003
8.388969e+002,2.598919e-003
8.408253e+002,2.677206e-003
8.427538e+002,2.722409e-003
8.446823e+002,2.794206e-003
8.466108e+002,2.848715e-003
8.485393e+002,2.882970e-003
8.504678e+002,2.878200e-003
8.523963e+002,2.917241e-003
8.543248e+002,2.936190e-003
8.562533e+002,2.903393e-003
8.581818e+002,2.830924e-003
8.601103e+002,2.880868e-003
8.620388e+002,2.936611e-003
8.639673e+002,2.969479e-003
8.658958e+002,3.010213e-003
8.678243e+002,3.033841e-003
8.697528e+002,3.008269e-003
8.716813e+002,3.092391e-003
8.736098e+002,3.123656e-003
8.755383e+002,3.190432e-003
8.774668e+002,3.260428e-003
8.793953e+002,3.330139e-003
8.813238e+002,3.473222e-003
8.832523e+002,3.807632e-003
8.851808e+002,4.019333e-003
8.871093e+002,4.117765e-003
8.890378e+002,4.149610e-003
8.909663e+002,4.089981e-003
8.928948e+002,3.904374e-003
8.948232e+002,3.848242e-003
8.967518e+002,3.770001e-003
8.986803e+002,3.685383e-003
9.006088e+002,3.582317e-003
9.025372e+002,3.578892e-003
9.044658e+002,3.742587e-003
9.063943e+002,4.016802e-003
9.083228e+002,4.160594e-003
9.102512e+002,4.048090e-003
9.121797e+002,3.775097e-003
9.141083e+002,3.591603e-003
9.160367e+002,3.448812e-003
9.179653e+002,3.403394e-003
9.198937e+002,3.426533e-003
9.218223e+002,3.437053e-003
9.237507e+002,3.367966e-003
9.256793e+002,3.408456e-003
9.276077e+002,3.445549e-003
9.295363e+002,3.508864e-003
9.314647e+002,3.522635e-003
9.333932e+002,3.589215e-003
9.353217e+002,3.604613e-003
9.372502e+002,3.645947e-003
9.391787e+002,3.720270e-003
9.411072e+002,3.781106e-003
9.430358e+002,3.749579e-003
9.449642e+002,3.769524e-003
9.468928e+002,3.851520e-003
9.488212e+002,3.978617e-003
9.507498e+002,3.997657e-003
9.526782e+002,4.041342e-003
9.546068e+002,4.119104e-003
9.565352e+002,4.271921e-003
9.584637e+002,4.403785e-003
9.603922e+002,4.555056e-003
9.623207e+002,4.655540e-003
9.642492e+002,4.780114e-003
9.661777e+002,4.816724e-003
9.681062e+002,4.887072e-003
9.700347e+002,4.841100e-003
9.719632e+002,4.735062e-003
9.738917e+002,4.611349e-003
9.758202e+002,4.607115e-003
9.777487e+002,4.651887e-003
9.796772e+002,4.672544e-003
9.816057e+002,4.694078e-003
9.835342e+002,4.787510e-003
9.854627e+002,4.864607e-003
9.873912e+002,4.980907e-003
9.893197e+002,5.075801e-003
9.912482e+002,5.165262e-003
9.931767e+002,5.191971e-003
9.951052e+002,5.192675e-003
9.970337e+002,5.198950e-003
9.989622e+002,5.310217e-003
1.000891e+003,5.396714e-003
1.002819e+003,5.486334e-003
1.004748e+003,5.595991e-003
1.006676e+003,5.786169e-003
1.008605e+003,5.887484e-003
1.010533e+003,6.052241e-003
1.012462e+003,6.209493e-003
1.014390e+003,6.338269e-003
1.016319e+003,6.355844e-003
1.018247e+003,6.352875e-003
1.020176e+003,6.426679e-003
1.022104e+003,6.738598e-003
1.024033e+003,6.938756e-003
1.025961e+003,7.068386e-003
1.027890e+003,7.151725e-003
1.029818e+003,7.292548e-003
1.031747e+003,7.336402e-003
1.033675e+003,7.350853e-003
1.035604e+003,7.376662e-003
1.037532e+003,7.439429e-003
1.039461e+003,7.430026e-003
1.041389e+003,7.429037e-003
1.043318e+003,7.456224e-003
1.045246e+003,7.574815e-003
1.047175e+003,7.673936e-003
1.049103e+003,7.891072e-003
1.051032e+003,8.069741e-003
1.052960e+003,8.199217e-003
1.054889e+003,8.307319e-003
1.056817e+003,8.517221e-003
1.058746e+003,8.678682e-003
1.060674e+003,8.871688e-003
1.062603e+003,9.026803e-003
1.064531e+003,9.134155e-003
1.066460e+003,9.126134e-003
1.068388e+003,9.176243e-003
1.070317e+003,9.325391e-003
1.072245e+003,9.657964e-003
1.074174e+003,1.005740e-002
1.076102e+003,1.053266e-002
1.078031e+003,1.098409e-002
1.079959e+003,1.149568e-002
1.081888e+003,1.187953e-002
1.083816e+003,1.219922e-002
1.085745e+003,1.243055e-002
1.087673e+003,1.274232e-002
1.089602e+003,1.301843e-002
1.091530e+003,1.322334e-002
1.093459e+003,1.329608e-002
1.095387e+003,1.329331e-002
1.097316e+003,1.304966e-002
1.099244e+003,1.271716e-002
1.101173e+003,1.235842e-002
1.103101e+003,1.215969e-002
1.105030e+003,1.197730e-002
1.106958e+003,1.186961e-002
1.108887e+003,1.180084e-002
1.110815e+003,1.187389e-002
1.112744e+003,1.206995e-002
1.114672e+003,1.240853e-002
1.116601e+003,1.269612e-002
1.118529e+003,1.295554e-002
1.120458e+003,1.298760e-002
1.122386e+003,1.284205e-002
1.124315e+003,1.248539e-002
1.126243e+003,1.220294e-002
1.128172e+003,1.216219e-002
1.130100e+003,1.247949e-002
1.132029e+003,1.305032e-002
1.133957e+003,1.394214e-002
1.135885e+003,1.496431e-002
1.137814e+003,1.612065e-002
1.139743e+003,1.714621e-002
1.141671e+003,1.799582e-002
1.143600e+003,1.860159e-002
1.145528e+003,1.913081e-002
1.147457e+003,1.958840e-002
1.149385e+003,2.019557e-002
1.151314e+003,2.086949e-002
1.153242e+003,2.157381e-002
1.155171e+003,2.216629e-002
1.157099e+003,2.276354e-002
1.159028e+003,2.325569e-002
1.160956e+003,2.356583e-002
1.162885e+003,2.363531e-002
1.164813e+003,2.351988e-002
1.166742e+003,2.314251e-002
1.168670e+003,2.259612e-002
1.170599e+003,2.189171e-002
1.172527e+003,2.117215e-002
1.174456e+003,2.040525e-002
1.176384e+003,1.975119e-002
1.178313e+003,1.900984e-002
1.180241e+003,1.830239e-002
1.182170e+003,1.762993e-002
1.184098e+003,1.701164e-002
1.186027e+003,1.645399e-002
1.187955e+003,1.602886e-002
1.189884e+003,1.559385e-002
1.191812e+003,1.522212e-002
1.193740e+003,1.478376e-002
1.195669e+003,1.441826e-002
1.197598e+003,1.406518e-002
1.199526e+003,1.381287e-002
1.201455e+003,1.360884e-002
1.203383e+003,1.354111e-002
1.205312e+003,1.349486e-002
1.207240e+003,1.352513e-002
1.209168e+003,1.353512e-002
1.211097e+003,1.363109e-002
1.213026e+003,1.371798e-002
1.214954e+003,1.386699e-002
1.216883e+003,1.399660e-002
1.218811e+003,1.420780e-002
1.220740e+003,1.439925e-002
1.222668e+003,1.469275e-002
1.224596e+003,1.496131e-002
1.226525e+003,1.523854e-002
1.228453e+003,1.550176e-002
1.230382e+003,1.582531e-002
1.232311e+003,1.603451e-002
1.234239e+003,1.621792e-002
1.236167e+003,1.629708e-002
1.238096e+003,1.630678e-002
1.240025e+003,1.612065e-002
1.241953e+003,1.586488e-002
1.243882e+003,1.540540e-002
1.245810e+003,1.486935e-002
1.247739e+003,1.435202e-002
1.249667e+003,1.398195e-002
1.251595e+003,1.372800e-002
1.253524e+003,1.366838e-002
1.255453e+003,1.353492e-002
1.257381e+003,1.338722e-002
1.259310e+003,1.308275e-002
1.261238e+003,1.266253e-002
1.263167e+003,1.210453e-002
1.265095e+003,1.157824e-002
1.267023e+003,1.117273e-002
1.268952e+003,1.112371e-002
1.270880e+003,1.126189e-002
1.272809e+003,1.154227e-002
1.274738e+003,1.173287e-002
1.276666e+003,1.202729e-002
1.278594e+003,1.227434e-002
1.280523e+003,1.247881e-002
1.282451e+003,1.253170e-002
1.284380e+003,1.254122e-002
1.286308e+003,1.249677e-002
1.288237e+003,1.262517e-002
1.290166e+003,1.279191e-002
1.292094e+003,1.312659e-002
1.294022e+003,1.347632e-002
1.295951e+003,1.388608e-002
1.297879e+003,1.414039e-002
1.299808e+003,1.433093e-002
1.301736e+003,1.435789e-002
1.303665e+003,1.439250e-002
1.305594e+003,1.426017e-002
1.307522e+003,1.411025e-002
1.309450e+003,1.386129e-002
1.311379e+003,1.362732e-002
1.313307e+003,1.325388e-002
1.315236e+003,1.293515e-002
1.317164e+003,1.257652e-002
1.319093e+003,1.226180e-002
1.321021e+003,1.181259e-002
1.322950e+003,1.145291e-002
1.324878e+003,1.110993e-002
1.326807e+003,1.089621e-002
1.328735e+003,1.071077e-002
1.330664e+003,1.079064e-002
1.332592e+003,1.097232e-002
1.334521e+003,1.148377e-002
1.336449e+003,1.221832e-002
1.338378e+003,1.321958e-002
1.340306e+003,1.399581e-002
1.342235e+003,1.442667e-002
1.344163e+003,1.487249e-002
1.346092e+003,1.559259e-002
1.348021e+003,1.631773e-002
1.349949e+003,1.702216e-002
1.351877e+003,1.733868e-002
1.353806e+003,1.747441e-002
1.355734e+003,1.736876e-002
1.357663e+003,1.742478e-002
1.359591e+003,1.778026e-002
1.361520e+003,1.871959e-002
1.363448e+003,1.988596e-002
1.365377e+003,2.087247e-002
1.367305e+003,2.172821e-002
1.369234e+003,2.215148e-002
1.371162e+003,2.197256e-002
1.373091e+003,2.248389e-002
1.375019e+003,2.448160e-002
1.376948e+003,2.584185e-002
1.378876e+003,2.405640e-002
1.380805e+003,1.953903e-002
1.382733e+003,1.511404e-002
1.384662e+003,1.248837e-002
1.386590e+003,1.098731e-002
1.388519e+003,9.979373e-003
1.390447e+003,9.168403e-003
1.392376e+003,8.926777e-003
1.394304e+003,8.825518e-003
1.396233e+003,8.988453e-003
1.398161e+003,8.916853e-003
1.400090e+003,9.013260e-003
1.402018e+003,8.872470e-003
1.403947e+003,9.114038e-003
1.405875e+003,8.911174e-003
1.407804e+003,8.910581e-003
1.409732e+003,9.070851e-003
1.411661e+003,9.767095e-003
1.413589e+003,1.024647e-002
1.415518e+003,1.099668e-002
1.417446e+003,1.146579e-002
1.419375e+003,1.214779e-002
1.421303e+003,1.202662e-002
1.423232e+003,1.281330e-002
1.425160e+003,1.397141e-002
1.427089e+003,1.581841e-002
1.429017e+003,1.849922e-002
1.430946e+003,2.243382e-002
1.432874e+003,2.550032e-002
1.434803e+003,2.858011e-002
1.436731e+003,3.212609e-002
1.438660e+003,3.513500e-002
1.440588e+003,3.679778e-002
1.442517e+003,3.922642e-002
1.444445e+003,4.120215e-002
1.446374e+003,4.399480e-002
1.448302e+003,4.796232e-002
1.450231e+003,5.394725e-002
1.452159e+003,6.269833e-002
1.454088e+003,7.367352e-002
1.456016e+003,8.449683e-002
1.457945e+003,1.065360e-001
1.459873e+003,1.421192e-001
1.461802e+003,1.815799e-001
1.463730e+003,1.879787e-001
1.465659e+003,1.524005e-001
1.467587e+003,1.380549e-001
1.469516e+003,1.337463e-001
1.471444e+003,1.468970e-001
1.473373e+003,1.251726e-001
1.475301e+003,6.938029e-002
1.477230e+003,3.281048e-002
1.479158e+003,2.182861e-002
1.481087e+003,1.637174e-002
1.483015e+003,1.375082e-002
1.484944e+003,1.171663e-002
1.486872e+003,1.130327e-002
1.488801e+003,1.012935e-002
1.490729e+003,9.706832e-003
1.492658e+003,8.333459e-003
1.494586e+003,8.263689e-003
1.496515e+003,7.716980e-003
1.498443e+003,7.868912e-003
1.500372e+003,7.016174e-003
1.502300e+003,6.818280e-003
1.504229e+003,6.282631e-003
1.506157e+003,7.431738e-003
1.508086e+003,7.136360e-003
1.510014e+003,6.827455e-003
1.511943e+003,6.124545e-003
1.513871e+003,6.219879e-003
1.515800e+003,6.168310e-003
1.517728e+003,6.410461e-003
1.519657e+003,6.050315e-003
1.521585e+003,6.727450e-003
1.523514e+003,6.111152e-003
1.525442e+003,6.226398e-003
1.527371e+003,5.754814e-003
1.529299e+003,5.595807e-003
1.531228e+003,5.379498e-003
1.533156e+003,5.875576e-003
1.535085e+003,5.383316e-003
1.537013e+003,5.348254e-003
1.538942e+003,5.537748e-003
1.540870e+003,6.575614e-003
1.542799e+003,5.845550e-003
1.544727e+003,5.756445e-003
1.546656e+003,5.088422e-003
1.548584e+003,5.183157e-003
1.550513e+003,5.076848e-003
1.552441e+003,5.055320e-003
1.554370e+003,4.908055e-003
1.556298e+003,5.025342e-003
1.558227e+003,5.092803e-003
1.560155e+003,5.073372e-003
1.562084e+003,4.326150e-003
1.564012e+003,4.242800e-003
1.565941e+003,3.955416e-003
1.567869e+003,4.066799e-003
1.569798e+003,4.026789e-003
1.571726e+003,3.800716e-003
1.573655e+003,3.524650e-003
1.575583e+003,3.823042e-003
1.577512e+003,3.719836e-003
1.579440e+003,3.573444e-003
1.581369e+003,3.434945e-003
1.583297e+003,3.541443e-003
1.585226e+003,3.528647e-003
1.587154e+003,3.620364e-003
1.589083e+003,3.605925e-003
1.591011e+003,3.712457e-003
1.592940e+003,3.647815e-003
1.594868e+003,3.751379e-003
1.596797e+003,3.626063e-003
1.598725e+003,3.626037e-003
1.600654e+003,3.626652e-003
1.602582e+003,3.722329e-003
1.604511e+003,3.631968e-003
1.606439e+003,3.747132e-003
1.608368e+003,3.740542e-003
1.610296e+003,3.808469e-003
1.612225e+003,3.740150e-003
1.614153e+003,3.869090e-003
1.616082e+003,4.151188e-003
1.618010e+003,4.403587e-003
1.619939e+003,4.235722e-003
1.621867e+003,4.453931e-003
1.623796e+003,4.556485e-003
1.625724e+003,4.599165e-003
1.627653e+003,4.724137e-003
1.629581e+003,4.793368e-003
1.631510e+003,4.681170e-003
1.633438e+003,4.870832e-003
1.635367e+003,5.407240e-003
1.637295e+003,5.756240e-003
1.639224e+003,5.440932e-003
1.641152e+003,5.422961e-003
1.643081e+003,5.423196e-003
1.645009e+003,5.806670e-003
1.646938e+003,6.432071e-003
1.648866e+003,6.332617e-003
1.650795e+003,5.989820e-003
1.652723e+003,6.415769e-003
1.654652e+003,6.577898e-003
1.656580e+003,6.160118e-003
1.658509e+003,5.650207e-003
1.660437e+003,5.537841e-003
1.662366e+003,5.506434e-003
1.664294e+003,5.301837e-003
1.666223e+003,5.044844e-003
1.668151e+003,5.189274e-003
1.670080e+003,5.238682e-003
1.672008e+003,5.028002e-003
1.673937e+003,4.768562e-003
1.675865e+003,4.723296e-003
1.677794e+003,4.558958e-003
1.679722e+003,4.636377e-003
1.681651e+003,4.519280e-003
1.683579e+003,4.676942e-003
1.685508e+003,4.503734e-003
1.687436e+003,4.526444e-003
1.689365e+003,4.348285e-003
1.691293e+003,4.192259e-003
1.693222e+003,4.011456e-003
1.695150e+003,4.320037e-003
1.697079e+003,4.730038e-003
1.699007e+003,4.909411e-003
1.700936e+003,4.834369e-003
1.702864e+003,4.992679e-003
1.704793e+003,5.196389e-003
1.706721e+003,5.570218e-003
1.708650e+003,5.635139e-003
1.710578e+003,5.896449e-003
1.712507e+003,6.205827e-003
1.714435e+003,6.991081e-003
1.716364e+003,7.813316e-003
1.718292e+003,8.545130e-003
1.720221e+003,8.467287e-003
1.722149e+003,8.468952e-003
1.724078e+003,8.434154e-003
1.726006e+003,8.782897e-003
1.727935e+003,1.001649e-002
1.729863e+003,1.268569e-002
1.731792e+003,1.539031e-002
1.733720e+003,2.050403e-002
1.735649e+003,2.680363e-002
1.737577e+003,3.030955e-002
1.739506e+003,3.642169e-002
1.741434e+003,4.236924e-002
1.743363e+003,4.702072e-002
1.745291e+003,5.004239e-002
1.747220e+003,5.060763e-002
1.749148e+003,4.804932e-002
1.751077e+003,4.211315e-002
1.753005e+003,3.496832e-002
1.754934e+003,2.918737e-002
1.756862e+003,2.219247e-002
1.758791e+003,1.670220e-002
1.760719e+003,1.315325e-002
1.762648e+003,9.618483e-003
1.764576e+003,7.461853e-003
1.766505e+003,6.151725e-003
1.768433e+003,5.134247e-003
1.770362e+003,4.529424e-003
1.772290e+003,4.179634e-003
1.774219e+003,3.612474e-003
1.776147e+003,3.208432e-003
1.778076e+003,2.853807e-003
1.780004e+003,2.745248e-003
1.781933e+003,2.402063e-003
1.783861e+003,2.292316e-003
1.785790e+003,2.098117e-003
1.787718e+003,1.967717e-003
1.789646e+003,1.940083e-003
1.791575e+003,2.192579e-003
1.793504e+003,2.035733e-003
1.795432e+003,1.873676e-003
1.797361e+003,1.601059e-003
1.799289e+003,1.611762e-003
1.801218e+003,1.680009e-003
1.803146e+003,1.594558e-003
1.805074e+003,1.302626e-003
1.807003e+003,1.280397e-003
1.808932e+003,1.147103e-003
1.810860e+003,1.106832e-003
1.812789e+003,8.206666e-004
1.814717e+003,4.490912e-004
1.816646e+003,2.300628e-004
1.818574e+003,5.686507e-004
1.820502e+003,6.663613e-004
1.822431e+003,7.701926e-004
1.824360e+003,7.393919e-004
1.826288e+003,6.773733e-004
1.828217e+003,6.022900e-004
1.830145e+003,5.933866e-004
1.832073e+003,1.920462e-004
1.834002e+003,1.130253e-004
1.835931e+003,-1.230240e-004
1.837859e+003,-1.505017e-004
1.839788e+003,-2.483167e-004
1.841716e+003,-1.418255e-004
1.843645e+003,-1.456775e-004
1.845573e+003,1.752004e-005
1.847501e+003,-2.228543e-004
1.849430e+003,-1.862571e-004
1.851359e+003,-2.310835e-004
1.853287e+003,-1.511984e-004
1.855216e+003,-3.517941e-004
1.857144e+003,-3.933981e-004
1.859073e+003,-4.349574e-004
1.861001e+003,-1.376607e-004
1.862929e+003,-2.882630e-004
1.864858e+003,-4.436336e-004
1.866787e+003,-5.115792e-004
1.868715e+003,-2.141707e-004
1.870644e+003,-4.288629e-004
1.872572e+003,-4.299656e-004
1.874500e+003,-5.790554e-004
1.876429e+003,-5.575940e-004
1.878357e+003,-7.279068e-004
1.880286e+003,-5.665310e-004
1.882215e+003,-5.868822e-004
1.884143e+003,-6.347001e-004
1.886072e+003,-7.866472e-004
1.888000e+003,-5.213432e-004
1.889928e+003,-5.861633e-004
1.891857e+003,-4.961826e-004
1.893785e+003,-4.771538e-004
1.895714e+003,-2.326332e-004
1.897643e+003,-4.256517e-004
1.899571e+003,-4.009679e-004
1.901500e+003,-3.968328e-004
1.903428e+003,-3.927089e-004
1.905356e+003,-3.885888e-004
1.907285e+003,-3.844835e-004
1.909213e+003,-3.803894e-004
1.911142e+003,-3.762916e-004
1.913071e+003,-3.722124e-004
1.914999e+003,-3.681369e-004
1.916927e+003,-3.640726e-004
1.918856e+003,-3.600083e-004
1.920784e+003,-3.559589e-004
1.922713e+003,-3.519207e-004
1.924641e+003,-3.478862e-004
1.926570e+003,-3.438629e-004
1.928499e+003,-3.398433e-004
1.930427e+003,-3.358349e-004
1.932355e+003,-3.318377e-004
1.934284e+003,-3.278404e-004
1.936212e+003,-3.238618e-004
1.938141e+003,-3.198870e-004
1.940070e+003,-3.159195e-004
1.941998e+003,-3.119595e-004
1.943927e+003,-3.080070e-004
1.945855e+003,-3.040656e-004
1.947783e+003,-3.001317e-004
1.949712e+003,-2.962090e-004
1.951640e+003,-2.922900e-004
1.953569e+003,-2.883859e-004
1.955498e+003,-2.844781e-004
1.957426e+003,-2.805889e-004
1.959354e+003,-2.767034e-004
1.961283e+003,-2.728291e-004
1.963211e+003,-2.689622e-004
1.965140e+003,-2.651028e-004
1.967068e+003,-2.612546e-004
1.968997e+003,-2.574064e-004
1.970926e+003,-2.535731e-004
1.972854e+003,-2.497472e-004
1.974782e+003,-2.459325e-004
1.976711e+003,-2.421252e-004
1.978639e+003,-2.383217e-004
1.980568e+003,-2.345257e-004
1.982496e+003,-2.307408e-004
1.984425e+003,-2.269670e-004
1.986354e+003,-2.231970e-004
1.988282e+003,-2.194382e-004
1.990210e+003,-2.156869e-004
1.992139e+003,-2.119429e-004
1.994067e+003,-2.082065e-004
1.995996e+003,-2.044812e-004
1.997924e+003,-2.007671e-004
1.999853e+003,-1.970530e-004
2.001781e+003,-1.933537e-004
2.003710e+003,-1.896620e-004
2.005638e+003,-1.859739e-004
2.007567e+003,-1.822971e-004
2.009495e+003,-1.786277e-004
2.011424e+003,-1.749694e-004
2.013352e+003,-1.713187e-004
2.015281e+003,-1.676716e-004
2.017209e+003,-1.640394e-004
2.019138e+003,-1.604110e-004
2.021066e+003,-1.567900e-004
2.022995e+003,-1.531802e-004
2.024923e+003,-1.495779e-004
2.026852e+003,-1.459867e-004
2.028781e+003,-1.424029e-004
2.030709e+003,-1.388192e-004
2.032637e+003,-1.352541e-004
2.034566e+003,-1.316927e-004
2.036494e+003,-1.281388e-004
2.038423e+003,-1.245961e-004
2.040351e+003,-1.210608e-004
2.042280e+003,-1.175329e-004
2.044208e+003,-1.140162e-004
2.046137e+003,-1.105033e-004
2.048065e+003,-1.069978e-004
2.049994e+003,-1.035072e-004
2.051922e+003,-1.000203e-004
2.053851e+003,-9.654462e-005
2.055779e+003,-9.306893e-005
2.057708e+003,-8.960813e-005
2.059636e+003,-8.615851e-005
2.061565e+003,-8.271262e-005
2.063493e+003,-7.927790e-005
2.065422e+003,-7.585064e-005
2.067350e+003,-7.243454e-005
2.069279e+003,-6.901845e-005
2.071207e+003,-6.561354e-005
2.073136e+003,-6.221980e-005
2.075064e+003,-5.883351e-005
2.076993e+003,-5.545467e-005
2.078921e+003,-5.208701e-005
2.080850e+003,-4.872680e-005
2.082778e+003,-4.537031e-005
2.084707e+003,-4.202127e-005
2.086635e+003,-3.868714e-005
2.088564e+003,-3.536046e-005
2.090492e+003,-3.204122e-005
2.092421e+003,-2.872944e-005
2.094349e+003,-2.542511e-005
2.096278e+003,-2.213195e-005
2.098206e+003,-1.883879e-005
2.100135e+003,-1.556054e-005
2.102063e+003,-1.229346e-005
2.103992e+003,-9.030104e-006
2.105920e+003,-5.777925e-006
2.107849e+003,-2.529472e-006
2.109777e+003,7.078052e-007
2.111706e+003,3.937632e-006
2.113634e+003,7.156283e-006
2.115563e+003,1.036748e-005
2.117491e+003,1.357123e-005
2.119420e+003,1.676753e-005
2.121348e+003,1.996011e-005
2.123277e+003,2.313778e-005
2.125205e+003,2.630800e-005
2.127134e+003,2.946705e-005
2.129062e+003,3.262237e-005
2.130991e+003,3.577024e-005
2.132919e+003,3.891066e-005
2.134848e+003,4.203990e-005
2.136776e+003,4.516169e-005
2.138705e+003,4.827231e-005
2.140633e+003,5.137548e-005
2.142562e+003,5.447119e-005
2.144490e+003,5.755946e-005
2.146419e+003,6.064028e-005
2.148347e+003,6.371364e-005
2.150276e+003,6.677583e-005
2.152204e+003,6.983057e-005
2.154133e+003,7.287785e-005
2.156061e+003,7.591769e-005
2.157990e+003,7.895380e-005
2.159918e+003,8.196756e-005
2.161847e+003,8.498132e-005
2.163775e+003,8.798763e-005
2.165704e+003,9.098276e-005
2.167632e+003,9.396672e-005
2.169561e+003,9.694695e-005
2.171489e+003,9.991974e-005
2.173418e+003,1.028888e-004
2.175346e+003,1.058429e-004
2.177275e+003,1.087897e-004
2.179203e+003,1.117289e-004
2.181132e+003,1.146570e-004
2.183060e+003,1.175813e-004
2.184989e+003,1.204982e-004
2.186917e+003,1.234040e-004
2.188846e+003,1.262985e-004
2.190774e+003,1.291893e-004
2.192703e+003,1.320690e-004
2.194631e+003,1.349412e-004
2.196560e+003,1.378022e-004
2.198488e+003,1.406632e-004
2.200417e+003,1.435168e-004
2.202345e+003,1.463480e-004
2.204274e+003,1.491793e-004
2.206202e+003,1.519993e-004
2.208131e+003,1.548193e-004
2.210059e+003,1.576245e-004
2.211988e+003,1.604185e-004
2.213916e+003,1.632050e-004
2.215845e+003,1.659840e-004
2.217773e+003,1.687631e-004
2.219702e+003,1.715273e-004
2.221630e+003,1.742840e-004
2.223559e+003,1.770370e-004
2.225487e+003,1.797751e-004
2.227416e+003,1.825057e-004
2.229344e+003,1.852252e-004
2.231273e+003,1.879446e-004
2.233201e+003,1.906529e-004
2.235130e+003,1.933500e-004
2.237058e+003,1.960397e-004
2.238987e+003,1.987219e-004
2.240915e+003,2.013892e-004
2.242844e+003,2.040565e-004
2.244772e+003,2.067201e-004
2.246701e+003,2.093613e-004
2.248629e+003,2.120063e-004
2.250558e+003,2.146363e-004
2.252486e+003,2.172664e-004
2.254415e+003,2.198778e-004
2.256343e+003,2.224818e-004
2.258272e+003,2.250783e-004
2.260200e+003,2.276711e-004
2.262129e+003,2.302602e-004
2.264057e+003,2.328306e-004
2.265986e+003,2.353899e-004
2.267914e+003,2.379529e-004
2.269843e+003,2.405010e-004
2.271771e+003,2.430417e-004
2.273700e+003,2.455674e-004
2.275628e+003,2.481043e-004
2.277557e+003,2.506189e-004
2.279485e+003,2.531260e-004
2.281414e+003,2.556220e-004
2.283342e+003,2.581067e-004
2.285271e+003,2.605990e-004
2.287199e+003,2.630726e-004
2.289128e+003,2.655387e-004
2.291056e+003,2.679937e-004
2.292985e+003,2.704449e-004
2.294913e+003,2.728850e-004
2.296842e+003,2.753176e-004
2.298770e+003,2.777390e-004
2.300699e+003,2.801605e-004
2.302627e+003,2.825744e-004
2.304556e+003,2.849735e-004
2.306484e+003,2.873577e-004
2.308413e+003,2.897419e-004
2.310341e+003,2.921149e-004
2.312270e+003,2.944879e-004
2.314198e+003,2.968460e-004
2.316127e+003,2.991892e-004
2.318055e+003,3.015287e-004
2.319984e+003,3.038682e-004
2.321912e+003,3.061928e-004
2.323841e+003,3.085136e-004
2.325769e+003,3.108196e-004
2.327698e+003,3.131218e-004
2.329626e+003,3.154129e-004
2.331555e+003,3.176928e-004
2.333483e+003,3.199689e-004
2.335412e+003,3.222376e-004
2.337340e+003,3.244989e-004
2.339269e+003,3.267489e-004
2.341197e+003,3.289953e-004
2.343126e+003,3.312230e-004
2.345054e+003,3.334470e-004
2.346983e+003,3.356710e-004
2.348911e+003,3.378801e-004
2.350840e+003,3.400780e-004
2.352768e+003,3.422722e-004
2.354697e+003,3.444552e-004
2.356625e+003,3.466308e-004
2.358554e+003,3.487989e-004
2.360482e+003,3.509559e-004
2.362411e+003,3.531091e-004
2.364339e+003,3.552586e-004
2.366268e+003,3.573932e-004
2.368196e+003,3.595129e-004
2.370125e+003,3.616251e-004
2.372053e+003,3.637411e-004
2.373982e+003,3.658421e-004
2.375910e+003,3.679357e-004
2.377839e+003,3.700256e-004
2.379767e+003,3.721006e-004
2.381696e+003,3.741644e-004
2.383624e+003,3.762245e-004
2.385553e+003,3.782734e-004
2.387481e+003,3.803186e-004
2.389410e+003,3.823563e-004
2.391338e+003,3.843866e-004
2.393267e+003,3.864057e-004
2.395195e+003,3.884099e-004
2.397124e+003,3.904104e-004
2.399052e+003,3.924035e-004
2.400981e+003,3.876239e-004
2.402909e+003,3.945567e-004
2.404838e+003,3.853180e-004
2.406766e+003,6.529391e-004
2.408695e+003,9.654947e-004
2.410623e+003,9.526312e-004
2.412552e+003,9.251051e-004
2.414480e+003,8.397773e-004
2.416409e+003,8.607134e-004
2.418337e+003,9.691976e-004
2.420266e+003,9.392053e-004
2.422194e+003,7.356331e-004
2.424123e+003,7.336996e-004
2.426051e+003,7.445291e-004
2.427979e+003,8.247085e-004
2.429908e+003,7.008389e-004
2.431837e+003,7.707365e-004
2.433765e+003,8.505099e-004
2.435694e+003,9.257235e-004
2.437622e+003,9.627342e-004
2.439551e+003,9.422079e-004
2.441479e+003,8.605197e-004
2.443407e+003,8.102246e-004
2.445336e+003,8.077510e-004
2.447265e+003,8.865818e-004
2.449193e+003,9.330772e-004
2.451122e+003,1.035459e-003
2.453050e+003,1.107909e-003
2.454979e+003,1.240037e-003
2.456907e+003,1.117118e-003
2.458836e+003,9.687208e-004
2.460764e+003,8.182190e-004
2.462693e+003,8.931160e-004
2.464621e+003,8.230880e-004
2.466550e+003,7.847659e-004
2.468478e+003,9.709895e-004
2.470406e+003,1.134966e-003
2.472335e+003,1.092438e-003
2.474264e+003,1.097992e-003
2.476192e+003,1.202941e-003
2.478121e+003,1.372118e-003
2.480049e+003,1.284722e-003
2.481978e+003,1.226615e-003
2.483906e+003,1.282599e-003
2.485835e+003,1.384705e-003
2.487763e+003,1.375195e-003
2.489692e+003,1.478922e-003
2.491620e+003,1.574203e-003
2.493549e+003,1.541909e-003
2.495477e+003,1.494948e-003
2.497406e+003,1.509059e-003
2.499334e+003,1.620144e-003
2.501263e+003,1.828823e-003
2.503191e+003,1.720835e-003
2.505120e+003,1.551412e-003
2.507048e+003,1.568563e-003
2.508977e+003,1.713276e-003
2.510905e+003,1.744237e-003
2.512833e+003,1.836620e-003
2.514762e+003,1.970917e-003
2.516691e+003,2.070818e-003
2.518619e+003,2.143171e-003
2.520548e+003,2.457377e-003
2.522476e+003,2.579566e-003
2.524405e+003,2.770711e-003
2.526333e+003,2.809796e-003
2.528261e+003,2.623931e-003
2.530190e+003,2.680335e-003
2.532119e+003,2.985794e-003
2.534047e+003,3.016800e-003
2.535976e+003,2.934005e-003
2.537904e+003,2.891421e-003
2.539833e+003,2.972979e-003
2.541761e+003,2.920032e-003
2.543689e+003,3.037084e-003
2.545618e+003,3.351331e-003
2.547547e+003,3.626771e-003
2.549475e+003,3.815703e-003
2.551404e+003,3.955245e-003
2.553332e+003,3.906276e-003
2.555260e+003,3.912620e-003
2.557189e+003,4.042521e-003
2.559117e+003,4.174247e-003
2.561046e+003,4.226983e-003
2.562975e+003,4.337702e-003
2.564903e+003,4.285850e-003
2.566832e+003,4.372794e-003
2.568760e+003,4.572194e-003
2.570688e+003,4.753839e-003
2.572617e+003,4.857708e-003
2.574546e+003,4.957344e-003
2.576474e+003,5.070455e-003
2.578403e+003,5.313970e-003
2.580331e+003,5.450398e-003
2.582260e+003,5.740643e-003
2.584188e+003,6.020177e-003
2.586116e+003,6.234396e-003
2.588045e+003,6.162431e-003
2.589974e+003,6.304570e-003
2.591902e+003,6.652854e-003
2.593831e+003,6.940357e-003
2.595759e+003,7.116303e-003
2.597688e+003,7.295541e-003
2.599616e+003,7.501129e-003
2.601544e+003,7.763900e-003
2.603473e+003,8.005735e-003
2.605402e+003,8.163128e-003
2.607330e+003,8.376665e-003
2.609259e+003,8.638807e-003
2.611187e+003,8.937426e-003
2.613115e+003,9.262055e-003
2.615044e+003,9.577051e-003
2.616972e+003,9.951081e-003
2.618901e+003,1.022927e-002
2.620830e+003,1.044377e-002
2.622758e+003,1.075879e-002
2.624687e+003,1.107536e-002
2.626615e+003,1.143609e-002
2.628543e+003,1.193032e-002
2.630472e+003,1.232116e-002
2.632400e+003,1.260047e-002
2.634329e+003,1.281795e-002
2.636258e+003,1.299081e-002
2.638186e+003,1.303904e-002
2.640115e+003,1.299644e-002
2.642043e+003,1.301167e-002
2.643971e+003,1.302951e-002
2.645900e+003,1.308083e-002
2.647828e+003,1.317047e-002
2.649757e+003,1.324071e-002
2.651686e+003,1.334234e-002
2.653614e+003,1.346179e-002
2.655542e+003,1.360388e-002
2.657471e+003,1.371590e-002
2.659399e+003,1.377425e-002
2.661328e+003,1.366986e-002
2.663256e+003,1.340909e-002
2.665185e+003,1.319128e-002
2.667114e+003,1.308803e-002
2.669042e+003,1.297945e-002
2.670970e+003,1.282393e-002
2.672899e+003,1.267883e-002
2.674827e+003,1.260050e-002
2.676756e+003,1.253469e-002
2.678685e+003,1.239285e-002
2.680613e+003,1.224935e-002
2.682542e+003,1.213250e-002
2.684470e+003,1.207037e-002
2.686398e+003,1.205118e-002
2.688327e+003,1.190436e-002
2.690255e+003,1.170016e-002
2.692184e+003,1.154333e-002
2.694113e+003,1.148875e-002
2.696041e+003,1.147784e-002
2.697969e+003,1.147001e-002
2.699898e+003,1.152390e-002
2.701826e+003,1.165610e-002
2.703755e+003,1.181544e-002
2.705683e+003,1.190136e-002
2.707612e+003,1.202344e-002
2.709541e+003,1.220398e-002
2.711469e+003,1.231000e-002
2.713397e+003,1.244647e-002
2.715326e+003,1.264300e-002
2.717254e+003,1.287696e-002
2.719183e+003,1.310054e-002
2.721111e+003,1.330356e-002
2.723040e+003,1.352522e-002
2.724969e+003,1.382137e-002
2.726897e+003,1.413396e-002
2.728825e+003,1.439161e-002
2.730754e+003,1.458617e-002
2.732682e+003,1.474699e-002
2.734611e+003,1.482031e-002
2.736539e+003,1.488196e-002
2.738468e+003,1.497623e-002
2.740396e+003,1.503793e-002
2.742325e+003,1.506495e-002
2.744253e+003,1.500621e-002
2.746182e+003,1.498554e-002
2.748110e+003,1.499053e-002
2.750039e+003,1.504624e-002
2.751967e+003,1.516574e-002
2.753896e+003,1.526031e-002
2.755824e+003,1.547738e-002
2.757753e+003,1.584014e-002
2.759681e+003,1.621228e-002
2.761610e+003,1.654052e-002
2.763538e+003,1.693923e-002
2.765467e+003,1.730553e-002
2.767395e+003,1.771747e-002
2.769324e+003,1.815282e-002
2.771252e+003,1.865343e-002
2.773181e+003,1.929376e-002
2.775109e+003,2.001641e-002
2.777038e+003,2.080318e-002
2.778966e+003,2.169956e-002
2.780895e+003,2.270250e-002
2.782823e+003,2.376625e-002
2.784752e+003,2.491369e-002
2.786680e+003,2.622877e-002
2.788609e+003,2.766578e-002
2.790537e+003,2.907740e-002
2.792466e+003,3.058966e-002
2.794394e+003,3.227331e-002
2.796323e+003,3.402079e-002
2.798251e+003,3.578493e-002
2.800180e+003,3.757995e-002
2.802108e+003,3.951566e-002
2.804037e+003,4.161211e-002
2.805965e+003,4.388096e-002
2.807894e+003,4.636161e-002
2.809822e+003,4.913588e-002
2.811751e+003,5.230378e-002
2.813679e+003,5.584592e-002
2.815608e+003,5.996178e-002
2.817536e+003,6.485195e-002
2.819465e+003,7.057219e-002
2.821393e+003,7.730295e-002
2.823322e+003,8.548360e-002
2.825250e+003,9.554417e-002
2.827179e+003,1.082880e-001
2.829107e+003,1.247850e-001
2.831036e+003,1.466813e-001
2.832964e+003,1.765990e-001
2.834893e+003,2.188908e-001
2.836821e+003,2.792218e-001
2.838750e+003,3.663391e-001
2.840678e+003,4.940890e-001
2.842607e+003,6.788504e-001
2.844535e+003,9.253682e-001
2.846464e+003,1.170299e+000
2.848392e+003,1.219546e+000
2.850321e+003,1.013523e+000
2.852249e+003,7.608384e-001
2.854178e+003,5.753968e-001
2.856106e+003,4.489177e-001
2.858035e+003,3.593464e-001
2.859963e+003,2.948950e-001
2.861892e+003,2.492751e-001
2.863820e+003,2.183697e-001
2.865749e+003,1.995128e-001
2.867677e+003,1.900334e-001
2.869606e+003,1.867202e-001
2.871534e+003,1.867152e-001
2.873463e+003,1.894951e-001
2.875391e+003,1.966161e-001
2.877320e+003,2.094260e-001
2.879248e+003,2.278004e-001
2.881177e+003,2.507039e-001
2.883105e+003,2.772180e-001
2.885034e+003,3.070104e-001
2.886962e+003,3.393997e-001
2.888891e+003,3.733962e-001
2.890819e+003,4.080926e-001
2.892748e+003,4.430063e-001
2.894676e+003,4.778897e-001
2.896605e+003,5.133600e-001
2.898533e+003,5.508062e-001
2.900462e+003,5.926686e-001
2.902390e+003,6.428080e-001
2.904319e+003,7.067664e-001
2.906247e+003,7.922269e-001
2.908176e+003,9.073838e-001
2.910104e+003,1.056816e+000
2.912033e+003,1.228304e+000
2.913961e+003,1.368399e+000
2.915890e+003,1.391770e+000
2.917818e+003,1.274975e+000
2.919747e+003,1.093001e+000
2.921675e+003,9.162072e-001
2.923604e+003,7.690791e-001
2.925532e+003,6.519059e-001
2.927461e+003,5.572653e-001
2.929389e+003,4.781525e-001
2.931318e+003,4.105022e-001
2.933246e+003,3.521458e-001
2.935175e+003,3.018902e-001
2.937103e+003,2.587478e-001
2.939032e+003,2.219019e-001
2.940960e+003,1.909755e-001
2.942889e+003,1.656509e-001
2.944817e+003,1.457796e-001
2.946746e+003,1.313582e-001
2.948674e+003,1.219248e-001
2.950603e+003,1.159145e-001
2.952531e+003,1.114809e-001
2.954460e+003,1.070052e-001
2.956388e+003,1.019428e-001
2.958317e+003,9.619027e-002
2.960245e+003,8.969968e-002
2.962174e+003,8.260804e-002
2.964102e+003,7.520077e-002
2.966031e+003,6.769425e-002
2.967959e+003,6.052119e-002
2.969888e+003,5.391394e-002
2.971816e+003,4.795714e-002
2.973745e+003,4.282819e-002
2.975673e+003,3.848025e-002
2.977602e+003,3.481125e-002
2.979530e+003,3.179004e-002
2.981459e+003,2.923984e-002
2.983387e+003,2.718312e-002
2.985316e+003,2.542346e-002
2.987244e+003,2.396344e-002
2.989173e+003,2.282222e-002
2.991101e+003,2.196446e-002
2.993030e+003,2.143510e-002
2.994958e+003,2.116564e-002
2.996887e+003,2.116733e-002
2.998815e+003,2.140872e-002
3.000744e+003,2.169968e-002
3.002672e+003,2.184927e-002
3.004601e+003,2.176240e-002
3.006529e+003,2.133574e-002
3.008458e+003,2.058146e-002
3.010386e+003,1.961654e-002
3.012315e+003,1.851479e-002
3.014243e+003,1.735920e-002
3.016172e+003,1.619750e-002
3.018100e+003,1.522299e-002
3.020029e+003,1.439928e-002
3.021957e+003,1.360162e-002
3.023886e+003,1.289711e-002
3.025814e+003,1.234571e-002
3.027743e+003,1.181894e-002
3.029671e+003,1.144872e-002
3.031600e+003,1.109155e-002
3.033528e+003,1.067497e-002
3.035457e+003,1.026180e-002
3.037385e+003,9.919927e-003
3.039314e+003,9.588361e-003
3.041242e+003,9.279288e-003
3.043171e+003,9.009942e-003
3.045099e+003,8.650772e-003
3.047028e+003,8.351818e-003
3.048956e+003,8.122601e-003
3.050885e+003,7.814281e-003
3.052813e+003,7.616393e-003
3.054742e+003,7.463902e-003
3.056670e+003,7.387407e-003
3.058599e+003,7.251091e-003
3.060527e+003,7.002413e-003
3.062456e+003,6.802946e-003
3.064384e+003,6.790474e-003
3.066313e+003,6.679259e-003
3.068241e+003,6.409131e-003
3.070170e+003,6.224856e-003
3.072098e+003,6.155796e-003
3.074027e+003,6.071039e-003
3.075955e+003,5.968839e-003
3.077884e+003,5.862504e-003
3.079812e+003,5.772114e-003
3.081741e+003,5.629070e-003
3.083669e+003,5.465664e-003
3.085598e+003,5.269118e-003
3.087526e+003,5.038872e-003
3.089455e+003,4.875384e-003
3.091383e+003,4.665844e-003
3.093312e+003,4.357077e-003
3.095240e+003,4.104480e-003
3.097169e+003,3.926434e-003
3.099097e+003,3.739856e-003
3.101026e+003,3.508173e-003
3.102954e+003,3.205970e-003
3.104883e+003,2.961807e-003
3.106811e+003,2.860770e-003
3.108740e+003,2.790116e-003
3.110668e+003,2.764463e-003
3.112597e+003,2.684645e-003
3.114525e+003,2.579145e-003
3.116454e+003,2.551131e-003
3.118382e+003,2.473511e-003
3.120311e+003,2.273530e-003
3.122239e+003,2.193704e-003
3.124168e+003,2.227336e-003
3.126096e+003,2.232954e-003
3.128025e+003,2.097115e-003
3.129953e+003,1.988113e-003
3.131882e+003,1.986451e-003
3.133810e+003,2.000116e-003
3.135739e+003,1.997702e-003
3.137667e+003,1.966007e-003
3.139596e+003,1.940757e-003
3.141524e+003,1.933783e-003
3.143453e+003,1.927890e-003
3.145381e+003,1.948014e-003
3.147310e+003,1.963653e-003
3.149238e+003,1.978651e-003
3.151167e+003,1.820378e-003
3.153095e+003,1.781791e-003
3.155024e+003,1.821138e-003
3.156952e+003,1.816668e-003
3.158881e+003,1.819231e-003
3.160809e+003,1.800068e-003
3.162738e+003,1.780637e-003
3.164666e+003,1.805604e-003
3.166594e+003,1.855485e-003
3.168523e+003,1.879081e-003
3.170452e+003,1.912877e-003
3.172380e+003,1.927786e-003
3.174309e+003,1.833417e-003
3.176237e+003,1.881428e-003
3.178166e+003,2.014846e-003
3.180094e+003,1.988314e-003
3.182022e+003,2.006941e-003
3.183951e+003,2.094746e-003
3.185880e+003,2.112232e-003
3.187808e+003,2.080999e-003
3.189737e+003,2.062842e-003
3.191665e+003,2.075210e-003
3.193594e+003,2.000488e-003
3.195522e+003,2.062477e-003
3.197450e+003,2.228372e-003
3.199379e+003,2.119727e-003
3.201308e+003,1.953721e-003
3.203236e+003,1.898386e-003
3.205165e+003,1.844525e-003
3.207093e+003,1.850277e-003
3.209021e+003,1.974463e-003
3.210950e+003,2.032094e-003
3.212878e+003,1.973450e-003
3.214807e+003,2.025083e-003
3.216736e+003,2.061941e-003
3.218664e+003,2.010949e-003
3.220593e+003,2.011850e-003
3.222521e+003,1.940951e-003
3.224449e+003,1.926042e-003
3.226378e+003,2.033673e-003
3.228307e+003,2.076402e-003
3.230235e+003,1.995534e-003
3.232164e+003,1.921229e-003
3.234092e+003,1.934357e-003
3.236021e+003,2.061278e-003
3.237949e+003,2.082974e-003
3.239877e+003,2.103679e-003
3.241806e+003,2.140917e-003
3.243735e+003,2.230778e-003
3.245663e+003,2.244227e-003
3.247592e+003,2.174206e-003
3.249520e+003,2.223253e-003
3.251448e+003,2.312109e-003
3.253377e+003,2.339937e-003
3.255305e+003,2.420560e-003
3.257234e+003,2.529927e-003
3.259163e+003,2.547905e-003
3.261091e+003,2.525099e-003
3.263020e+003,2.536476e-003
3.264948e+003,2.586074e-003
3.266876e+003,2.598614e-003
3.268805e+003,2.622031e-003
3.270733e+003,2.658948e-003
3.272662e+003,2.724722e-003
3.274591e+003,2.716079e-003
3.276519e+003,2.761811e-003
3.278448e+003,2.773225e-003
3.280376e+003,2.827391e-003
3.282304e+003,2.845153e-003
3.284233e+003,2.801321e-003
3.286161e+003,2.787486e-003
3.288090e+003,2.736658e-003
3.290019e+003,2.711624e-003
3.291947e+003,2.794087e-003
3.293875e+003,2.760887e-003
3.295804e+003,2.721876e-003
3.297732e+003,2.830990e-003
3.299661e+003,2.777889e-003
3.301589e+003,2.637640e-003
3.303518e+003,2.637111e-003
3.305447e+003,2.639353e-003
3.307375e+003,2.619281e-003
3.309303e+003,2.612956e-003
3.311232e+003,2.705865e-003
3.313160e+003,2.767637e-003
3.315089e+003,2.723359e-003
3.317018e+003,2.677061e-003
3.318946e+003,2.703428e-003
3.320875e+003,2.663895e-003
3.322803e+003,2.588332e-003
3.324731e+003,2.626285e-003
3.326660e+003,2.702862e-003
3.328588e+003,2.647638e-003
3.330517e+003,2.581194e-003
3.332446e+003,2.530374e-003
3.334374e+003,2.566844e-003
3.336302e+003,2.642184e-003
3.338231e+003,2.680868e-003
3.340159e+003,2.642691e-003
3.342088e+003,2.670780e-003
3.344016e+003,2.690740e-003
3.345945e+003,2.583385e-003
3.347874e+003,2.521299e-003
3.349802e+003,2.454460e-003
3.351730e+003,2.441742e-003
3.353659e+003,2.454907e-003
3.355587e+003,2.505012e-003
3.357516e+003,2.517052e-003
3.359444e+003,2.551742e-003
3.361373e+003,2.558045e-003
3.363302e+003,2.579987e-003
3.365230e+003,2.677552e-003
3.367158e+003,2.608396e-003
3.369087e+003,2.465494e-003
3.371015e+003,2.384603e-003
3.372944e+003,2.337076e-003
3.374872e+003,2.280429e-003
3.376801e+003,2.263099e-003
3.378729e+003,2.317853e-003
3.380658e+003,2.361111e-003
3.382586e+003,2.328545e-003
3.384515e+003,2.309985e-003
3.386443e+003,2.210043e-003
3.388372e+003,2.097085e-003
3.390300e+003,2.067223e-003
3.392229e+003,2.214238e-003
3.394157e+003,2.285667e-003
3.396086e+003,2.249695e-003
3.398014e+003,2.269216e-003
3.399943e+003,2.096966e-003
3.401871e+003,2.021722e-003
3.403800e+003,2.069078e-003
3.405728e+003,2.116129e-003
3.407657e+003,2.125502e-003
3.409585e+003,2.015188e-003
3.411514e+003,2.033323e-003
3.413442e+003,2.031550e-003
3.415371e+003,1.869693e-003
3.417299e+003,1.862109e-003
3.419228e+003,2.030760e-003
3.421156e+003,2.138190e-003
3.423085e+003,2.101436e-003
3.425013e+003,2.013169e-003
3.426942e+003,1.960613e-003
3.428870e+003,1.961172e-003
3.430799e+003,1.925774e-003
3.432727e+003,1.907095e-003
3.434656e+003,1.860105e-003
3.436584e+003,1.883268e-003
3.438513e+003,1.821667e-003
3.440441e+003,1.906820e-003
3.442370e+003,2.019607e-003
3.444298e+003,1.981415e-003
3.446227e+003,2.059825e-003
3.448155e+003,1.954049e-003
3.450084e+003,1.742601e-003
3.452012e+003,1.743220e-003
3.453941e+003,1.826696e-003
3.455869e+003,1.800925e-003
3.457798e+003,1.709916e-003
3.459726e+003,1.737453e-003
3.461655e+003,1.803204e-003
3.463583e+003,1.731507e-003
3.465512e+003,1.789950e-003
3.467440e+003,1.797713e-003
3.469369e+003,1.784392e-003
3.471297e+003,1.801476e-003
3.473226e+003,1.719013e-003
3.475154e+003,1.571156e-003
3.477083e+003,1.415141e-003
3.479011e+003,1.540281e-003
3.480940e+003,1.712367e-003
3.482868e+003,1.720577e-003
3.484797e+003,1.560010e-003
3.486725e+003,1.487404e-003
3.488654e+003,1.472823e-003
3.490582e+003,1.326375e-003
3.492511e+003,1.174383e-003
3.494439e+003,1.291253e-003
3.496368e+003,1.397982e-003
3.498296e+003,1.217924e-003
3.500225e+003,1.194209e-003
3.502153e+003,1.503676e-003
3.504082e+003,1.493052e-003
3.506010e+003,1.150064e-003
3.507939e+003,1.132749e-003
3.509867e+003,1.194924e-003
3.511796e+003,1.037337e-003
3.513724e+003,8.901507e-004
3.515653e+003,7.985160e-004
3.517581e+003,7.949248e-004
3.519510e+003,7.241368e-004
3.521438e+003,7.331669e-004
3.523367e+003,9.699687e-004
3.525295e+003,1.033038e-003
3.527224e+003,1.104921e-003
3.529152e+003,1.046762e-003
3.531081e+003,6.597042e-004
3.533009e+003,3.809482e-004
3.534938e+003,5.232617e-004
3.536866e+003,5.636662e-004
3.538795e+003,4.005879e-004
3.540723e+003,3.215969e-004
3.542652e+003,3.835782e-004
3.544580e+003,7.707179e-004
3.546509e+003,1.033708e-003
3.548437e+003,7.145628e-004
3.550366e+003,4.647672e-004
3.552294e+003,4.353747e-004
3.554223e+003,1.368076e-004
3.556151e+003,-4.415959e-005
3.558080e+003,-3.141910e-005
3.560008e+003,2.739578e-005
3.561937e+003,-1.447350e-004
3.563865e+003,-1.890212e-005
3.565794e+003,9.728447e-004
3.567722e+003,1.483575e-003
3.569651e+003,7.090196e-004
3.571579e+003,1.160651e-004
3.573508e+003,-1.291558e-004
3.575436e+003,-1.779199e-004
3.577365e+003,-1.823232e-004
3.579293e+003,-2.148151e-004
3.581222e+003,-3.194362e-004
3.583150e+003,-5.563796e-004
3.585079e+003,-3.519282e-004
3.587007e+003,8.575618e-004
3.588936e+003,9.809956e-004
3.590864e+003,5.204305e-004
3.592793e+003,6.401315e-004
3.594721e+003,1.069576e-003
3.596650e+003,1.298994e-003
3.598578e+003,1.674108e-003
3.600507e+003,1.942195e-003
3.602435e+003,1.725063e-003
3.604364e+003,1.400732e-003
3.606292e+003,1.573555e-003
3.608221e+003,2.064601e-003
3.610149e+003,1.810849e-003
3.612078e+003,1.657791e-003
3.614006e+003,1.370423e-003
3.615935e+003,8.698106e-004
3.617863e+003,1.088805e-003
3.619792e+003,1.552925e-003
3.621720e+003,9.171292e-004
3.623649e+003,2.294481e-004
3.625577e+003,-1.092181e-004
3.627506e+003,5.287230e-004
3.629434e+003,1.927413e-003
3.631363e+003,1.052834e-003
3.633291e+003,4.623383e-004
3.635220e+003,7.158518e-005
3.637148e+003,5.371124e-005
3.639077e+003,1.931563e-004
3.641005e+003,2.942458e-004
3.642934e+003,5.780160e-005
3.644862e+003,-2.458841e-004
3.646791e+003,-1.230836e-005
3.648719e+003,1.341335e-003
3.650648e+003,2.032146e-003
3.652576e+003,8.209348e-004
3.654505e+003,9.528548e-005
3.656433e+003,2.320856e-005
3.658362e+003,7.781386e-005
3.660290e+003,-4.991144e-005
3.662219e+003,-3.650710e-004
3.664147e+003,-6.957278e-004
3.666076e+003,-1.031645e-003
3.668004e+003,-8.127242e-004
3.669933e+003,2.562255e-005
3.671861e+003,-4.462600e-004
3.673790e+003,-5.803555e-004
3.675718e+003,5.082041e-004
3.677647e+003,5.892813e-004
3.679575e+003,6.990880e-005
3.681504e+003,-3.735498e-004
3.683432e+003,-5.816072e-004
3.685361e+003,-6.975532e-004
3.687289e+003,-4.972219e-004
3.689218e+003,1.622662e-004
3.691146e+003,2.404600e-004
3.693075e+003,-3.685355e-004
3.695003e+003,-7.049963e-004
3.696932e+003,-9.389743e-004
3.698860e+003,-1.050241e-003
3.700789e+003,-6.080344e-004
3.702717e+003,-1.129061e-004
3.704646e+003,-2.622455e-004
3.706574e+003,-5.528033e-004
3.708503e+003,-5.002841e-004
3.710431e+003,4.986972e-004
3.712360e+003,1.118794e-003
3.714288e+003,2.658740e-004
3.716217e+003,-4.177764e-004
3.718145e+003,-4.740357e-004
3.720074e+003,-4.252195e-004
3.722002e+003,-9.738654e-005
3.723931e+003,2.268031e-004
3.725859e+003,3.533214e-004
3.727788e+003,-2.416745e-004
3.729716e+003,-7.978156e-004
3.731645e+003,-6.088391e-004
3.733573e+003,5.418286e-004
3.735502e+003,1.508832e-003
3.737430e+003,9.273142e-004
3.739359e+003,2.391413e-004
3.741287e+003,-2.424121e-004
3.743216e+003,-9.600818e-005
3.745144e+003,7.343069e-004
3.747073e+003,4.884452e-004
3.749001e+003,2.146289e-004
3.750930e+003,1.214080e-003
3.752858e+003,1.003139e-003
3.754787e+003,2.409294e-004
3.756715e+003,-4.666299e-005
3.758644e+003,1.901910e-004
3.760572e+003,2.309233e-004
3.762501e+003,-2.484322e-004
3.764429e+003,-3.842935e-004
3.766358e+003,-4.737750e-004
3.768286e+003,-2.721101e-004
3.770215e+003,-6.675720e-006
3.772143e+003,-2.095997e-004
3.774072e+003,-5.246401e-004
3.776000e+003,-6.594881e-004
3.777929e+003,-2.266094e-004
3.779857e+003,1.613051e-004
3.781786e+003,-2.163649e-005
3.783714e+003,1.594722e-004
3.785643e+003,8.864701e-005
3.787571e+003,-3.847256e-004
3.789500e+003,-5.477741e-004
3.791428e+003,-4.396662e-004
3.793357e+003,-5.002096e-004
3.795285e+003,-2.371371e-004
3.797214e+003,1.349002e-004
3.799142e+003,8.806586e-005
3.801071e+003,1.070753e-003
3.802999e+003,1.063652e-003
3.804927e+003,4.639402e-004
3.806856e+003,7.854626e-004
3.808785e+003,6.059483e-004
3.810713e+003,1.281425e-004
3.812642e+003,-1.798272e-004
3.814570e+003,1.822487e-004
3.816499e+003,8.480772e-004
3.818427e+003,7.814392e-004
3.820355e+003,1.389906e-003
3.822284e+003,1.553796e-003
3.824213e+003,9.120628e-004
3.826141e+003,6.371588e-004
3.828070e+003,3.058836e-004
3.829998e+003,1.390427e-004
3.831927e+003,2.735555e-004
3.833855e+003,6.725788e-004
3.835783e+003,9.945408e-004
3.837712e+003,1.328401e-003
3.839641e+003,1.356564e-003
3.841569e+003,9.526610e-004
3.843498e+003,8.189008e-004
3.845426e+003,4.895031e-004
3.847354e+003,1.226291e-004
3.849283e+003,-1.465976e-004
3.851211e+003,9.419769e-005
3.853140e+003,1.326874e-003
3.855069e+003,1.938902e-003
3.856997e+003,1.284488e-003
3.858926e+003,2.199411e-004
3.860854e+003,3.658235e-005
3.862782e+003,6.526262e-004
3.864711e+003,1.312301e-003
3.866640e+003,7.369071e-004
3.868568e+003,7.777587e-004
3.870497e+003,1.152553e-003
3.872425e+003,1.284435e-003
3.874354e+003,1.305722e-003
3.876282e+003,6.362870e-004
3.878210e+003,3.200695e-004
3.880139e+003,8.781329e-004
3.882068e+003,9.953901e-004
3.883996e+003,1.061611e-003
3.885925e+003,1.066148e-003
3.887853e+003,2.036542e-004
3.889781e+003,2.470091e-004
3.891710e+003,1.147732e-003
3.893638e+003,9.567365e-004
3.895567e+003,3.918633e-004
3.897496e+003,5.804673e-004
3.899424e+003,1.129396e-003
3.901353e+003,1.447164e-003
3.903281e+003,2.001300e-003
3.905209e+003,1.910500e-003
3.907138e+003,1.021691e-003
3.909066e+003,4.305467e-004
3.910995e+003,2.540797e-004
3.912924e+003,1.744628e-004
3.914852e+003,4.091412e-004
3.916781e+003,7.220507e-004
3.918709e+003,8.070245e-004
3.920637e+003,5.530491e-004
3.922566e+003,5.504638e-004
3.924494e+003,8.725822e-004
3.926423e+003,5.702451e-004
3.928352e+003,3.992021e-004
3.930280e+003,4.641935e-004
3.932208e+003,7.883981e-004
3.934137e+003,7.082745e-004
3.936065e+003,3.454760e-004
3.937994e+003,1.317039e-004
3.939922e+003,1.365766e-004
3.941851e+003,5.311370e-004
3.943780e+003,4.975125e-004
3.945708e+003,2.046898e-004
3.947636e+003,4.056320e-004
3.949565e+003,5.643070e-004
3.951493e+003,3.756508e-004
3.953422e+003,1.850426e-004
3.955351e+003,1.169071e-004
3.957279e+003,7.494539e-005
3.959208e+003,1.554117e-004
3.961136e+003,3.384650e-004
3.963064e+003,1.081973e-004
3.964993e+003,-2.040714e-004
3.966921e+003,-1.382604e-004
3.968850e+003,-3.546476e-006
3.970779e+003,-1.148134e-005
3.972707e+003,-3.717840e-005
3.974635e+003,9.797513e-006
3.976564e+003,1.441613e-004
3.978492e+003,8.419156e-007
3.980421e+003,-5.298853e-005
3.982349e+003,2.662092e-005
3.984278e+003,2.463162e-005
3.986207e+003,-1.323819e-004
3.988135e+003,-1.698136e-004
3.990063e+003,-7.146597e-005
3.991992e+003,-8.730590e-005
3.993920e+003,-1.462474e-004
3.995849e+003,-1.184791e-004
3.997777e+003,-3.282204e-004
3.999706e+003,-2.922937e-004
4.001635e+003,0.000000e+000
