3.991992e+002,0.000000e+000
4.011277e+002,0.000000e+000
4.030562e+002,0.000000e+000
4.049846e+002,0.000000e+000
4.069131e+002,0.000000e+000
4.088416e+002,0.000000e+000
4.107701e+002,0.000000e+000
4.126986e+002,0.000000e+000
4.146271e+002,0.000000e+000
4.165556e+002,0.000000e+000
4.184841e+002,0.000000e+000
4.204126e+002,0.000000e+000
4.223411e+002,0.000000e+000
4.242697e+002,0.000000e+000
4.261982e+002,0.000000e+000
4.281266e+002,0.000000e+000
4.300551e+002,0.000000e+000
4.319836e+002,0.000000e+000
4.339121e+002,0.000000e+000
4.358406e+002,0.000000e+000
4.377691e+002,0.000000e+000
4.396976e+002,0.000000e+000
4.416261e+002,0.000000e+000
4.435546e+002,0.000000e+000
4.454831e+002,0.000000e+000
4.474116e+002,0.000000e+000
4.493401e+002,0.000000e+000
4.512686e+002,0.000000e+000
4.531971e+002,0.000000e+000
4.551256e+002,0.000000e+000
4.570541e+002,0.000000e+000
4.589826e+002,0.000000e+000
4.609111e+002,0.000000e+000
4.628396e+002,0.000000e+000
4.647681e+002,0.000000e+000
4.666966e+002,0.000000e+000
4.686251e+002,0.000000e+000
4.705536e+002,0.000000e+000
4.724821e+002,0.000000e+000
4.744106e+002,0.000000e+000
4.763391e+002,0.000000e+000
4.782676e+002,0.000000e+000
4.801961e+002,0.000000e+000
4.821246e+002,0.000000e+000
4.840531e+002,0.000000e+000
4.859816e+002,0.000000e+000
4.879101e+002,0.000000e+000
4.898386e+002,0.000000e+000
4.917671e+002,0.000000e+000
4.936956e+002,0.000000e+000
4.956241e+002,0.000000e+000
4.975526e+002,0.000000e+000
4.994811e+002,0.000000e+000
5.014096e+002,0.000000e+000
5.033381e+002,0.000000e+000
5.052666e+002,0.000000e+000
5.071951e+002,0.000000e+000
5.091236e+002,0.000000e+000
5.110521e+002,0.000000e+000
5.129806e+002,0.000000e+000
5.149091e+002,0.000000e+000
5.168376e+002,0.000000e+000
5.187661e+002,0.000000e+000
5.206946e+002,0.000000e+000
5.226230e+002,0.000000e+000
5.245516e+002,1.872145e-005
5.264800e+002,-8.205744e-005
5.284086e+002,-8.443510e-005
5.303370e+002,5.413964e-005
5.322656e+002,1.487914e-004
5.341940e+002,2.528541e-005
5.361226e+002,6.485730e-006
5.380510e+002,9.181676e-005
5.399796e+002,1.850375e-004
5.419081e+002,1.317868e-004
5.438365e+002,-4.506670e-006
5.457650e+002,-8.936785e-005
5.476935e+002,-4.700618e-005
5.496221e+002,-3.755558e-005
5.515505e+002,1.435676e-004
5.534790e+002,2.491302e-004
5.554075e+002,2.524462e-004
5.573361e+002,1.873919e-004
5.592645e+002,1.089606e-004
5.611931e+002,6.907154e-006
5.631215e+002,3.953278e-005
5.650500e+002,-7.469999e-005
5.669785e+002,-3.821310e-005
5.689070e+002,4.800688e-005
5.708355e+002,1.181383e-006
5.727640e+002,4.023546e-005
5.746925e+002,1.348415e-005
5.766210e+002,-1.268880e-004
5.785495e+002,-1.395419e-004
5.804780e+002,-1.813001e-004
5.824065e+002,-2.343138e-004
5.843350e+002,-2.803742e-004
5.862635e+002,-1.596459e-004
5.881920e+002,-4.938012e-005
5.901205e+002,-6.465288e-005
5.920490e+002,-1.205467e-004
5.939775e+002,-4.303642e-005
5.959060e+002,-5.538575e-006
5.978345e+002,4.000124e-005
5.997630e+002,2.168817e-005
6.016915e+002,8.112472e-005
6.036200e+002,7.965369e-005
6.055485e+002,1.526540e-004
6.074770e+002,7.782411e-005
6.094055e+002,6.108079e-005
6.113340e+002,7.693516e-005
6.132625e+002,1.967140e-005
6.151910e+002,-7.694587e-005
6.171195e+002,-6.114831e-005
6.190480e+002,-1.069633e-004
6.209765e+002,-1.456509e-004
6.229050e+002,-7.481035e-005
6.248335e+002,6.349245e-005
6.267620e+002,6.048288e-005
6.286905e+002,3.757421e-005
6.306190e+002,4.576519e-005
6.325475e+002,1.411824e-004
6.344760e+002,1.452137e-004
6.364045e+002,1.912671e-004
6.383330e+002,2.179975e-004
6.402615e+002,2.651759e-004
6.421899e+002,2.040248e-004
6.441185e+002,2.535325e-004
6.460470e+002,3.353269e-004
6.479755e+002,4.143436e-004
6.499039e+002,4.051467e-004
6.518325e+002,3.644312e-004
6.537610e+002,3.411900e-004
6.556895e+002,4.297765e-004
6.576179e+002,4.665116e-004
6.595464e+002,5.214978e-004
6.614750e+002,5.060723e-004
6.634034e+002,5.510598e-004
6.653319e+002,5.537365e-004
6.672604e+002,5.917707e-004
6.691890e+002,6.878469e-004
6.711174e+002,7.917602e-004
6.730460e+002,7.773861e-004
6.749745e+002,8.885926e-004
6.769030e+002,9.963103e-004
6.788314e+002,1.101274e-003
6.807599e+002,1.259709e-003
6.826885e+002,1.462606e-003
6.846169e+002,1.489284e-003
6.865454e+002,1.674734e-003
6.884739e+002,1.950695e-003
6.904025e+002,2.257878e-003
6.923309e+002,2.563645e-003
6.942594e+002,3.030961e-003
6.961879e+002,3.523619e-003
6.981165e+002,4.210376e-003
7.000449e+002,5.066962e-003
7.019734e+002,6.233779e-003
7.039019e+002,7.679821e-003
7.058304e+002,9.851063e-003
7.077589e+002,1.281692e-002
7.096874e+002,1.729665e-002
7.116159e+002,2.469477e-002
7.135444e+002,3.916522e-002
7.154729e+002,6.464619e-002
7.174014e+002,9.658092e-002
7.193299e+002,1.092662e-001
7.212584e+002,8.372112e-002
7.231869e+002,5.730219e-002
7.251154e+002,4.797639e-002
7.270439e+002,5.249262e-002
7.289724e+002,6.600980e-002
7.309009e+002,6.050663e-002
7.328294e+002,3.464767e-002
7.347579e+002,1.825742e-002
7.366864e+002,1.235539e-002
7.386149e+002,9.740687e-003
7.405434e+002,8.114167e-003
7.424719e+002,7.114744e-003
7.444004e+002,6.310936e-003
7.463289e+002,5.755505e-003
7.482574e+002,5.268861e-003
7.501859e+002,4.921407e-003
7.521144e+002,4.599155e-003
7.540428e+002,4.356172e-003
7.559714e+002,4.105989e-003
7.578999e+002,3.901971e-003
7.598284e+002,3.753445e-003
7.617568e+002,3.681724e-003
7.636854e+002,3.647740e-003
7.656139e+002,3.576765e-003
7.675424e+002,3.429962e-003
7.694709e+002,3.380163e-003
7.713994e+002,3.370192e-003
7.733279e+002,3.287764e-003
7.752563e+002,3.165655e-003
7.771849e+002,3.030472e-003
7.791134e+002,2.885316e-003
7.810419e+002,2.805465e-003
7.829703e+002,2.747285e-003
7.848989e+002,2.652403e-003
7.868274e+002,2.570131e-003
7.887559e+002,2.535263e-003
7.906843e+002,2.503251e-003
7.926129e+002,2.429882e-003
7.945414e+002,2.407474e-003
7.964698e+002,2.406706e-003
7.983983e+002,2.370057e-003
8.003268e+002,2.345642e-003
8.022554e+002,2.339647e-003
8.041838e+002,2.277253e-003
8.061123e+002,2.177736e-003
8.080408e+002,2.089809e-003
8.099694e+002,2.027622e-003
8.118978e+002,1.958916e-003
8.138263e+002,1.898009e-003
8.157548e+002,1.850416e-003
8.176833e+002,1.821638e-003
8.196118e+002,1.810216e-003
8.215403e+002,1.789966e-003
8.234689e+002,1.684004e-003
8.253973e+002,1.612978e-003
8.273258e+002,1.635747e-003
8.292543e+002,1.604654e-003
8.311829e+002,1.522095e-003
8.331113e+002,1.539477e-003
8.350398e+002,1.500855e-003
8.369683e+002,1.457018e-003
8.388969e+002,1.476710e-003
8.408253e+002,1.476830e-003
8.427538e+002,1.417846e-003
8.446823e+002,1.424301e-003
8.466108e+002,1.475149e-003
8.485393e+002,1.542993e-003
8.504678e+002,1.519827e-003
8.523963e+002,1.570030e-003
8.543248e+002,1.560494e-003
8.562533e+002,1.510715e-003
8.581818e+002,1.520336e-003
8.601103e+002,1.524382e-003
8.620388e+002,1.521789e-003
8.639673e+002,1.615499e-003
8.658958e+002,1.622185e-003
8.678243e+002,1.609881e-003
8.697528e+002,1.608511e-003
8.716813e+002,1.623638e-003
8.736098e+002,1.668416e-003
8.755383e+002,1.791872e-003
8.774668e+002,1.882602e-003
8.793953e+002,2.012014e-003
8.813238e+002,2.154468e-003
8.832523e+002,2.407125e-003
8.851808e+002,2.665884e-003
8.871093e+002,2.858481e-003
8.890378e+002,2.868380e-003
8.909663e+002,2.783076e-003
8.928948e+002,2.531220e-003
8.948232e+002,2.379830e-003
8.967518e+002,2.299591e-003
8.986803e+002,2.267830e-003
9.006088e+002,2.265311e-003
9.025372e+002,2.296218e-003
9.044658e+002,2.387885e-003
9.063943e+002,2.568320e-003
9.083228e+002,2.683532e-003
9.102512e+002,2.620627e-003
9.121797e+002,2.353650e-003
9.141083e+002,2.231280e-003
9.160367e+002,2.127729e-003
9.179653e+002,1.992952e-003
9.198937e+002,1.922847e-003
9.218223e+002,1.924353e-003
9.237507e+002,1.926357e-003
9.256793e+002,1.939027e-003
9.276077e+002,1.934469e-003
9.295363e+002,2.000264e-003
9.314647e+002,2.033997e-003
9.333932e+002,2.058532e-003
9.353217e+002,2.001855e-003
9.372502e+002,1.952640e-003
9.391787e+002,1.903123e-003
9.411072e+002,1.955256e-003
9.430358e+002,1.975952e-003
9.449642e+002,1.947024e-003
9.468928e+002,1.888628e-003
9.488212e+002,1.881958e-003
9.507498e+002,1.839384e-003
9.526782e+002,1.863640e-003
9.546068e+002,1.895732e-003
9.565352e+002,1.977105e-003
9.584637e+002,2.068586e-003
9.603922e+002,2.182611e-003
9.623207e+002,2.212105e-003
9.642492e+002,2.267983e-003
9.661777e+002,2.266769e-003
9.681062e+002,2.287464e-003
9.700347e+002,2.210077e-003
9.719632e+002,2.197446e-003
9.738917e+002,2.194714e-003
9.758202e+002,2.103038e-003
9.777487e+002,2.046170e-003
9.796772e+002,2.109756e-003
9.816057e+002,2.059690e-003
9.835342e+002,2.137020e-003
9.854627e+002,2.238311e-003
9.873912e+002,2.312294e-003
9.893197e+002,2.408339e-003
9.912482e+002,2.519851e-003
9.931767e+002,2.518283e-003
9.951052e+002,2.525900e-003
9.970337e+002,2.537621e-003
9.989622e+002,2.585373e-003
1.000891e+003,2.620935e-003
1.002819e+003,2.703996e-003
1.004748e+003,2.746773e-003
1.006676e+003,2.818262e-003
1.008605e+003,2.883413e-003
1.010533e+003,2.951953e-003
1.012462e+003,2.998381e-003
1.014390e+003,3.108931e-003
1.016319e+003,3.121462e-003
1.018247e+003,3.218857e-003
1.020176e+003,3.261948e-003
1.022104e+003,3.272991e-003
1.024033e+003,3.257512e-003
1.025961e+003,3.332709e-003
1.027890e+003,3.381709e-003
1.029818e+003,3.425784e-003
1.031747e+003,3.434784e-003
1.033675e+003,3.498251e-003
1.035604e+003,3.553981e-003
1.037532e+003,3.637967e-003
1.039461e+003,3.670384e-003
1.041389e+003,3.736303e-003
1.043318e+003,3.816308e-003
1.045246e+003,3.961816e-003
1.047175e+003,4.052752e-003
1.049103e+003,4.225740e-003
1.051032e+003,4.330030e-003
1.052960e+003,4.347725e-003
1.054889e+003,4.319970e-003
1.056817e+003,4.387965e-003
1.058746e+003,4.517287e-003
1.060674e+003,4.705630e-003
1.062603e+003,4.814381e-003
1.064531e+003,4.875239e-003
1.066460e+003,4.871435e-003
1.068388e+003,4.973595e-003
1.070317e+003,5.026927e-003
1.072245e+003,5.104143e-003
1.074174e+003,5.236766e-003
1.076102e+003,5.422764e-003
1.078031e+003,5.525374e-003
1.079959e+003,5.640872e-003
1.081888e+003,5.611246e-003
1.083816e+003,5.505502e-003
1.085745e+003,5.375377e-003
1.087673e+003,5.338679e-003
1.089602e+003,5.245735e-003
1.091530e+003,5.146635e-003
1.093459e+003,5.010625e-003
1.095387e+003,4.921518e-003
1.097316e+003,4.799525e-003
1.099244e+003,4.765050e-003
1.101173e+003,4.677664e-003
1.103101e+003,4.650133e-003
1.105030e+003,4.535094e-003
1.106958e+003,4.453268e-003
1.108887e+003,4.406910e-003
1.110815e+003,4.360234e-003
1.112744e+003,4.251736e-003
1.114672e+003,4.226666e-003
1.116601e+003,4.130034e-003
1.118529e+003,4.086581e-003
1.120458e+003,3.994490e-003
1.122386e+003,3.992164e-003
1.124315e+003,4.025828e-003
1.126243e+003,4.125442e-003
1.128172e+003,4.139007e-003
1.130100e+003,4.179354e-003
1.132029e+003,4.146955e-003
1.133957e+003,4.112705e-003
1.135885e+003,4.026168e-003
1.137814e+003,4.037250e-003
1.139743e+003,4.028504e-003
1.141671e+003,4.099593e-003
1.143600e+003,4.155448e-003
1.145528e+003,4.327733e-003
1.147457e+003,4.495231e-003
1.149385e+003,4.694448e-003
1.151314e+003,4.931047e-003
1.153242e+003,5.211749e-003
1.155171e+003,5.392677e-003
1.157099e+003,5.594241e-003
1.159028e+003,5.684766e-003
1.160956e+003,5.782320e-003
1.162885e+003,5.765853e-003
1.164813e+003,5.753993e-003
1.166742e+003,5.601884e-003
1.168670e+003,5.400908e-003
1.170599e+003,5.143559e-003
1.172527e+003,4.995327e-003
1.174456e+003,4.863375e-003
1.176384e+003,4.820890e-003
1.178313e+003,4.634903e-003
1.180241e+003,4.443903e-003
1.182170e+003,4.269972e-003
1.184098e+003,4.211003e-003
1.186027e+003,4.185810e-003
1.187955e+003,4.207460e-003
1.189884e+003,4.210805e-003
1.191812e+003,4.276268e-003
1.193740e+003,4.320701e-003
1.195669e+003,4.442103e-003
1.197598e+003,4.536293e-003
1.199526e+003,4.691010e-003
1.201455e+003,4.773160e-003
1.203383e+003,4.940351e-003
1.205312e+003,5.096200e-003
1.207240e+003,5.304291e-003
1.209168e+003,5.471539e-003
1.211097e+003,5.674344e-003
1.213026e+003,5.891085e-003
1.214954e+003,6.176359e-003
1.216883e+003,6.336243e-003
1.218811e+003,6.523054e-003
1.220740e+003,6.693961e-003
1.222668e+003,6.880643e-003
1.224596e+003,7.016327e-003
1.226525e+003,7.210929e-003
1.228453e+003,7.335241e-003
1.230382e+003,7.511373e-003
1.232311e+003,7.657051e-003
1.234239e+003,7.831466e-003
1.236167e+003,7.896222e-003
1.238096e+003,7.949765e-003
1.240025e+003,7.934286e-003
1.241953e+003,7.924055e-003
1.243882e+003,7.809721e-003
1.245810e+003,7.693850e-003
1.247739e+003,7.505147e-003
1.249667e+003,7.384817e-003
1.251595e+003,7.223619e-003
1.253524e+003,7.134950e-003
1.255453e+003,7.009481e-003
1.257381e+003,6.999951e-003
1.259310e+003,6.942240e-003
1.261238e+003,6.898858e-003
1.263167e+003,6.763035e-003
1.265095e+003,6.660460e-003
1.267023e+003,6.520272e-003
1.268952e+003,6.512958e-003
1.270880e+003,6.480126e-003
1.272809e+003,6.499384e-003
1.274738e+003,6.464073e-003
1.276666e+003,6.523191e-003
1.278594e+003,6.562768e-003
1.280523e+003,6.738373e-003
1.282451e+003,6.864184e-003
1.284380e+003,7.087035e-003
1.286308e+003,7.257301e-003
1.288237e+003,7.534683e-003
1.290166e+003,7.805088e-003
1.292094e+003,8.223352e-003
1.294022e+003,8.599300e-003
1.295951e+003,9.000197e-003
1.297879e+003,9.260231e-003
1.299808e+003,9.536686e-003
1.301736e+003,9.689003e-003
1.303665e+003,9.749169e-003
1.305594e+003,9.609933e-003
1.307522e+003,9.512931e-003
1.309450e+003,9.260330e-003
1.311379e+003,8.947968e-003
1.313307e+003,8.488887e-003
1.315236e+003,8.116974e-003
1.317164e+003,7.679766e-003
1.319093e+003,7.359914e-003
1.321021e+003,6.952602e-003
1.322950e+003,6.655537e-003
1.324878e+003,6.401121e-003
1.326807e+003,6.332358e-003
1.328735e+003,6.286984e-003
1.330664e+003,6.438312e-003
1.332592e+003,6.660578e-003
1.334521e+003,7.176056e-003
1.336449e+003,7.789829e-003
1.338378e+003,8.647668e-003
1.340306e+003,9.331352e-003
1.342235e+003,9.822706e-003
1.344163e+003,1.025185e-002
1.346092e+003,1.092645e-002
1.348021e+003,1.157885e-002
1.349949e+003,1.228431e-002
1.351877e+003,1.263397e-002
1.353806e+003,1.268108e-002
1.355734e+003,1.242510e-002
1.357663e+003,1.250701e-002
1.359591e+003,1.283640e-002
1.361520e+003,1.366250e-002
1.363448e+003,1.494269e-002
1.365377e+003,1.618067e-002
1.367305e+003,1.711828e-002
1.369234e+003,1.763879e-002
1.371162e+003,1.738392e-002
1.373091e+003,1.763052e-002
1.375019e+003,1.960253e-002
1.376948e+003,2.122239e-002
1.378876e+003,1.953819e-002
1.380805e+003,1.510616e-002
1.382733e+003,1.080476e-002
1.384662e+003,8.340893e-003
1.386590e+003,6.904760e-003
1.388519e+003,6.214730e-003
1.390447e+003,5.665941e-003
1.392376e+003,5.470085e-003
1.394304e+003,5.231224e-003
1.396233e+003,5.291103e-003
1.398161e+003,5.118934e-003
1.400090e+003,5.305856e-003
1.402018e+003,5.169144e-003
1.403947e+003,5.409233e-003
1.405875e+003,5.449152e-003
1.407804e+003,5.681270e-003
1.409732e+003,5.709035e-003
1.411661e+003,6.015182e-003
1.413589e+003,6.024803e-003
1.415518e+003,6.340927e-003
1.417446e+003,6.433669e-003
1.419375e+003,7.362288e-003
1.421303e+003,7.780304e-003
1.423232e+003,8.814152e-003
1.425160e+003,1.028187e-002
1.427089e+003,1.227925e-002
1.429017e+003,1.471206e-002
1.430946e+003,1.858346e-002
1.432874e+003,2.167967e-002
1.434803e+003,2.462485e-002
1.436731e+003,2.795535e-002
1.438660e+003,3.101918e-002
1.440588e+003,3.274332e-002
1.442517e+003,3.531555e-002
1.444445e+003,3.735603e-002
1.446374e+003,4.026922e-002
1.448302e+003,4.433846e-002
1.450231e+003,5.046416e-002
1.452159e+003,5.932223e-002
1.454088e+003,7.053938e-002
1.456016e+003,8.123006e-002
1.457945e+003,1.047553e-001
1.459873e+003,1.438907e-001
1.461802e+003,1.866747e-001
1.463730e+003,1.935837e-001
1.465659e+003,1.579494e-001
1.467587e+003,1.457031e-001
1.469516e+003,1.446830e-001
1.471444e+003,1.616265e-001
1.473373e+003,1.364669e-001
1.475301e+003,7.391806e-002
1.477230e+003,3.376629e-002
1.479158e+003,2.186933e-002
1.481087e+003,1.589165e-002
1.483015e+003,1.308518e-002
1.484944e+003,1.088212e-002
1.486872e+003,1.017215e-002
1.488801e+003,8.586127e-003
1.490729e+003,8.353517e-003
1.492658e+003,7.210922e-003
1.494586e+003,7.122188e-003
1.496515e+003,6.341708e-003
1.498443e+003,6.386686e-003
1.500372e+003,5.616454e-003
1.502300e+003,5.652660e-003
1.504229e+003,5.089564e-003
1.506157e+003,5.509454e-003
1.508086e+003,4.781421e-003
1.510014e+003,5.090959e-003
1.511943e+003,4.641365e-003
1.513871e+003,4.746779e-003
1.515800e+003,4.351920e-003
1.517728e+003,4.659953e-003
1.519657e+003,4.210886e-003
1.521585e+003,4.709772e-003
1.523514e+003,4.253688e-003
1.525442e+003,4.271729e-003
1.527371e+003,4.102311e-003
1.529299e+003,4.398227e-003
1.531228e+003,4.086618e-003
1.533156e+003,4.301869e-003
1.535085e+003,4.072582e-003
1.537013e+003,4.053511e-003
1.538942e+003,3.788309e-003
1.540870e+003,4.590694e-003
1.542799e+003,3.978736e-003
1.544727e+003,4.171552e-003
1.546656e+003,3.886491e-003
1.548584e+003,3.983404e-003
1.550513e+003,3.668983e-003
1.552441e+003,3.569122e-003
1.554370e+003,3.277575e-003
1.556298e+003,3.382360e-003
1.558227e+003,3.161218e-003
1.560155e+003,3.560023e-003
1.562084e+003,2.969673e-003
1.564012e+003,2.938788e-003
1.565941e+003,2.759161e-003
1.567869e+003,2.691288e-003
1.569798e+003,2.553107e-003
1.571726e+003,2.671077e-003
1.573655e+003,2.435198e-003
1.575583e+003,2.618016e-003
1.577512e+003,2.656585e-003
1.579440e+003,2.629610e-003
1.581369e+003,2.442515e-003
1.583297e+003,2.502207e-003
1.585226e+003,2.415842e-003
1.587154e+003,2.484514e-003
1.589083e+003,2.424518e-003
1.591011e+003,2.540383e-003
1.592940e+003,2.488985e-003
1.594868e+003,2.563713e-003
1.596797e+003,2.527761e-003
1.598725e+003,2.582578e-003
1.600654e+003,2.443861e-003
1.602582e+003,2.467888e-003
1.604511e+003,2.413646e-003
1.606439e+003,2.557461e-003
1.608368e+003,2.545915e-003
1.610296e+003,2.638000e-003
1.612225e+003,2.567288e-003
1.614153e+003,2.586661e-003
1.616082e+003,2.706220e-003
1.618010e+003,3.005410e-003
1.619939e+003,2.772679e-003
1.621867e+003,2.910076e-003
1.623796e+003,3.205579e-003
1.625724e+003,3.328652e-003
1.627653e+003,3.247860e-003
1.629581e+003,3.408180e-003
1.631510e+003,3.359220e-003
1.633438e+003,3.426082e-003
1.635367e+003,3.642609e-003
1.637295e+003,4.097695e-003
1.639224e+003,3.963327e-003
1.641152e+003,4.111637e-003
1.643081e+003,4.176337e-003
1.645009e+003,4.154084e-003
1.646938e+003,4.110780e-003
1.648866e+003,4.168680e-003
1.650795e+003,3.773153e-003
1.652723e+003,3.917454e-003
1.654652e+003,4.102508e-003
1.656580e+003,4.013039e-003
1.658509e+003,3.887881e-003
1.660437e+003,3.910169e-003
1.662366e+003,3.721314e-003
1.664294e+003,3.730495e-003
1.666223e+003,3.526093e-003
1.668151e+003,3.476733e-003
1.670080e+003,3.373424e-003
1.672008e+003,3.321584e-003
1.673937e+003,3.183626e-003
1.675865e+003,3.196077e-003
1.677794e+003,2.848202e-003
1.679722e+003,2.720915e-003
1.681651e+003,2.411606e-003
1.683579e+003,2.382025e-003
1.685508e+003,2.364496e-003
1.687436e+003,2.294626e-003
1.689365e+003,2.074819e-003
1.691293e+003,1.960928e-003
1.693222e+003,1.583003e-003
1.695150e+003,1.484046e-003
1.697079e+003,1.406288e-003
1.699007e+003,1.304425e-003
1.700936e+003,1.245206e-003
1.702864e+003,1.411857e-003
1.704793e+003,1.287874e-003
1.706721e+003,1.469472e-003
1.708650e+003,1.455627e-003
1.710578e+003,1.550928e-003
1.712507e+003,1.548804e-003
1.714435e+003,1.693066e-003
1.716364e+003,1.719441e-003
1.718292e+003,2.339553e-003
1.720221e+003,2.456138e-003
1.722149e+003,2.477005e-003
1.724078e+003,2.343085e-003
1.726006e+003,2.062084e-003
1.727935e+003,1.785127e-003
1.729863e+003,1.925904e-003
1.731792e+003,1.914639e-003
1.733720e+003,2.091203e-003
1.735649e+003,1.922583e-003
1.737577e+003,1.774205e-003
1.739506e+003,1.667667e-003
1.741434e+003,1.726279e-003
1.743363e+003,1.522820e-003
1.745291e+003,1.458289e-003
1.747220e+003,1.295324e-003
1.749148e+003,1.229689e-003
1.751077e+003,1.106290e-003
1.753005e+003,9.002443e-004
1.754934e+003,6.026551e-004
1.756862e+003,5.543269e-004
1.758791e+003,2.477765e-004
1.760719e+003,2.500731e-004
1.762648e+003,2.484247e-004
1.764576e+003,8.453988e-005
1.766505e+003,-1.426656e-004
1.768433e+003,-5.898997e-006
1.770362e+003,-6.686896e-007
1.772290e+003,1.519974e-004
1.774219e+003,-1.094639e-004
1.776147e+003,-2.794769e-004
1.778076e+003,-3.808551e-004
1.780004e+003,-1.566298e-004
1.781933e+003,-1.719091e-004
1.783861e+003,-1.467597e-004
1.785790e+003,-1.905542e-004
1.787718e+003,-1.422036e-004
1.789646e+003,-1.867097e-004
1.791575e+003,-6.885827e-005
1.793504e+003,-2.047960e-004
1.795432e+003,-2.536681e-004
1.797361e+003,-3.684182e-004
1.799289e+003,-3.178045e-004
1.801218e+003,-3.368407e-004
1.803146e+003,-3.378596e-004
1.805074e+003,-3.867336e-004
1.807003e+003,-3.448799e-004
1.808932e+003,-5.337223e-004
1.810860e+003,-6.125029e-004
1.812789e+003,-7.110201e-004
1.814717e+003,-8.346662e-004
1.816646e+003,-1.055278e-003
1.818574e+003,-6.439853e-004
1.820502e+003,-4.445408e-004
1.822431e+003,-3.685784e-004
1.824360e+003,-5.373061e-004
1.826288e+003,-7.048175e-004
1.828217e+003,-9.921938e-004
1.830145e+003,-8.349568e-004
1.832073e+003,-9.140894e-004
1.834002e+003,-9.126738e-004
1.835931e+003,-1.029748e-003
1.837859e+003,-9.109043e-004
1.839788e+003,-9.585340e-004
1.841716e+003,-9.678341e-004
1.843645e+003,-1.135040e-003
1.845573e+003,-1.042057e-003
1.847501e+003,-1.188258e-003
1.849430e+003,-1.014208e-003
1.851359e+003,-1.153065e-003
1.853287e+003,-1.114264e-003
1.855216e+003,-1.221761e-003
1.857144e+003,-1.134099e-003
1.859073e+003,-1.112081e-003
1.861001e+003,-9.886790e-004
1.862929e+003,-1.126837e-003
1.864858e+003,-8.058660e-004
1.866787e+003,-8.194316e-004
1.868715e+003,-7.957853e-004
1.870644e+003,-1.008527e-003
1.872572e+003,-9.859335e-004
1.874500e+003,-1.209665e-003
1.876429e+003,-1.309389e-003
1.878357e+003,-1.364669e-003
1.880286e+003,-1.038110e-003
1.882215e+003,-1.179250e-003
1.884143e+003,-1.145318e-003
1.886072e+003,-1.213247e-003
1.888000e+003,-7.350910e-004
1.889928e+003,-4.199222e-004
1.891857e+003,-3.360026e-004
1.893785e+003,-3.977008e-004
1.895714e+003,-1.519080e-004
1.897643e+003,-1.856834e-004
1.899571e+003,-1.238249e-004
1.901500e+003,-1.221020e-004
1.903428e+003,-1.203809e-004
1.905356e+003,-1.186728e-004
1.907285e+003,-1.169704e-004
1.909213e+003,-1.152754e-004
1.911142e+003,-1.135860e-004
1.913071e+003,-1.119059e-004
1.914999e+003,-1.102313e-004
1.916927e+003,-1.085643e-004
1.918856e+003,-1.069065e-004
1.920784e+003,-1.052544e-004
1.922713e+003,-1.036115e-004
1.924641e+003,-1.019724e-004
1.926570e+003,-1.003407e-004
1.928499e+003,-9.872019e-005
1.930427e+003,-9.710528e-005
1.932355e+003,-9.549782e-005
1.934284e+003,-9.389780e-005
1.936212e+003,-9.230338e-005
1.938141e+003,-9.071641e-005
1.940070e+003,-8.913688e-005
1.941998e+003,-8.756667e-005
1.943927e+003,-8.600205e-005
1.945855e+003,-8.444674e-005
1.947783e+003,-8.289516e-005
1.949712e+003,-8.135289e-005
1.951640e+003,-7.981807e-005
1.953569e+003,-7.829256e-005
1.955498e+003,-7.677265e-005
1.957426e+003,-7.525645e-005
1.959354e+003,-7.375143e-005
1.961283e+003,-7.225387e-005
1.963211e+003,-7.076189e-005
1.965140e+003,-6.927736e-005
1.967068e+003,-6.780215e-005
1.968997e+003,-6.633066e-005
1.970926e+003,-6.486848e-005
1.972854e+003,-6.341562e-005
1.974782e+003,-6.196648e-005
1.976711e+003,-6.052665e-005
1.978639e+003,-5.909242e-005
1.980568e+003,-5.766936e-005
1.982496e+003,-5.625002e-005
1.984425e+003,-5.484000e-005
1.986354e+003,-5.343370e-005
1.988282e+003,-5.203858e-005
1.990210e+003,-5.064905e-005
1.992139e+003,-4.926883e-005
1.994067e+003,-4.789233e-005
1.995996e+003,-4.652515e-005
1.997924e+003,-4.516542e-005
1.999853e+003,-4.381314e-005
2.001781e+003,-4.246645e-005
2.003710e+003,-4.112720e-005
2.005638e+003,-3.979914e-005
2.007567e+003,-3.847480e-005
2.009495e+003,-3.715791e-005
2.011424e+003,-3.585033e-005
2.013352e+003,-3.454648e-005
2.015281e+003,-3.325194e-005
2.017209e+003,-3.196485e-005
2.019138e+003,-3.068522e-005
2.021066e+003,-2.941303e-005
2.022995e+003,-2.814643e-005
2.024923e+003,-2.689101e-005
2.026852e+003,-2.563931e-005
2.028781e+003,-2.439506e-005
2.030709e+003,-2.315827e-005
2.032637e+003,-2.193265e-005
2.034566e+003,-2.070889e-005
2.036494e+003,-1.949444e-005
2.038423e+003,-1.828745e-005
2.040351e+003,-1.708977e-005
2.042280e+003,-1.589395e-005
2.044208e+003,-1.470931e-005
2.046137e+003,-1.353398e-005
2.048065e+003,-1.236051e-005
2.049994e+003,-1.120009e-005
2.051922e+003,-1.004525e-005
2.053851e+003,-8.892268e-006
2.055779e+003,-7.752329e-006
2.057708e+003,-6.619841e-006
2.059636e+003,-5.492941e-006
2.061565e+003,-4.371628e-006
2.063493e+003,-3.259629e-006
2.065422e+003,-2.158806e-006
2.067350e+003,-1.061708e-006
2.069279e+003,3.166497e-008
2.071207e+003,1.115724e-006
2.073136e+003,2.190471e-006
2.075064e+003,3.257766e-006
2.076993e+003,4.321337e-006
2.078921e+003,5.373731e-006
2.080850e+003,6.420538e-006
2.082778e+003,7.456169e-006
2.084707e+003,8.493662e-006
2.086635e+003,9.518117e-006
2.088564e+003,1.053512e-005
2.090492e+003,1.154281e-005
2.092421e+003,1.254678e-005
2.094349e+003,1.354329e-005
2.096278e+003,1.452863e-005
2.098206e+003,1.551025e-005
2.100135e+003,1.648441e-005
2.102063e+003,1.745299e-005
2.103992e+003,1.841038e-005
2.105920e+003,1.936033e-005
2.107849e+003,2.030469e-005
2.109777e+003,2.124347e-005
2.111706e+003,2.217107e-005
2.113634e+003,2.309680e-005
2.115563e+003,2.400950e-005
2.117491e+003,2.492219e-005
2.119420e+003,2.581999e-005
2.121348e+003,2.671406e-005
2.123277e+003,2.759881e-005
2.125205e+003,2.847798e-005
2.127134e+003,2.934970e-005
2.129062e+003,3.021583e-005
2.130991e+003,3.107078e-005
2.132919e+003,3.192201e-005
2.134848e+003,3.276393e-005
2.136776e+003,3.359839e-005
2.138705e+003,3.442541e-005
2.140633e+003,3.524683e-005
2.142562e+003,3.606267e-005
2.144490e+003,3.686547e-005
2.146419e+003,3.766641e-005
2.148347e+003,3.845617e-005
2.150276e+003,3.924035e-005
2.152204e+003,4.001707e-005
2.154133e+003,4.078634e-005
2.156061e+003,4.155003e-005
2.157990e+003,4.230440e-005
2.159918e+003,4.305132e-005
2.161847e+003,4.379265e-005
2.163775e+003,4.452467e-005
2.165704e+003,4.524924e-005
2.167632e+003,4.596822e-005
2.169561e+003,4.667789e-005
2.171489e+003,4.738197e-005
2.173418e+003,4.808046e-005
2.175346e+003,4.877150e-005
2.177275e+003,4.945137e-005
2.179203e+003,5.012751e-005
2.181132e+003,5.079433e-005
2.183060e+003,5.145371e-005
2.184989e+003,5.210564e-005
2.186917e+003,5.275570e-005
2.188846e+003,5.339086e-005
2.190774e+003,5.402043e-005
2.192703e+003,5.464628e-005
2.194631e+003,5.526096e-005
2.196560e+003,5.586818e-005
2.198488e+003,5.647168e-005
2.200417e+003,5.706958e-005
2.202345e+003,5.765632e-005
2.204274e+003,5.823374e-005
2.206202e+003,5.880743e-005
2.208131e+003,5.937368e-005
2.210059e+003,5.992875e-005
2.211988e+003,6.048009e-005
2.213916e+003,6.102212e-005
2.215845e+003,6.156042e-005
2.217773e+003,6.208941e-005
2.219702e+003,6.261095e-005
2.221630e+003,6.312504e-005
2.223559e+003,6.363355e-005
2.225487e+003,6.413274e-005
2.227416e+003,6.462447e-005
2.229344e+003,6.510876e-005
2.231273e+003,6.558932e-005
2.233201e+003,6.606057e-005
2.235130e+003,6.652251e-005
2.237058e+003,6.697886e-005
2.238987e+003,6.742589e-005
2.240915e+003,6.786734e-005
2.242844e+003,6.829947e-005
2.244772e+003,6.873161e-005
2.246701e+003,6.914884e-005
2.248629e+003,6.956235e-005
2.250558e+003,6.996654e-005
2.252486e+003,7.036328e-005
2.254415e+003,7.075258e-005
2.256343e+003,7.113442e-005
2.258272e+003,7.151067e-005
2.260200e+003,7.187761e-005
2.262129e+003,7.224269e-005
2.264057e+003,7.259659e-005
2.265986e+003,7.294305e-005
2.267914e+003,7.328019e-005
2.269843e+003,7.361174e-005
2.271771e+003,7.393584e-005
2.273700e+003,7.425807e-005
2.275628e+003,7.456727e-005
2.277557e+003,7.487088e-005
2.279485e+003,7.516518e-005
2.281414e+003,7.545389e-005
2.283342e+003,7.573143e-005
2.285271e+003,7.600710e-005
2.287199e+003,7.627346e-005
2.289128e+003,7.653423e-005
2.291056e+003,7.678755e-005
2.292985e+003,7.702969e-005
2.294913e+003,7.726625e-005
2.296842e+003,7.749535e-005
2.298770e+003,7.772073e-005
2.300699e+003,7.793307e-005
2.302627e+003,7.814541e-005
2.304556e+003,7.834472e-005
2.306484e+003,7.853843e-005
2.308413e+003,7.872470e-005
2.310341e+003,7.890351e-005
2.312270e+003,7.907301e-005
2.314198e+003,7.923879e-005
2.316127e+003,7.939339e-005
2.318055e+003,7.954426e-005
2.319984e+003,7.968768e-005
2.321912e+003,7.982366e-005
2.323841e+003,7.995032e-005
2.325769e+003,8.007139e-005
2.327698e+003,8.018501e-005
2.329626e+003,8.029118e-005
2.331555e+003,8.038804e-005
2.333483e+003,8.048117e-005
2.335412e+003,8.056499e-005
2.337340e+003,8.064322e-005
2.339269e+003,8.071214e-005
2.341197e+003,8.077361e-005
2.343126e+003,8.082762e-005
2.345054e+003,8.087605e-005
2.346983e+003,8.091703e-005
2.348911e+003,8.095056e-005
2.350840e+003,8.097664e-005
2.352768e+003,8.099526e-005
2.354697e+003,8.100457e-005
2.356625e+003,8.100830e-005
2.358554e+003,8.100457e-005
2.360482e+003,8.099340e-005
2.362411e+003,8.097664e-005
2.364339e+003,8.095428e-005
2.366268e+003,8.092262e-005
2.368196e+003,8.087978e-005
2.370125e+003,8.083135e-005
2.372053e+003,8.077919e-005
2.373982e+003,8.071586e-005
2.375910e+003,8.064508e-005
2.377839e+003,8.057244e-005
2.379767e+003,8.049048e-005
2.381696e+003,8.039735e-005
2.383624e+003,8.029863e-005
2.385553e+003,8.019432e-005
2.387481e+003,8.008070e-005
2.389410e+003,7.995963e-005
2.391338e+003,7.983670e-005
2.393267e+003,7.969886e-005
2.395195e+003,7.955730e-005
2.397124e+003,7.941015e-005
2.399052e+003,7.925183e-005
2.400981e+003,1.054090e-004
2.402909e+003,4.954450e-005
2.404838e+003,7.750466e-005
2.406766e+003,3.991928e-004
2.408695e+003,7.744171e-004
2.410623e+003,8.285344e-004
2.412552e+003,7.656813e-004
2.414480e+003,6.303675e-004
2.416409e+003,6.760433e-004
2.418337e+003,6.288141e-004
2.420266e+003,6.142464e-004
2.422194e+003,5.733781e-004
2.424123e+003,6.941557e-004
2.426051e+003,7.289350e-004
2.427979e+003,7.898659e-004
2.429908e+003,7.297788e-004
2.431837e+003,6.531887e-004
2.433765e+003,5.848967e-004
2.435694e+003,6.137546e-004
2.437622e+003,6.350577e-004
2.439551e+003,7.553846e-004
2.441479e+003,7.475987e-004
2.443407e+003,7.596835e-004
2.445336e+003,7.823072e-004
2.447265e+003,8.611400e-004
2.449193e+003,8.172709e-004
2.451122e+003,9.215176e-004
2.453050e+003,1.077019e-003
2.454979e+003,1.067158e-003
2.456907e+003,9.559635e-004
2.458836e+003,9.756684e-004
2.460764e+003,9.659454e-004
2.462693e+003,9.258855e-004
2.464621e+003,8.521639e-004
2.466550e+003,8.529294e-004
2.468478e+003,9.529609e-004
2.470406e+003,1.123704e-003
2.472335e+003,1.228645e-003
2.474264e+003,1.356838e-003
2.476192e+003,1.294473e-003
2.478121e+003,1.311697e-003
2.480049e+003,1.354519e-003
2.481978e+003,1.434028e-003
2.483906e+003,1.500856e-003
2.485835e+003,1.602115e-003
2.487763e+003,1.660310e-003
2.489692e+003,1.668239e-003
2.491620e+003,1.613861e-003
2.493549e+003,1.642739e-003
2.495477e+003,1.593499e-003
2.497406e+003,1.564261e-003
2.499334e+003,1.658026e-003
2.501263e+003,1.747107e-003
2.503191e+003,1.688844e-003
2.505120e+003,1.734285e-003
2.507048e+003,1.741510e-003
2.508977e+003,1.784073e-003
2.510905e+003,1.813838e-003
2.512833e+003,1.949739e-003
2.514762e+003,2.047528e-003
2.516691e+003,2.227748e-003
2.518619e+003,2.318986e-003
2.520548e+003,2.492964e-003
2.522476e+003,2.573758e-003
2.524405e+003,2.743505e-003
2.526333e+003,2.771167e-003
2.528261e+003,2.845829e-003
2.530190e+003,2.930921e-003
2.532119e+003,2.934590e-003
2.534047e+003,2.733553e-003
2.535976e+003,2.695112e-003
2.537904e+003,2.797898e-003
2.539833e+003,2.959603e-003
2.541761e+003,2.984429e-003
2.543689e+003,3.246551e-003
2.545618e+003,3.492335e-003
2.547547e+003,3.736978e-003
2.549475e+003,3.874194e-003
2.551404e+003,3.853725e-003
2.553332e+003,3.864206e-003
2.555260e+003,4.043620e-003
2.557189e+003,4.072689e-003
2.559117e+003,4.111458e-003
2.561046e+003,4.127452e-003
2.562975e+003,4.155841e-003
2.564903e+003,4.209122e-003
2.566832e+003,4.336437e-003
2.568760e+003,4.569350e-003
2.570688e+003,4.613878e-003
2.572617e+003,4.707661e-003
2.574546e+003,5.018279e-003
2.576474e+003,5.274959e-003
2.578403e+003,5.497653e-003
2.580331e+003,5.705165e-003
2.582260e+003,5.709307e-003
2.584188e+003,5.786858e-003
2.586116e+003,6.102294e-003
2.588045e+003,6.377622e-003
2.589974e+003,6.553305e-003
2.591902e+003,6.787408e-003
2.593831e+003,6.986341e-003
2.595759e+003,7.159391e-003
2.597688e+003,7.440982e-003
2.599616e+003,7.629752e-003
2.601544e+003,7.739995e-003
2.603473e+003,7.944036e-003
2.605402e+003,8.218657e-003
2.607330e+003,8.505756e-003
2.609259e+003,8.775514e-003
2.611187e+003,9.069894e-003
2.613115e+003,9.366104e-003
2.615044e+003,9.682478e-003
2.616972e+003,1.004207e-002
2.618901e+003,1.038178e-002
2.620830e+003,1.079944e-002
2.622758e+003,1.108942e-002
2.624687e+003,1.148966e-002
2.626615e+003,1.198613e-002
2.628543e+003,1.242653e-002
2.630472e+003,1.270439e-002
2.632400e+003,1.302312e-002
2.634329e+003,1.322308e-002
2.636258e+003,1.330920e-002
2.638186e+003,1.344066e-002
2.640115e+003,1.352151e-002
2.642043e+003,1.354242e-002
2.643971e+003,1.351246e-002
2.645900e+003,1.346322e-002
2.647828e+003,1.345147e-002
2.649757e+003,1.351828e-002
2.651686e+003,1.367009e-002
2.653614e+003,1.383042e-002
2.655542e+003,1.396337e-002
2.657471e+003,1.403489e-002
2.659399e+003,1.407512e-002
2.661328e+003,1.400036e-002
2.663256e+003,1.386099e-002
2.665185e+003,1.367225e-002
2.667114e+003,1.346003e-002
2.669042e+003,1.333957e-002
2.670970e+003,1.325674e-002
2.672899e+003,1.312193e-002
2.674827e+003,1.296657e-002
2.676756e+003,1.279301e-002
2.678685e+003,1.268017e-002
2.680613e+003,1.259460e-002
2.682542e+003,1.246057e-002
2.684470e+003,1.229978e-002
2.686398e+003,1.217151e-002
2.688327e+003,1.203845e-002
2.690255e+003,1.188707e-002
2.692184e+003,1.183233e-002
2.694113e+003,1.184169e-002
2.696041e+003,1.184118e-002
2.697969e+003,1.184813e-002
2.699898e+003,1.187383e-002
2.701826e+003,1.196126e-002
2.703755e+003,1.206899e-002
2.705683e+003,1.220947e-002
2.707612e+003,1.239661e-002
2.709541e+003,1.263350e-002
2.711469e+003,1.284010e-002
2.713397e+003,1.309202e-002
2.715326e+003,1.332218e-002
2.717254e+003,1.343552e-002
2.719183e+003,1.360167e-002
2.721111e+003,1.383152e-002
2.723040e+003,1.411028e-002
2.724969e+003,1.447567e-002
2.726897e+003,1.479909e-002
2.728825e+003,1.505765e-002
2.730754e+003,1.527733e-002
2.732682e+003,1.547624e-002
2.734611e+003,1.560716e-002
2.736539e+003,1.568630e-002
2.738468e+003,1.575151e-002
2.740396e+003,1.583920e-002
2.742325e+003,1.589488e-002
2.744253e+003,1.596976e-002
2.746182e+003,1.598115e-002
2.748110e+003,1.594497e-002
2.750039e+003,1.594621e-002
2.751967e+003,1.605416e-002
2.753896e+003,1.620312e-002
2.755824e+003,1.644347e-002
2.757753e+003,1.682465e-002
2.759681e+003,1.720153e-002
2.761610e+003,1.755253e-002
2.763538e+003,1.794403e-002
2.765467e+003,1.835188e-002
2.767395e+003,1.884815e-002
2.769324e+003,1.942056e-002
2.771252e+003,2.005054e-002
2.773181e+003,2.072855e-002
2.775109e+003,2.152159e-002
2.777038e+003,2.240558e-002
2.778966e+003,2.338734e-002
2.780895e+003,2.445615e-002
2.782823e+003,2.561713e-002
2.784752e+003,2.687988e-002
2.786680e+003,2.829752e-002
2.788609e+003,2.980756e-002
2.790537e+003,3.141594e-002
2.792466e+003,3.306381e-002
2.794394e+003,3.474039e-002
2.796323e+003,3.652739e-002
2.798251e+003,3.836422e-002
2.800180e+003,4.040051e-002
2.802108e+003,4.259712e-002
2.804037e+003,4.488235e-002
2.805965e+003,4.738795e-002
2.807894e+003,5.013560e-002
2.809822e+003,5.317724e-002
2.811751e+003,5.664357e-002
2.813679e+003,6.055304e-002
2.815608e+003,6.500508e-002
2.817536e+003,7.009652e-002
2.819465e+003,7.605517e-002
2.821393e+003,8.321647e-002
2.823322e+003,9.189187e-002
2.825250e+003,1.026294e-001
2.827179e+003,1.161622e-001
2.829107e+003,1.336500e-001
2.831036e+003,1.571543e-001
2.832964e+003,1.895602e-001
2.834893e+003,2.353740e-001
2.836821e+003,3.007421e-001
2.838750e+003,3.954906e-001
2.840678e+003,5.353069e-001
2.842607e+003,7.397007e-001
2.844535e+003,1.016502e+000
2.846464e+003,1.296109e+000
2.848392e+003,1.352254e+000
2.850321e+003,1.116399e+000
2.852249e+003,8.323415e-001
2.854178e+003,6.245896e-001
2.856106e+003,4.823614e-001
2.858035e+003,3.820144e-001
2.859963e+003,3.105967e-001
2.861892e+003,2.607021e-001
2.863820e+003,2.273678e-001
2.865749e+003,2.073467e-001
2.867677e+003,1.976962e-001
2.869606e+003,1.949691e-001
2.871534e+003,1.960582e-001
2.873463e+003,2.003032e-001
2.875391e+003,2.091256e-001
2.877320e+003,2.238822e-001
2.879248e+003,2.444682e-001
2.881177e+003,2.699742e-001
2.883105e+003,2.994204e-001
2.885034e+003,3.322912e-001
2.886962e+003,3.679707e-001
2.888891e+003,4.055241e-001
2.890819e+003,4.439705e-001
2.892748e+003,4.825190e-001
2.894676e+003,5.207705e-001
2.896605e+003,5.597296e-001
2.898533e+003,6.009471e-001
2.900462e+003,6.470243e-001
2.902390e+003,7.025425e-001
2.904319e+003,7.740100e-001
2.906247e+003,8.703673e-001
2.908176e+003,1.001776e+000
2.910104e+003,1.174260e+000
2.912033e+003,1.371974e+000
2.913961e+003,1.526911e+000
2.915890e+003,1.539808e+000
2.917818e+003,1.397806e+000
2.919747e+003,1.193920e+000
2.921675e+003,1.001212e+000
2.923604e+003,8.407418e-001
2.925532e+003,7.113776e-001
2.927461e+003,6.053540e-001
2.929389e+003,5.160272e-001
2.931318e+003,4.396044e-001
2.933246e+003,3.738200e-001
2.935175e+003,3.173559e-001
2.937103e+003,2.690786e-001
2.939032e+003,2.280049e-001
2.940960e+003,1.936542e-001
2.942889e+003,1.658658e-001
2.944817e+003,1.444345e-001
2.946746e+003,1.291707e-001
2.948674e+003,1.196236e-001
2.950603e+003,1.143530e-001
2.952531e+003,1.110284e-001
2.954460e+003,1.077296e-001
2.956388e+003,1.035605e-001
2.958317e+003,9.833634e-002
2.960245e+003,9.195369e-002
2.962174e+003,8.447117e-002
2.964102e+003,7.647242e-002
2.966031e+003,6.819494e-002
2.967959e+003,6.007195e-002
2.969888e+003,5.271924e-002
2.971816e+003,4.625047e-002
2.973745e+003,4.073651e-002
2.975673e+003,3.621268e-002
2.977602e+003,3.247461e-002
2.979530e+003,2.945313e-002
2.981459e+003,2.694002e-002
2.983387e+003,2.473576e-002
2.985316e+003,2.283687e-002
2.987244e+003,2.134297e-002
2.989173e+003,2.014857e-002
2.991101e+003,1.897265e-002
2.993030e+003,1.785142e-002
2.994958e+003,1.708356e-002
2.996887e+003,1.637155e-002
2.998815e+003,1.564758e-002
3.000744e+003,1.501693e-002
3.002672e+003,1.448768e-002
3.004601e+003,1.395125e-002
3.006529e+003,1.349992e-002
3.008458e+003,1.310092e-002
3.010386e+003,1.274408e-002
3.012315e+003,1.237706e-002
3.014243e+003,1.199834e-002
3.016172e+003,1.172074e-002
3.018100e+003,1.148373e-002
3.020029e+003,1.122723e-002
3.021957e+003,1.103946e-002
3.023886e+003,1.073559e-002
3.025814e+003,1.042633e-002
3.027743e+003,1.019008e-002
3.029671e+003,1.000635e-002
3.031600e+003,9.776728e-003
3.033528e+003,9.532666e-003
3.035457e+003,9.253599e-003
3.037385e+003,8.859035e-003
3.039314e+003,8.385675e-003
3.041242e+003,8.054838e-003
3.043171e+003,7.831484e-003
3.045099e+003,7.575894e-003
3.047028e+003,7.304858e-003
3.048956e+003,7.047243e-003
3.050885e+003,6.844971e-003
3.052813e+003,6.766789e-003
3.054742e+003,6.511131e-003
3.056670e+003,6.225517e-003
3.058599e+003,6.099295e-003
3.060527e+003,5.987305e-003
3.062456e+003,5.852135e-003
3.064384e+003,5.709073e-003
3.066313e+003,5.573569e-003
3.068241e+003,5.469546e-003
3.070170e+003,5.324425e-003
3.072098e+003,5.126009e-003
3.074027e+003,4.982607e-003
3.075955e+003,4.897131e-003
3.077884e+003,4.837623e-003
3.079812e+003,4.809685e-003
3.081741e+003,4.587408e-003
3.083669e+003,4.416497e-003
3.085598e+003,4.312448e-003
3.087526e+003,4.026499e-003
3.089455e+003,3.719864e-003
3.091383e+003,3.570136e-003
3.093312e+003,3.394788e-003
3.095240e+003,3.151376e-003
3.097169e+003,2.897494e-003
3.099097e+003,2.597013e-003
3.101026e+003,2.366789e-003
3.102954e+003,2.211452e-003
3.104883e+003,2.040749e-003
3.106811e+003,1.852246e-003
3.108740e+003,1.690324e-003
3.110668e+003,1.592532e-003
3.112597e+003,1.477931e-003
3.114525e+003,1.427572e-003
3.116454e+003,1.389526e-003
3.118382e+003,1.266651e-003
3.120311e+003,1.094390e-003
3.122239e+003,1.016129e-003
3.124168e+003,1.091387e-003
3.126096e+003,1.068711e-003
3.128025e+003,1.050349e-003
3.129953e+003,9.792894e-004
3.131882e+003,9.521358e-004
3.133810e+003,9.132475e-004
3.135739e+003,8.855909e-004
3.137667e+003,8.588471e-004
3.139596e+003,7.702932e-004
3.141524e+003,7.804334e-004
3.143453e+003,7.992238e-004
3.145381e+003,8.471683e-004
3.147310e+003,8.908994e-004
3.149238e+003,9.182356e-004
3.151167e+003,8.671023e-004
3.153095e+003,8.205138e-004
3.155024e+003,8.041598e-004
3.156952e+003,7.255524e-004
3.158881e+003,6.706379e-004
3.160809e+003,7.181801e-004
3.162738e+003,7.041767e-004
3.164666e+003,8.142889e-004
3.166594e+003,8.347146e-004
3.168523e+003,7.295758e-004
3.170452e+003,7.616803e-004
3.172380e+003,8.258075e-004
3.174309e+003,7.811040e-004
3.176237e+003,7.389300e-004
3.178166e+003,7.211827e-004
3.180094e+003,7.568300e-004
3.182022e+003,7.779337e-004
3.183951e+003,8.327700e-004
3.185880e+003,8.397885e-004
3.187808e+003,8.111075e-004
3.189737e+003,8.375943e-004
3.191665e+003,8.216538e-004
3.193594e+003,7.143356e-004
3.195522e+003,6.693453e-004
3.197450e+003,7.146783e-004
3.199379e+003,8.266084e-004
3.201308e+003,8.831620e-004
3.203236e+003,7.877126e-004
3.205165e+003,7.351153e-004
3.207093e+003,7.660240e-004
3.209021e+003,6.961338e-004
3.210950e+003,7.202923e-004
3.212878e+003,7.265992e-004
3.214807e+003,7.658601e-004
3.216736e+003,8.716434e-004
3.218664e+003,7.569194e-004
3.220593e+003,7.003024e-004
3.222521e+003,6.949045e-004
3.224449e+003,7.006600e-004
3.226378e+003,7.321425e-004
3.228307e+003,7.601567e-004
3.230235e+003,7.447898e-004
3.232164e+003,7.403754e-004
3.234092e+003,7.976331e-004
3.236021e+003,8.496754e-004
3.237949e+003,7.474087e-004
3.239877e+003,6.885603e-004
3.241806e+003,8.405112e-004
3.243735e+003,9.514876e-004
3.245663e+003,8.982494e-004
3.247592e+003,9.006076e-004
3.249520e+003,9.984672e-004
3.251448e+003,1.039397e-003
3.253377e+003,1.040064e-003
3.255305e+003,9.993017e-004
3.257234e+003,1.012430e-003
3.259163e+003,1.099806e-003
3.261091e+003,1.166914e-003
3.263020e+003,1.204200e-003
3.264948e+003,1.254387e-003
3.266876e+003,1.275677e-003
3.268805e+003,1.346152e-003
3.270733e+003,1.352094e-003
3.272662e+003,1.356699e-003
3.274591e+003,1.419228e-003
3.276519e+003,1.535453e-003
3.278448e+003,1.645368e-003
3.280376e+003,1.663402e-003
3.282304e+003,1.596298e-003
3.284233e+003,1.655143e-003
3.286161e+003,1.655124e-003
3.288090e+003,1.601063e-003
3.290019e+003,1.617432e-003
3.291947e+003,1.629569e-003
3.293875e+003,1.588922e-003
3.295804e+003,1.611236e-003
3.297732e+003,1.576681e-003
3.299661e+003,1.563042e-003
3.301589e+003,1.582563e-003
3.303518e+003,1.557350e-003
3.305447e+003,1.543101e-003
3.307375e+003,1.573753e-003
3.309303e+003,1.625229e-003
3.311232e+003,1.514964e-003
3.313160e+003,1.380283e-003
3.315089e+003,1.365647e-003
3.317018e+003,1.425885e-003
3.318946e+003,1.501970e-003
3.320875e+003,1.567326e-003
3.322803e+003,1.562789e-003
3.324731e+003,1.496162e-003
3.326660e+003,1.501180e-003
3.328588e+003,1.505975e-003
3.330517e+003,1.456827e-003
3.332446e+003,1.485020e-003
3.334374e+003,1.525693e-003
3.336302e+003,1.537751e-003
3.338231e+003,1.488496e-003
3.340159e+003,1.475476e-003
3.342088e+003,1.431227e-003
3.344016e+003,1.415998e-003
3.345945e+003,1.387682e-003
3.347874e+003,1.250997e-003
3.349802e+003,1.252234e-003
3.351730e+003,1.252782e-003
3.353659e+003,1.207333e-003
3.355587e+003,1.184154e-003
3.357516e+003,1.154907e-003
3.359444e+003,1.126077e-003
3.361373e+003,1.203794e-003
3.363302e+003,1.277495e-003
3.365230e+003,1.285926e-003
3.367158e+003,1.215249e-003
3.369087e+003,1.192313e-003
3.371015e+003,1.197834e-003
3.372944e+003,1.147021e-003
3.374872e+003,1.187813e-003
3.376801e+003,1.231514e-003
3.378729e+003,1.146901e-003
3.380658e+003,1.094557e-003
3.382586e+003,1.131371e-003
3.384515e+003,1.083430e-003
3.386443e+003,9.788796e-004
3.388372e+003,9.159669e-004
3.390300e+003,9.710528e-004
3.392229e+003,9.303875e-004
3.394157e+003,8.306950e-004
3.396086e+003,8.144528e-004
3.398014e+003,7.881597e-004
3.399943e+003,6.328300e-004
3.401871e+003,5.926639e-004
3.403800e+003,6.622002e-004
3.405728e+003,6.660372e-004
3.407657e+003,6.425828e-004
3.409585e+003,6.135479e-004
3.411514e+003,5.330741e-004
3.413442e+003,4.373267e-004
3.415371e+003,4.952773e-004
3.417299e+003,6.818064e-004
3.419228e+003,6.381907e-004
3.421156e+003,4.787631e-004
3.423085e+003,4.617050e-004
3.425013e+003,4.896000e-004
3.426942e+003,5.318373e-004
3.428870e+003,5.472377e-004
3.430799e+003,5.387813e-004
3.432727e+003,4.858114e-004
3.434656e+003,3.930368e-004
3.436584e+003,4.125834e-004
3.438513e+003,3.756657e-004
3.440441e+003,4.269704e-004
3.442370e+003,4.227310e-004
3.444298e+003,3.298819e-004
3.446227e+003,3.861524e-004
3.448155e+003,3.541447e-004
3.450084e+003,3.031269e-004
3.452012e+003,3.262050e-004
3.453941e+003,2.435818e-004
3.455869e+003,1.010709e-004
3.457798e+003,5.437061e-005
3.459726e+003,5.551428e-005
3.461655e+003,8.860230e-005
3.463583e+003,9.516999e-005
3.465512e+003,6.599352e-005
3.467440e+003,1.349300e-005
3.469369e+003,-3.236160e-005
3.471297e+003,-1.115985e-004
3.473226e+003,-1.212843e-004
3.475154e+003,2.253801e-006
3.477083e+003,-7.614493e-006
3.479011e+003,-2.012737e-004
3.480940e+003,-2.027750e-004
3.482868e+003,-1.313686e-004
3.484797e+003,-4.050732e-004
3.486725e+003,-5.276799e-004
3.488654e+003,-3.357716e-004
3.490582e+003,-2.484284e-004
3.492511e+003,-2.137087e-004
3.494439e+003,-2.352670e-004
3.496368e+003,-2.978854e-004
3.498296e+003,-3.474019e-004
3.500225e+003,-3.608800e-004
3.502153e+003,-4.070401e-004
3.504082e+003,-4.058294e-004
3.506010e+003,-4.967861e-004
3.507939e+003,-4.886054e-004
3.509867e+003,-4.505329e-004
3.511796e+003,-4.775822e-004
3.513724e+003,-4.848801e-004
3.515653e+003,-3.848523e-004
3.517581e+003,-2.763607e-004
3.519510e+003,-4.280284e-004
3.521438e+003,-7.035807e-004
3.523367e+003,-7.655211e-004
3.525295e+003,-5.752407e-004
3.527224e+003,-4.592761e-004
3.529152e+003,-5.362779e-004
3.531081e+003,-6.976761e-004
3.533009e+003,-8.490495e-004
3.534938e+003,-7.833540e-004
3.536866e+003,-6.271489e-004
3.538795e+003,-6.477982e-004
3.540723e+003,-7.901266e-004
3.542652e+003,-8.621924e-004
3.544580e+003,-8.166544e-004
3.546509e+003,-7.691383e-004
3.548437e+003,-9.245947e-004
3.550366e+003,-1.025543e-003
3.552294e+003,-9.783208e-004
3.554223e+003,-9.022318e-004
3.556151e+003,-7.921718e-004
3.558080e+003,-7.485971e-004
3.560008e+003,-8.703955e-004
3.561937e+003,-1.103438e-003
3.563865e+003,-1.348544e-003
3.565794e+003,-1.158543e-003
3.567722e+003,-6.120726e-004
3.569651e+003,-7.893555e-004
3.571579e+003,-1.185667e-003
3.573508e+003,-1.325469e-003
3.575436e+003,-1.296666e-003
3.577365e+003,-1.286633e-003
3.579293e+003,-1.190305e-003
3.581222e+003,-1.002904e-003
3.583150e+003,-9.502843e-004
3.585079e+003,-1.044612e-003
3.587007e+003,-7.009618e-004
3.588936e+003,-3.537536e-005
3.590864e+003,-1.786351e-004
3.592793e+003,-4.474781e-004
3.594721e+003,-3.298558e-004
3.596650e+003,1.765043e-004
3.598578e+003,8.072145e-004
3.600507e+003,1.493905e-003
3.602435e+003,1.705717e-003
3.604364e+003,1.438037e-003
3.606292e+003,9.932704e-004
3.608221e+003,1.046520e-003
3.610149e+003,9.035617e-004
3.612078e+003,4.041083e-004
3.614006e+003,1.777783e-004
3.615935e+003,-9.931251e-005
3.617863e+003,3.197230e-004
3.619792e+003,8.017570e-004
3.621720e+003,1.966842e-004
3.623649e+003,-2.098680e-004
3.625577e+003,-5.882233e-004
3.627506e+003,-9.019300e-004
3.629434e+003,1.186952e-004
3.631363e+003,-2.000481e-005
3.633291e+003,-3.870390e-004
3.635220e+003,-3.095344e-004
3.637148e+003,-2.453960e-004
3.639077e+003,-8.979812e-005
3.641005e+003,3.309920e-005
3.642934e+003,-4.048645e-004
3.644862e+003,-6.282926e-004
3.646791e+003,-1.543574e-004
3.648719e+003,4.099086e-004
3.650648e+003,6.669201e-004
3.652576e+003,-3.138930e-004
3.654505e+003,-1.095850e-003
3.656433e+003,-1.042005e-003
3.658362e+003,-5.335212e-004
3.660290e+003,-3.505088e-004
3.662219e+003,-4.705042e-004
3.664147e+003,-4.373267e-004
3.666076e+003,-5.615987e-004
3.668004e+003,-7.826686e-004
3.669933e+003,-1.920238e-004
3.671861e+003,-6.148852e-004
3.673790e+003,-1.310825e-003
3.675718e+003,-7.947870e-004
3.677647e+003,-6.872006e-004
3.679575e+003,-8.504875e-004
3.681504e+003,-6.187968e-004
3.683432e+003,-7.188804e-004
3.685361e+003,-1.359433e-003
3.687289e+003,-1.870036e-003
3.689218e+003,-9.967200e-004
3.691146e+003,-2.020560e-004
3.693075e+003,-5.735159e-004
3.695003e+003,-8.817427e-004
3.696932e+003,-9.580031e-004
3.698860e+003,-1.042619e-003
3.700789e+003,-9.552203e-004
3.702717e+003,-6.186329e-004
3.704646e+003,-7.069968e-004
3.706574e+003,-8.438528e-004
3.708503e+003,-8.808449e-004
3.710431e+003,-9.134635e-004
3.712360e+003,-5.487576e-004
3.714288e+003,-6.467737e-004
3.716217e+003,-7.356927e-004
3.718145e+003,-8.278526e-004
3.720074e+003,-8.205287e-004
3.722002e+003,-3.662668e-004
3.723931e+003,-2.188236e-005
3.725859e+003,1.166761e-005
3.727788e+003,-2.606772e-004
3.729716e+003,-7.448532e-004
3.731645e+003,-6.824024e-004
3.733573e+003,5.286187e-006
3.735502e+003,-8.232892e-006
3.737430e+003,-2.560653e-004
3.739359e+003,-2.727844e-004
3.741287e+003,-7.324629e-004
3.743216e+003,-1.083806e-003
3.745144e+003,-1.908652e-004
3.747073e+003,-3.633723e-004
3.749001e+003,-6.370507e-004
3.750930e+003,-5.569160e-004
3.752858e+003,-1.041144e-003
3.754787e+003,-1.095787e-003
3.756715e+003,-1.211148e-003
3.758644e+003,-1.033254e-003
3.760572e+003,-7.451735e-004
3.762501e+003,-1.094781e-003
3.764429e+003,-8.631572e-004
3.766358e+003,-5.126558e-004
3.768286e+003,-7.031783e-004
3.770215e+003,-5.155876e-004
3.772143e+003,-3.866740e-004
3.774072e+003,-3.317893e-004
3.776000e+003,-4.549809e-004
3.777929e+003,-5.770028e-004
3.779857e+003,-1.521669e-004
3.781786e+003,-2.447963e-004
3.783714e+003,-3.694855e-004
3.785643e+003,-9.149313e-005
3.787571e+003,-2.225451e-004
3.789500e+003,-1.393147e-004
3.791428e+003,3.308021e-004
3.793357e+003,-3.723428e-005
3.795285e+003,-1.331083e-004
3.797214e+003,2.354756e-005
3.799142e+003,-7.043369e-004
3.801071e+003,-4.304759e-004
3.802999e+003,3.039092e-005
3.804927e+003,-4.629679e-004
3.806856e+003,-1.100935e-004
3.808785e+003,2.747737e-004
3.810713e+003,7.784367e-005
3.812642e+003,-2.048016e-004
3.814570e+003,-1.315176e-004
3.816499e+003,2.617575e-004
3.818427e+003,-3.407709e-004
3.820355e+003,-4.856773e-004
3.822284e+003,5.666912e-004
3.824213e+003,3.422871e-004
3.826141e+003,3.061704e-004
3.828070e+003,4.404373e-004
3.829998e+003,3.384426e-005
3.831927e+003,1.323111e-004
3.833855e+003,3.270768e-004
3.835783e+003,-3.424026e-004
3.837712e+003,8.080155e-006
3.839641e+003,4.810318e-004
3.841569e+003,5.221888e-004
3.843498e+003,7.648095e-004
3.845426e+003,4.443973e-004
3.847354e+003,-1.234151e-004
3.849283e+003,-2.206266e-004
3.851211e+003,-2.452359e-004
3.853140e+003,1.392432e-003
3.855069e+003,1.674198e-003
3.856997e+003,7.407889e-004
3.858926e+003,3.138520e-004
3.860854e+003,8.112565e-005
3.862782e+003,-1.835376e-004
3.864711e+003,2.386756e-004
3.866640e+003,7.185340e-005
3.868568e+003,1.528673e-004
3.870497e+003,8.716360e-004
3.872425e+003,4.348010e-004
3.874354e+003,7.027164e-004
3.876282e+003,7.647462e-004
3.878210e+003,-4.714727e-005
3.880139e+003,1.746044e-004
3.882068e+003,3.024749e-004
3.883996e+003,-2.787448e-004
3.885925e+003,5.608760e-004
3.887853e+003,8.033887e-004
3.889781e+003,3.265105e-004
3.891710e+003,8.535907e-004
3.893638e+003,1.052998e-003
3.895567e+003,4.926324e-004
3.897496e+003,8.380413e-005
3.899424e+003,8.917600e-005
3.901353e+003,1.115166e-004
3.903281e+003,4.856624e-004
3.905209e+003,9.239540e-004
3.907138e+003,6.562024e-004
3.909066e+003,2.995580e-004
3.910995e+003,3.083646e-004
3.912924e+003,3.298000e-004
3.914852e+003,3.650859e-004
3.916781e+003,5.887784e-004
3.918709e+003,7.373802e-004
3.920637e+003,6.317534e-004
3.922566e+003,4.295669e-004
3.924494e+003,4.075393e-004
3.926423e+003,3.984235e-004
3.928352e+003,1.260825e-004
3.930280e+003,1.052059e-004
3.932208e+003,4.137382e-004
3.934137e+003,3.713295e-004
3.936065e+003,3.521405e-004
3.937994e+003,4.990399e-004
3.939922e+003,3.107414e-004
3.941851e+003,2.700724e-004
3.943780e+003,4.101694e-004
3.945708e+003,1.229383e-004
3.947636e+003,-1.012161e-005
3.949565e+003,2.558418e-004
3.951493e+003,3.006533e-004
3.953422e+003,2.007633e-004
3.955351e+003,2.192594e-004
3.957279e+003,2.366938e-004
3.959208e+003,2.692044e-004
3.961136e+003,2.807602e-004
3.963064e+003,3.034920e-004
3.964993e+003,3.238246e-004
3.966921e+003,3.168322e-004
3.968850e+003,2.665557e-004
3.970779e+003,3.142655e-004
3.972707e+003,4.502758e-004
3.974635e+003,4.870594e-004
3.976564e+003,4.096068e-004
3.978492e+003,3.697835e-004
3.980421e+003,4.355051e-004
3.982349e+003,3.986247e-004
3.984278e+003,3.905334e-004
3.986207e+003,4.699044e-004
3.988135e+003,5.484000e-004
3.990063e+003,4.727282e-004
3.991992e+003,2.805181e-004
3.993920e+003,1.711510e-004
3.995849e+003,2.246685e-004
3.997777e+003,3.059320e-004
3.999706e+003,3.928468e-004
4.001635e+003,0.000000e+000
