3.991992e+002,0.000000e+000
4.011277e+002,0.000000e+000
4.030562e+002,0.000000e+000
4.049846e+002,0.000000e+000
4.069131e+002,0.000000e+000
4.088416e+002,0.000000e+000
4.107701e+002,0.000000e+000
4.126986e+002,0.000000e+000
4.146271e+002,0.000000e+000
4.165556e+002,0.000000e+000
4.184841e+002,0.000000e+000
4.204126e+002,0.000000e+000
4.223411e+002,0.000000e+000
4.242697e+002,0.000000e+000
4.261982e+002,0.000000e+000
4.281266e+002,0.000000e+000
4.300551e+002,0.000000e+000
4.319836e+002,0.000000e+000
4.339121e+002,0.000000e+000
4.358406e+002,0.000000e+000
4.377691e+002,0.000000e+000
4.396976e+002,0.000000e+000
4.416261e+002,0.000000e+000
4.435546e+002,0.000000e+000
4.454831e+002,0.000000e+000
4.474116e+002,0.000000e+000
4.493401e+002,0.000000e+000
4.512686e+002,0.000000e+000
4.531971e+002,0.000000e+000
4.551256e+002,0.000000e+000
4.570541e+002,0.000000e+000
4.589826e+002,0.000000e+000
4.609111e+002,0.000000e+000
4.628396e+002,0.000000e+000
4.647681e+002,0.000000e+000
4.666966e+002,0.000000e+000
4.686251e+002,0.000000e+000
4.705536e+002,0.000000e+000
4.724821e+002,0.000000e+000
4.744106e+002,0.000000e+000
4.763391e+002,0.000000e+000
4.782676e+002,0.000000e+000
4.801961e+002,0.000000e+000
4.821246e+002,0.000000e+000
4.840531e+002,0.000000e+000
4.859816e+002,0.000000e+000
4.879101e+002,0.000000e+000
4.898386e+002,0.000000e+000
4.917671e+002,0.000000e+000
4.936956e+002,0.000000e+000
4.956241e+002,0.000000e+000
4.975526e+002,0.000000e+000
4.994811e+002,0.000000e+000
5.014096e+002,0.000000e+000
5.033381e+002,0.000000e+000
5.052666e+002,0.000000e+000
5.071951e+002,0.000000e+000
5.091236e+002,0.000000e+000
5.110521e+002,0.000000e+000
5.129806e+002,0.000000e+000
5.149091e+002,0.000000e+000
5.168376e+002,0.000000e+000
5.187661e+002,0.000000e+000
5.206946e+002,0.000000e+000
5.226230e+002,0.000000e+000
5.245516e+002,-1.596157e-004
5.264800e+002,-3.111344e-004
5.284086e+002,-2.480820e-004
5.303370e+002,-2.657520e-004
5.322656e+002,-2.670847e-004
5.341940e+002,-3.324300e-004
5.361226e+002,-2.920283e-004
5.380510e+002,-2.121795e-004
5.399796e+002,-1.787273e-004
5.419081e+002,-2.434505e-004
5.438365e+002,-2.277838e-004
5.457650e+002,-2.007764e-004
5.476935e+002,-8.563418e-005
5.496221e+002,8.697622e-006
5.515505e+002,7.678848e-005
5.534790e+002,1.602080e-004
5.554075e+002,1.536664e-004
5.573361e+002,5.697552e-005
5.592645e+002,-1.270697e-005
5.611931e+002,-1.322599e-004
5.631215e+002,-1.906725e-004
5.650500e+002,-7.066596e-005
5.669785e+002,-5.402509e-005
5.689070e+002,-2.813898e-005
5.708355e+002,1.488905e-004
5.727640e+002,2.516350e-004
5.746925e+002,4.664231e-004
5.766210e+002,6.240476e-004
5.785495e+002,7.087011e-004
5.804780e+002,8.315314e-004
5.824065e+002,8.723671e-004
5.843350e+002,8.185674e-004
5.862635e+002,9.102114e-004
5.881920e+002,9.530317e-004
5.901205e+002,9.743888e-004
5.920490e+002,9.006998e-004
5.939775e+002,8.880114e-004
5.959060e+002,9.426521e-004
5.978345e+002,1.036159e-003
5.997630e+002,1.091740e-003
6.016915e+002,1.163882e-003
6.036200e+002,1.261251e-003
6.055485e+002,1.381521e-003
6.074770e+002,1.380718e-003
6.094055e+002,1.357806e-003
6.113340e+002,1.225392e-003
6.132625e+002,1.068092e-003
6.151910e+002,9.439522e-004
6.171195e+002,9.038514e-004
6.190480e+002,8.900072e-004
6.209765e+002,9.511048e-004
6.229050e+002,1.072274e-003
6.248335e+002,1.179337e-003
6.267620e+002,1.118202e-003
6.286905e+002,1.106421e-003
6.306190e+002,1.207940e-003
6.325475e+002,1.357081e-003
6.344760e+002,1.447096e-003
6.364045e+002,1.524913e-003
6.383330e+002,1.464847e-003
6.402615e+002,1.579712e-003
6.421899e+002,1.626478e-003
6.441185e+002,1.696965e-003
6.460470e+002,1.762864e-003
6.479755e+002,1.815459e-003
6.499039e+002,1.770680e-003
6.518325e+002,1.837156e-003
6.537610e+002,1.899339e-003
6.556895e+002,2.059763e-003
6.576179e+002,2.273111e-003
6.595464e+002,2.520108e-003
6.614750e+002,2.573305e-003
6.634034e+002,2.619309e-003
6.653319e+002,2.670814e-003
6.672604e+002,2.936553e-003
6.691890e+002,3.262294e-003
6.711174e+002,3.498401e-003
6.730460e+002,3.700513e-003
6.749745e+002,3.998845e-003
6.769030e+002,4.248389e-003
6.788314e+002,4.724458e-003
6.807599e+002,5.234607e-003
6.826885e+002,5.726344e-003
6.846169e+002,6.063854e-003
6.865454e+002,6.510384e-003
6.884739e+002,6.916764e-003
6.904025e+002,7.402191e-003
6.923309e+002,7.864734e-003
6.942594e+002,8.537624e-003
6.961879e+002,9.180624e-003
6.981165e+002,9.981857e-003
7.000449e+002,1.085496e-002
7.019734e+002,1.214714e-002
7.039019e+002,1.379386e-002
7.058304e+002,1.617645e-002
7.077589e+002,1.918594e-002
7.096874e+002,2.381681e-002
7.116159e+002,3.117382e-002
7.135444e+002,4.527969e-002
7.154729e+002,7.224384e-002
7.174014e+002,1.135476e-001
7.193299e+002,1.283791e-001
7.212584e+002,8.845877e-002
7.231869e+002,5.608504e-002
7.251154e+002,4.795991e-002
7.270439e+002,5.692320e-002
7.289724e+002,8.332457e-002
7.309009e+002,8.809816e-002
7.328294e+002,5.268022e-002
7.347579e+002,2.630867e-002
7.366864e+002,1.688402e-002
7.386149e+002,1.311190e-002
7.405434e+002,1.082240e-002
7.424719e+002,9.360984e-003
7.444004e+002,8.228941e-003
7.463289e+002,7.439796e-003
7.482574e+002,6.679160e-003
7.501859e+002,6.075289e-003
7.521144e+002,5.458657e-003
7.540428e+002,5.053069e-003
7.559714e+002,4.689906e-003
7.578999e+002,4.447918e-003
7.598284e+002,4.248959e-003
7.617568e+002,4.123136e-003
7.636854e+002,3.979596e-003
7.656139e+002,3.867136e-003
7.675424e+002,3.676428e-003
7.694709e+002,3.470114e-003
7.713994e+002,3.157904e-003
7.733279e+002,2.936935e-003
7.752563e+002,2.774253e-003
7.771849e+002,2.645376e-003
7.791134e+002,2.441091e-003
7.810419e+002,2.325224e-003
7.829703e+002,2.172439e-003
7.848989e+002,2.082117e-003
7.868274e+002,2.074422e-003
7.887559e+002,2.146517e-003
7.906843e+002,2.129745e-003
7.926129e+002,2.071870e-003
7.945414e+002,1.934350e-003
7.964698e+002,1.887906e-003
7.983983e+002,1.882051e-003
8.003268e+002,1.881847e-003
8.022554e+002,1.967496e-003
8.041838e+002,2.115920e-003
8.061123e+002,2.195610e-003
8.080408e+002,2.278545e-003
8.099694e+002,2.276586e-003
8.118978e+002,2.269169e-003
8.138263e+002,2.308238e-003
8.157548e+002,2.396757e-003
8.176833e+002,2.477414e-003
8.196118e+002,2.554596e-003
8.215403e+002,2.581846e-003
8.234689e+002,2.636028e-003
8.253973e+002,2.636397e-003
8.273258e+002,2.674417e-003
8.292543e+002,2.720404e-003
8.311829e+002,2.765611e-003
8.331113e+002,2.759521e-003
8.350398e+002,2.779040e-003
8.369683e+002,2.864569e-003
8.388969e+002,3.012409e-003
8.408253e+002,3.132701e-003
8.427538e+002,3.201342e-003
8.446823e+002,3.304346e-003
8.466108e+002,3.421338e-003
8.485393e+002,3.539691e-003
8.504678e+002,3.705884e-003
8.523963e+002,3.766512e-003
8.543248e+002,3.718690e-003
8.562533e+002,3.779605e-003
8.581818e+002,3.855200e-003
8.601103e+002,3.779755e-003
8.620388e+002,3.755786e-003
8.639673e+002,3.811439e-003
8.658958e+002,3.903124e-003
8.678243e+002,4.017688e-003
8.697528e+002,4.072273e-003
8.716813e+002,4.067445e-003
8.736098e+002,4.071310e-003
8.755383e+002,4.066335e-003
8.774668e+002,4.090976e-003
8.793953e+002,4.156843e-003
8.813238e+002,4.214325e-003
8.832523e+002,4.339728e-003
8.851808e+002,4.483579e-003
8.871093e+002,4.636414e-003
8.890378e+002,4.733197e-003
8.909663e+002,4.792240e-003
8.928948e+002,4.863650e-003
8.948232e+002,4.975078e-003
8.967518e+002,4.980883e-003
8.986803e+002,4.939970e-003
9.006088e+002,5.064778e-003
9.025372e+002,5.380845e-003
9.044658e+002,6.115820e-003
9.063943e+002,7.225526e-003
9.083228e+002,7.795576e-003
9.102512e+002,7.289352e-003
9.121797e+002,6.240798e-003
9.141083e+002,5.453354e-003
9.160367e+002,5.026029e-003
9.179653e+002,4.873527e-003
9.198937e+002,4.762189e-003
9.218223e+002,4.594128e-003
9.237507e+002,4.481221e-003
9.256793e+002,4.581840e-003
9.276077e+002,4.662157e-003
9.295363e+002,4.706656e-003
9.314647e+002,4.850868e-003
9.333932e+002,5.064828e-003
9.353217e+002,5.269645e-003
9.372502e+002,5.487069e-003
9.391787e+002,5.745525e-003
9.411072e+002,6.000929e-003
9.430358e+002,6.279522e-003
9.449642e+002,6.588101e-003
9.468928e+002,6.949002e-003
9.488212e+002,7.298296e-003
9.507498e+002,7.638416e-003
9.526782e+002,8.108065e-003
9.546068e+002,8.647165e-003
9.565352e+002,9.363586e-003
9.584637e+002,1.014375e-002
9.603922e+002,1.094535e-002
9.623207e+002,1.164905e-002
9.642492e+002,1.223741e-002
9.661777e+002,1.261833e-002
9.681062e+002,1.276958e-002
9.700347e+002,1.264341e-002
9.719632e+002,1.231177e-002
9.738917e+002,1.188579e-002
9.758202e+002,1.141701e-002
9.777487e+002,1.103538e-002
9.796772e+002,1.083273e-002
9.816057e+002,1.075623e-002
9.835342e+002,1.077888e-002
9.854627e+002,1.085185e-002
9.873912e+002,1.102432e-002
9.893197e+002,1.115572e-002
9.912482e+002,1.112240e-002
9.931767e+002,1.095151e-002
9.951052e+002,1.077183e-002
9.970337e+002,1.061784e-002
9.989622e+002,1.059288e-002
1.000891e+003,1.062187e-002
1.002819e+003,1.076038e-002
1.004748e+003,1.094807e-002
1.006676e+003,1.117799e-002
1.008605e+003,1.144265e-002
1.010533e+003,1.171845e-002
1.012462e+003,1.208293e-002
1.014390e+003,1.249879e-002
1.016319e+003,1.287909e-002
1.018247e+003,1.323666e-002
1.020176e+003,1.355233e-002
1.022104e+003,1.388895e-002
1.024033e+003,1.417790e-002
1.025961e+003,1.441847e-002
1.027890e+003,1.457565e-002
1.029818e+003,1.476012e-002
1.031747e+003,1.494090e-002
1.033675e+003,1.498151e-002
1.035604e+003,1.491333e-002
1.037532e+003,1.485659e-002
1.039461e+003,1.476201e-002
1.041389e+003,1.470772e-002
1.043318e+003,1.470213e-002
1.045246e+003,1.484204e-002
1.047175e+003,1.514565e-002
1.049103e+003,1.570200e-002
1.051032e+003,1.621178e-002
1.052960e+003,1.650362e-002
1.054889e+003,1.684413e-002
1.056817e+003,1.729298e-002
1.058746e+003,1.763820e-002
1.060674e+003,1.804318e-002
1.062603e+003,1.843871e-002
1.064531e+003,1.868272e-002
1.066460e+003,1.881403e-002
1.068388e+003,1.909518e-002
1.070317e+003,1.956744e-002
1.072245e+003,2.038924e-002
1.074174e+003,2.163041e-002
1.076102e+003,2.326826e-002
1.078031e+003,2.519364e-002
1.079959e+003,2.711771e-002
1.081888e+003,2.855575e-002
1.083816e+003,2.949378e-002
1.085745e+003,3.021526e-002
1.087673e+003,3.105485e-002
1.089602e+003,3.212046e-002
1.091530e+003,3.332196e-002
1.093459e+003,3.428173e-002
1.095387e+003,3.481717e-002
1.097316e+003,3.485510e-002
1.099244e+003,3.445252e-002
1.101173e+003,3.376878e-002
1.103101e+003,3.295047e-002
1.105030e+003,3.215210e-002
1.106958e+003,3.171405e-002
1.108887e+003,3.183692e-002
1.110815e+003,3.261463e-002
1.112744e+003,3.377440e-002
1.114672e+003,3.506296e-002
1.116601e+003,3.615994e-002
1.118529e+003,3.669399e-002
1.120458e+003,3.632937e-002
1.122386e+003,3.514645e-002
1.124315e+003,3.350990e-002
1.126243e+003,3.216656e-002
1.128172e+003,3.165812e-002
1.130100e+003,3.236938e-002
1.132029e+003,3.432234e-002
1.133957e+003,3.735130e-002
1.135885e+003,4.106377e-002
1.137814e+003,4.500026e-002
1.139743e+003,4.862895e-002
1.141671e+003,5.154783e-002
1.143600e+003,5.370402e-002
1.145528e+003,5.541439e-002
1.147457e+003,5.709095e-002
1.149385e+003,5.900794e-002
1.151314e+003,6.117396e-002
1.153242e+003,6.344099e-002
1.155171e+003,6.557941e-002
1.157099e+003,6.747881e-002
1.159028e+003,6.907864e-002
1.160956e+003,7.014413e-002
1.162885e+003,7.049902e-002
1.164813e+003,7.011823e-002
1.166742e+003,6.908996e-002
1.168670e+003,6.754985e-002
1.170599e+003,6.562169e-002
1.172527e+003,6.351424e-002
1.174456e+003,6.135537e-002
1.176384e+003,5.910135e-002
1.178313e+003,5.669015e-002
1.180241e+003,5.448352e-002
1.182170e+003,5.254878e-002
1.184098e+003,5.080885e-002
1.186027e+003,4.912375e-002
1.187955e+003,4.747232e-002
1.189884e+003,4.578712e-002
1.191812e+003,4.404103e-002
1.193740e+003,4.228608e-002
1.195669e+003,4.061787e-002
1.197598e+003,3.912622e-002
1.199526e+003,3.796031e-002
1.201455e+003,3.707055e-002
1.203383e+003,3.649807e-002
1.205312e+003,3.622349e-002
1.207240e+003,3.618408e-002
1.209168e+003,3.612072e-002
1.211097e+003,3.586143e-002
1.213026e+003,3.553494e-002
1.214954e+003,3.536608e-002
1.216883e+003,3.538508e-002
1.218811e+003,3.565482e-002
1.220740e+003,3.617607e-002
1.222668e+003,3.683713e-002
1.224596e+003,3.760505e-002
1.226525e+003,3.848238e-002
1.228453e+003,3.934438e-002
1.230382e+003,4.013149e-002
1.232311e+003,4.087671e-002
1.234239e+003,4.158200e-002
1.236167e+003,4.214907e-002
1.238096e+003,4.254338e-002
1.240025e+003,4.260782e-002
1.241953e+003,4.231308e-002
1.243882e+003,4.157817e-002
1.245810e+003,4.046118e-002
1.247739e+003,3.905306e-002
1.249667e+003,3.748854e-002
1.251595e+003,3.598045e-002
1.253524e+003,3.479385e-002
1.255453e+003,3.392223e-002
1.257381e+003,3.324181e-002
1.259310e+003,3.252880e-002
1.261238e+003,3.178438e-002
1.263167e+003,3.105579e-002
1.265095e+003,3.038829e-002
1.267023e+003,2.977564e-002
1.268952e+003,2.921144e-002
1.270880e+003,2.874975e-002
1.272809e+003,2.858338e-002
1.274738e+003,2.856892e-002
1.276666e+003,2.860768e-002
1.278594e+003,2.849248e-002
1.280523e+003,2.813942e-002
1.282451e+003,2.741583e-002
1.284380e+003,2.650346e-002
1.286308e+003,2.565002e-002
1.288237e+003,2.508237e-002
1.290166e+003,2.480137e-002
1.292094e+003,2.479657e-002
1.294022e+003,2.490088e-002
1.295951e+003,2.503338e-002
1.297879e+003,2.510713e-002
1.299808e+003,2.521309e-002
1.301736e+003,2.519562e-002
1.303665e+003,2.503558e-002
1.305594e+003,2.476825e-002
1.307522e+003,2.455923e-002
1.309450e+003,2.437354e-002
1.311379e+003,2.427850e-002
1.313307e+003,2.406248e-002
1.315236e+003,2.372506e-002
1.317164e+003,2.329836e-002
1.319093e+003,2.283725e-002
1.321021e+003,2.223163e-002
1.322950e+003,2.162063e-002
1.324878e+003,2.094178e-002
1.326807e+003,2.029306e-002
1.328735e+003,1.977893e-002
1.330664e+003,1.960860e-002
1.332592e+003,1.970460e-002
1.334521e+003,2.003995e-002
1.336449e+003,2.061437e-002
1.338378e+003,2.157258e-002
1.340306e+003,2.261832e-002
1.342235e+003,2.332981e-002
1.344163e+003,2.395730e-002
1.346092e+003,2.477944e-002
1.348021e+003,2.561665e-002
1.349949e+003,2.632951e-002
1.351877e+003,2.670323e-002
1.353806e+003,2.684761e-002
1.355734e+003,2.684174e-002
1.357663e+003,2.702938e-002
1.359591e+003,2.758154e-002
1.361520e+003,2.857817e-002
1.363448e+003,2.964083e-002
1.365377e+003,3.017472e-002
1.367305e+003,3.036204e-002
1.369234e+003,3.021848e-002
1.371162e+003,2.970215e-002
1.373091e+003,2.944848e-002
1.375019e+003,3.019563e-002
1.376948e+003,3.097091e-002
1.378876e+003,2.985978e-002
1.380805e+003,2.679709e-002
1.382733e+003,2.366348e-002
1.384662e+003,2.146821e-002
1.386590e+003,1.969196e-002
1.388519e+003,1.818924e-002
1.390447e+003,1.717442e-002
1.392376e+003,1.663569e-002
1.394304e+003,1.626425e-002
1.396233e+003,1.635781e-002
1.398161e+003,1.664214e-002
1.400090e+003,1.720777e-002
1.402018e+003,1.727335e-002
1.403947e+003,1.716711e-002
1.405875e+003,1.652468e-002
1.407804e+003,1.627063e-002
1.409732e+003,1.654984e-002
1.411661e+003,1.784401e-002
1.413589e+003,1.942973e-002
1.415518e+003,2.092448e-002
1.417446e+003,2.157668e-002
1.419375e+003,2.143349e-002
1.421303e+003,2.075642e-002
1.423232e+003,2.074075e-002
1.425160e+003,2.126220e-002
1.427089e+003,2.279176e-002
1.429017e+003,2.538705e-002
1.430946e+003,2.918638e-002
1.432874e+003,3.230147e-002
1.434803e+003,3.511019e-002
1.436731e+003,3.842722e-002
1.438660e+003,4.120805e-002
1.440588e+003,4.285327e-002
1.442517e+003,4.482839e-002
1.444445e+003,4.643470e-002
1.446374e+003,4.855936e-002
1.448302e+003,5.186183e-002
1.450231e+003,5.664878e-002
1.452159e+003,6.413543e-002
1.454088e+003,7.356822e-002
1.456016e+003,8.431789e-002
1.457945e+003,1.150415e-001
1.459873e+003,1.682660e-001
1.461802e+003,2.036026e-001
1.463730e+003,1.796243e-001
1.465659e+003,1.307208e-001
1.467587e+003,1.211804e-001
1.469516e+003,1.232614e-001
1.471444e+003,1.467172e-001
1.473373e+003,1.360911e-001
1.475301e+003,7.476175e-002
1.477230e+003,3.402645e-002
1.479158e+003,2.217816e-002
1.481087e+003,1.686123e-002
1.483015e+003,1.432479e-002
1.484944e+003,1.246467e-002
1.486872e+003,1.189031e-002
1.488801e+003,1.080240e-002
1.490729e+003,1.079767e-002
1.492658e+003,1.007139e-002
1.494586e+003,1.010690e-002
1.496515e+003,9.348838e-003
1.498443e+003,9.029418e-003
1.500372e+003,7.996926e-003
1.502300e+003,7.663054e-003
1.504229e+003,7.136619e-003
1.506157e+003,7.623913e-003
1.508086e+003,7.119831e-003
1.510014e+003,7.219860e-003
1.511943e+003,6.733177e-003
1.513871e+003,6.846186e-003
1.515800e+003,6.733308e-003
1.517728e+003,6.911945e-003
1.519657e+003,6.659726e-003
1.521585e+003,7.102134e-003
1.523514e+003,6.777359e-003
1.525442e+003,6.981090e-003
1.527371e+003,6.691515e-003
1.529299e+003,6.782703e-003
1.531228e+003,6.732738e-003
1.533156e+003,7.071430e-003
1.535085e+003,6.923351e-003
1.537013e+003,7.057693e-003
1.538942e+003,6.999582e-003
1.540870e+003,7.700542e-003
1.542799e+003,7.273791e-003
1.544727e+003,7.183844e-003
1.546656e+003,6.765794e-003
1.548584e+003,6.809389e-003
1.550513e+003,6.593391e-003
1.552441e+003,6.534103e-003
1.554370e+003,6.212935e-003
1.556298e+003,6.213952e-003
1.558227e+003,6.344078e-003
1.560155e+003,5.929030e-003
1.562084e+003,5.255019e-003
1.564012e+003,5.088663e-003
1.565941e+003,4.791757e-003
1.567869e+003,4.889186e-003
1.569798e+003,4.767159e-003
1.571726e+003,4.563237e-003
1.573655e+003,4.387319e-003
1.575583e+003,4.613468e-003
1.577512e+003,4.495926e-003
1.579440e+003,4.439892e-003
1.581369e+003,4.350534e-003
1.583297e+003,4.431454e-003
1.585226e+003,4.424864e-003
1.587154e+003,4.511219e-003
1.589083e+003,4.461648e-003
1.591011e+003,4.467100e-003
1.592940e+003,4.397023e-003
1.594868e+003,4.523825e-003
1.596797e+003,4.543364e-003
1.598725e+003,4.664863e-003
1.600654e+003,4.701579e-003
1.602582e+003,4.862668e-003
1.604511e+003,4.939018e-003
1.606439e+003,5.106859e-003
1.608368e+003,5.230835e-003
1.610296e+003,5.456770e-003
1.612225e+003,5.573593e-003
1.614153e+003,5.854210e-003
1.616082e+003,6.214725e-003
1.618010e+003,6.572187e-003
1.619939e+003,6.668355e-003
1.621867e+003,6.993774e-003
1.623796e+003,7.405488e-003
1.625724e+003,7.823555e-003
1.627653e+003,8.204363e-003
1.629581e+003,8.492017e-003
1.631510e+003,8.592973e-003
1.633438e+003,8.882774e-003
1.635367e+003,9.452499e-003
1.637295e+003,1.005065e-002
1.639224e+003,1.023364e-002
1.641152e+003,1.048292e-002
1.643081e+003,1.061630e-002
1.645009e+003,1.107317e-002
1.646938e+003,1.180535e-002
1.648866e+003,1.184820e-002
1.650795e+003,1.182506e-002
1.652723e+003,1.249050e-002
1.654652e+003,1.215637e-002
1.656580e+003,1.157955e-002
1.658509e+003,1.092511e-002
1.660437e+003,1.055245e-002
1.662366e+003,1.029417e-002
1.664294e+003,9.912210e-003
1.666223e+003,9.583632e-003
1.668151e+003,9.547608e-003
1.670080e+003,9.392645e-003
1.672008e+003,9.234449e-003
1.673937e+003,9.071907e-003
1.675865e+003,8.972976e-003
1.677794e+003,8.719692e-003
1.679722e+003,8.718031e-003
1.681651e+003,8.760203e-003
1.683579e+003,9.350402e-003
1.685508e+003,9.176979e-003
1.687436e+003,9.041816e-003
1.689365e+003,9.070389e-003
1.691293e+003,9.336118e-003
1.693222e+003,9.687928e-003
1.695150e+003,1.044313e-002
1.697079e+003,1.130195e-002
1.699007e+003,1.207188e-002
1.700936e+003,1.303725e-002
1.702864e+003,1.330683e-002
1.704793e+003,1.400059e-002
1.706721e+003,1.511401e-002
1.708650e+003,1.598205e-002
1.710578e+003,1.706290e-002
1.712507e+003,1.824560e-002
1.714435e+003,1.992246e-002
1.716364e+003,2.225396e-002
1.718292e+003,2.548767e-002
1.720221e+003,2.776706e-002
1.722149e+003,3.037673e-002
1.724078e+003,3.470029e-002
1.726006e+003,3.962538e-002
1.727935e+003,4.551019e-002
1.729863e+003,5.421771e-002
1.731792e+003,6.361584e-002
1.733720e+003,8.074652e-002
1.735649e+003,1.044405e-001
1.737577e+003,1.174385e-001
1.739506e+003,1.393674e-001
1.741434e+003,1.585807e-001
1.743363e+003,1.707183e-001
1.745291e+003,1.750342e-001
1.747220e+003,1.709496e-001
1.749148e+003,1.564791e-001
1.751077e+003,1.337265e-001
1.753005e+003,1.092341e-001
1.754934e+003,9.103263e-002
1.756862e+003,6.880915e-002
1.758791e+003,5.181553e-002
1.760719e+003,4.028458e-002
1.762648e+003,2.892591e-002
1.764576e+003,2.252493e-002
1.766505e+003,1.850247e-002
1.768433e+003,1.481669e-002
1.770362e+003,1.271629e-002
1.772290e+003,1.091507e-002
1.774219e+003,9.138988e-003
1.776147e+003,8.020137e-003
1.778076e+003,7.213624e-003
1.780004e+003,6.536214e-003
1.781933e+003,5.833717e-003
1.783861e+003,5.433630e-003
1.785790e+003,4.989291e-003
1.787718e+003,4.468575e-003
1.789646e+003,4.157886e-003
1.791575e+003,4.140826e-003
1.793504e+003,3.794871e-003
1.795432e+003,3.437530e-003
1.797361e+003,3.080919e-003
1.799289e+003,2.838956e-003
1.801218e+003,2.713755e-003
1.803146e+003,2.519300e-003
1.805074e+003,2.178652e-003
1.807003e+003,1.932742e-003
1.808932e+003,1.801854e-003
1.810860e+003,1.792086e-003
1.812789e+003,1.316577e-003
1.814717e+003,8.819085e-004
1.816646e+003,6.614104e-004
1.818574e+003,8.288920e-004
1.820502e+003,8.545909e-004
1.822431e+003,9.700954e-004
1.824360e+003,8.821022e-004
1.826288e+003,7.924847e-004
1.828217e+003,7.375330e-004
1.830145e+003,6.179605e-004
1.832073e+003,1.497753e-004
1.834002e+003,1.758058e-004
1.835931e+003,1.305435e-004
1.837859e+003,5.990081e-005
1.839788e+003,-1.188237e-004
1.841716e+003,3.813766e-005
1.843645e+003,7.380359e-005
1.845573e+003,6.321818e-006
1.847501e+003,-2.787933e-004
1.849430e+003,-3.169067e-004
1.851359e+003,-3.811922e-004
1.853287e+003,-3.138613e-004
1.855216e+003,-4.553571e-004
1.857144e+003,-4.604701e-004
1.859073e+003,-5.930793e-004
1.861001e+003,-4.924256e-004
1.862929e+003,-5.284790e-004
1.864858e+003,-4.289653e-004
1.866787e+003,-4.043151e-004
1.868715e+003,-2.397932e-004
1.870644e+003,-5.313531e-004
1.872572e+003,-5.726609e-004
1.874500e+003,-6.688684e-004
1.876429e+003,-6.663762e-004
1.878357e+003,-8.053929e-004
1.880286e+003,-6.653722e-004
1.882215e+003,-7.386915e-004
1.884143e+003,-6.513838e-004
1.886072e+003,-7.308815e-004
1.888000e+003,-3.355686e-004
1.889928e+003,-1.763925e-006
1.891857e+003,1.666434e-004
1.893785e+003,1.277681e-004
1.895714e+003,3.754441e-004
1.897643e+003,1.678374e-004
1.899571e+003,2.451502e-004
1.901500e+003,2.440047e-004
1.903428e+003,2.428573e-004
1.905356e+003,2.416987e-004
1.907285e+003,2.405364e-004
1.909213e+003,2.393667e-004
1.911142e+003,2.381951e-004
1.913071e+003,2.370104e-004
1.914999e+003,2.358239e-004
1.916927e+003,2.346318e-004
1.918856e+003,2.334323e-004
1.920784e+003,2.322271e-004
1.922713e+003,2.310127e-004
1.924641e+003,2.297945e-004
1.926570e+003,2.285726e-004
1.928499e+003,2.273433e-004
1.930427e+003,2.261065e-004
1.932355e+003,2.248622e-004
1.934284e+003,2.236180e-004
1.936212e+003,2.223607e-004
1.938141e+003,2.210997e-004
1.940070e+003,2.198331e-004
1.941998e+003,2.185591e-004
1.943927e+003,2.172813e-004
1.945855e+003,2.159942e-004
1.947783e+003,2.147052e-004
1.949712e+003,2.134051e-004
1.951640e+003,2.121013e-004
1.953569e+003,2.107918e-004
1.955498e+003,2.094768e-004
1.957426e+003,2.081525e-004
1.959354e+003,2.068244e-004
1.961283e+003,2.054889e-004
1.963211e+003,2.041496e-004
1.965140e+003,2.028029e-004
1.967068e+003,2.014507e-004
1.968997e+003,2.000891e-004
1.970926e+003,1.987256e-004
1.972854e+003,1.973528e-004
1.974782e+003,1.959763e-004
1.976711e+003,1.945943e-004
1.978639e+003,1.932047e-004
1.980568e+003,1.918077e-004
1.982496e+003,1.904033e-004
1.984425e+003,1.889989e-004
1.986354e+003,1.875833e-004
1.988282e+003,1.861621e-004
1.990210e+003,1.847371e-004
1.992139e+003,1.833048e-004
1.994067e+003,1.818649e-004
1.995996e+003,1.804195e-004
1.997924e+003,1.789685e-004
1.999853e+003,1.775101e-004
2.001781e+003,1.760479e-004
2.003710e+003,1.745783e-004
2.005638e+003,1.731031e-004
2.007567e+003,1.716185e-004
2.009495e+003,1.701321e-004
2.011424e+003,1.686383e-004
2.013352e+003,1.671389e-004
2.015281e+003,1.656320e-004
2.017209e+003,1.641214e-004
2.019138e+003,1.626015e-004
2.021066e+003,1.610741e-004
2.022995e+003,1.595449e-004
2.024923e+003,1.580063e-004
2.026852e+003,1.564659e-004
2.028781e+003,1.549181e-004
2.030709e+003,1.533609e-004
2.032637e+003,1.517981e-004
2.034566e+003,1.502279e-004
2.036494e+003,1.486558e-004
2.038423e+003,1.470763e-004
2.040351e+003,1.454893e-004
2.042280e+003,1.438987e-004
2.044208e+003,1.423005e-004
2.046137e+003,1.406930e-004
2.048065e+003,1.390837e-004
2.049994e+003,1.374669e-004
2.051922e+003,1.358446e-004
2.053851e+003,1.342166e-004
2.055779e+003,1.325831e-004
2.057708e+003,1.309384e-004
2.059636e+003,1.292918e-004
2.061565e+003,1.276378e-004
2.063493e+003,1.259763e-004
2.065422e+003,1.243111e-004
2.067350e+003,1.226384e-004
2.069279e+003,1.209602e-004
2.071207e+003,1.192763e-004
2.073136e+003,1.175888e-004
2.075064e+003,1.158901e-004
2.076993e+003,1.141876e-004
2.078921e+003,1.124777e-004
2.080850e+003,1.107603e-004
2.082778e+003,1.090392e-004
2.084707e+003,1.073144e-004
2.086635e+003,1.055803e-004
2.088564e+003,1.038425e-004
2.090492e+003,1.020972e-004
2.092421e+003,1.003444e-004
2.094349e+003,9.858608e-005
2.096278e+003,9.682029e-005
2.098206e+003,9.505451e-005
2.100135e+003,9.327568e-005
2.102063e+003,9.149313e-005
2.103992e+003,8.970313e-005
2.105920e+003,8.790568e-005
2.107849e+003,8.610822e-005
2.109777e+003,8.429959e-005
2.111706e+003,8.248724e-005
2.113634e+003,8.067116e-005
2.115563e+003,7.884391e-005
2.117491e+003,7.701106e-005
2.119420e+003,7.517263e-005
2.121348e+003,7.332675e-005
2.123277e+003,7.147901e-005
2.125205e+003,6.962381e-005
2.127134e+003,6.775931e-005
2.129062e+003,6.589293e-005
2.130991e+003,6.401911e-005
2.132919e+003,6.213784e-005
2.134848e+003,6.024912e-005
2.136776e+003,5.835667e-005
2.138705e+003,5.645864e-005
2.140633e+003,5.455129e-005
2.142562e+003,5.264208e-005
2.144490e+003,5.072169e-005
2.146419e+003,4.879944e-005
2.148347e+003,4.686974e-005
2.150276e+003,4.493445e-005
2.152204e+003,4.298985e-005
2.154133e+003,4.104339e-005
2.156061e+003,3.908947e-005
2.157990e+003,3.712811e-005
2.159918e+003,3.516115e-005
2.161847e+003,3.318861e-005
2.163775e+003,3.120862e-005
2.165704e+003,2.922304e-005
2.167632e+003,2.723187e-005
2.169561e+003,2.523512e-005
2.171489e+003,2.323091e-005
2.173418e+003,2.122298e-005
2.175346e+003,1.920573e-005
2.177275e+003,1.718476e-005
2.179203e+003,1.515634e-005
2.181132e+003,1.312420e-005
2.183060e+003,1.108274e-005
2.184989e+003,9.035692e-006
2.186917e+003,6.983057e-006
2.188846e+003,4.924834e-006
2.190774e+003,2.859160e-006
2.192703e+003,7.878989e-007
2.194631e+003,-1.290813e-006
2.196560e+003,-3.373250e-006
2.198488e+003,-5.463138e-006
2.200417e+003,-7.558614e-006
2.202345e+003,-9.657815e-006
2.204274e+003,-1.176447e-005
2.206202e+003,-1.388043e-005
2.208131e+003,-1.600012e-005
2.210059e+003,-1.812726e-005
2.211988e+003,-2.026185e-005
2.213916e+003,-2.240017e-005
2.215845e+003,-2.454408e-005
2.217773e+003,-2.669543e-005
2.219702e+003,-2.885237e-005
2.221630e+003,-3.101490e-005
2.223559e+003,-3.318489e-005
2.225487e+003,-3.535859e-005
2.227416e+003,-3.754161e-005
2.229344e+003,-3.972836e-005
2.231273e+003,-4.192069e-005
2.233201e+003,-4.412234e-005
2.235130e+003,-4.632957e-005
2.237058e+003,-4.854240e-005
2.238987e+003,-5.075708e-005
2.240915e+003,-5.298480e-005
2.242844e+003,-5.521625e-005
2.244772e+003,-5.745143e-005
2.246701e+003,-5.969219e-005
2.248629e+003,-6.194226e-005
2.250558e+003,-6.419793e-005
2.252486e+003,-6.645732e-005
2.254415e+003,-6.872602e-005
2.256343e+003,-7.100031e-005
2.258272e+003,-7.328019e-005
2.260200e+003,-7.556565e-005
2.262129e+003,-7.785857e-005
2.264057e+003,-8.015707e-005
2.265986e+003,-8.245930e-005
2.267914e+003,-8.477084e-005
2.269843e+003,-8.708797e-005
2.271771e+003,-8.941069e-005
2.273700e+003,-9.173900e-005
2.275628e+003,-9.407476e-005
2.277557e+003,-9.641238e-005
2.279485e+003,-9.875931e-005
2.281414e+003,-1.011156e-004
2.283342e+003,-1.034755e-004
2.285271e+003,-1.058411e-004
2.287199e+003,-1.082122e-004
2.289128e+003,-1.105890e-004
2.291056e+003,-1.129750e-004
2.292985e+003,-1.153648e-004
2.294913e+003,-1.177620e-004
2.296842e+003,-1.201611e-004
2.298770e+003,-1.225714e-004
2.300699e+003,-1.249872e-004
2.302627e+003,-1.274087e-004
2.304556e+003,-1.298357e-004
2.306484e+003,-1.322664e-004
2.308413e+003,-1.347084e-004
2.310341e+003,-1.371522e-004
2.312270e+003,-1.396034e-004
2.314198e+003,-1.420639e-004
2.316127e+003,-1.445264e-004
2.318055e+003,-1.469962e-004
2.319984e+003,-1.494717e-004
2.321912e+003,-1.519546e-004
2.323841e+003,-1.544431e-004
2.325769e+003,-1.569372e-004
2.327698e+003,-1.594368e-004
2.329626e+003,-1.619440e-004
2.331555e+003,-1.644585e-004
2.333483e+003,-1.669768e-004
2.335412e+003,-1.695026e-004
2.337340e+003,-1.720320e-004
2.339269e+003,-1.745690e-004
2.341197e+003,-1.771152e-004
2.343126e+003,-1.796670e-004
2.345054e+003,-1.822207e-004
2.346983e+003,-1.847818e-004
2.348911e+003,-1.873504e-004
2.350840e+003,-1.899246e-004
2.352768e+003,-1.925044e-004
2.354697e+003,-1.950935e-004
2.356625e+003,-1.976844e-004
2.358554e+003,-2.002846e-004
2.360482e+003,-2.028905e-004
2.362411e+003,-2.055001e-004
2.364339e+003,-2.081171e-004
2.366268e+003,-2.107378e-004
2.368196e+003,-2.133716e-004
2.370125e+003,-2.160072e-004
2.372053e+003,-2.186485e-004
2.373982e+003,-2.212971e-004
2.375910e+003,-2.239496e-004
2.377839e+003,-2.266075e-004
2.379767e+003,-2.292749e-004
2.381696e+003,-2.319515e-004
2.383624e+003,-2.346300e-004
2.385553e+003,-2.373122e-004
2.387481e+003,-2.400037e-004
2.389410e+003,-2.427008e-004
2.391338e+003,-2.454035e-004
2.393267e+003,-2.481118e-004
2.395195e+003,-2.508294e-004
2.397124e+003,-2.535507e-004
2.399052e+003,-2.562795e-004
2.400981e+003,-2.417937e-004
2.402909e+003,-7.947721e-005
2.404838e+003,9.755045e-005
2.406766e+003,2.237726e-004
2.408695e+003,4.304573e-004
2.410623e+003,3.795922e-004
2.412552e+003,3.850330e-004
2.414480e+003,4.911572e-004
2.416409e+003,5.775243e-004
2.418337e+003,5.599670e-004
2.420266e+003,6.330460e-004
2.422194e+003,5.835127e-004
2.424123e+003,4.648753e-004
2.426051e+003,3.524758e-004
2.427979e+003,3.581848e-004
2.429908e+003,4.812088e-004
2.431837e+003,6.454438e-004
2.433765e+003,6.400589e-004
2.435694e+003,6.793644e-004
2.437622e+003,6.090365e-004
2.439551e+003,5.994383e-004
2.441479e+003,5.502924e-004
2.443407e+003,6.396957e-004
2.445336e+003,6.547105e-004
2.447265e+003,7.401723e-004
2.449193e+003,8.196943e-004
2.451122e+003,9.058286e-004
2.453050e+003,8.529648e-004
2.454979e+003,8.951593e-004
2.456907e+003,7.943921e-004
2.458836e+003,7.231794e-004
2.460764e+003,6.242897e-004
2.462693e+003,6.888676e-004
2.464621e+003,7.903483e-004
2.466550e+003,7.439852e-004
2.468478e+003,6.855559e-004
2.470406e+003,7.911846e-004
2.472335e+003,8.859821e-004
2.474264e+003,1.029726e-003
2.476192e+003,1.016591e-003
2.478121e+003,1.088135e-003
2.480049e+003,1.125857e-003
2.481978e+003,1.132367e-003
2.483906e+003,9.545535e-004
2.485835e+003,7.952992e-004
2.487763e+003,9.509865e-004
2.489692e+003,1.120456e-003
2.491620e+003,1.093948e-003
2.493549e+003,1.137223e-003
2.495477e+003,1.073562e-003
2.497406e+003,1.139509e-003
2.499334e+003,1.328085e-003
2.501263e+003,1.453526e-003
2.503191e+003,1.490749e-003
2.505120e+003,1.584601e-003
2.507048e+003,1.521327e-003
2.508977e+003,1.529519e-003
2.510905e+003,1.599712e-003
2.512833e+003,1.664544e-003
2.514762e+003,1.772262e-003
2.516691e+003,1.977697e-003
2.518619e+003,1.925895e-003
2.520548e+003,2.065912e-003
2.522476e+003,2.366534e-003
2.524405e+003,2.486112e-003
2.526333e+003,2.554784e-003
2.528261e+003,2.645545e-003
2.530190e+003,2.585059e-003
2.532119e+003,2.637148e-003
2.534047e+003,2.569566e-003
2.535976e+003,2.441624e-003
2.537904e+003,2.436230e-003
2.539833e+003,2.594836e-003
2.541761e+003,2.563091e-003
2.543689e+003,2.591291e-003
2.545618e+003,2.769925e-003
2.547547e+003,2.989385e-003
2.549475e+003,3.266703e-003
2.551404e+003,3.415858e-003
2.553332e+003,3.330559e-003
2.555260e+003,3.395397e-003
2.557189e+003,3.446933e-003
2.559117e+003,3.607970e-003
2.561046e+003,3.725599e-003
2.562975e+003,3.848730e-003
2.564903e+003,3.885627e-003
2.566832e+003,4.046440e-003
2.568760e+003,4.113689e-003
2.570688e+003,4.168080e-003
2.572617e+003,4.297325e-003
2.574546e+003,4.471133e-003
2.576474e+003,4.640283e-003
2.578403e+003,4.828934e-003
2.580331e+003,4.935533e-003
2.582260e+003,5.085032e-003
2.584188e+003,5.289795e-003
2.586116e+003,5.456369e-003
2.588045e+003,5.693154e-003
2.589974e+003,6.037423e-003
2.591902e+003,6.127834e-003
2.593831e+003,6.216699e-003
2.595759e+003,6.471399e-003
2.597688e+003,6.760022e-003
2.599616e+003,6.837755e-003
2.601544e+003,6.915679e-003
2.603473e+003,7.120660e-003
2.605402e+003,7.390531e-003
2.607330e+003,7.569339e-003
2.609259e+003,7.848470e-003
2.611187e+003,8.081688e-003
2.613115e+003,8.366697e-003
2.615044e+003,8.663794e-003
2.616972e+003,9.006200e-003
2.618901e+003,9.351075e-003
2.620830e+003,9.648226e-003
2.622758e+003,9.948475e-003
2.624687e+003,1.036427e-002
2.626615e+003,1.079042e-002
2.628543e+003,1.123524e-002
2.630472e+003,1.169899e-002
2.632400e+003,1.205964e-002
2.634329e+003,1.227227e-002
2.636258e+003,1.233287e-002
2.638186e+003,1.231079e-002
2.640115e+003,1.230776e-002
2.642043e+003,1.227128e-002
2.643971e+003,1.223635e-002
2.645900e+003,1.216500e-002
2.647828e+003,1.225842e-002
2.649757e+003,1.244260e-002
2.651686e+003,1.269823e-002
2.653614e+003,1.288538e-002
2.655542e+003,1.307136e-002
2.657471e+003,1.315698e-002
2.659399e+003,1.316426e-002
2.661328e+003,1.304046e-002
2.663256e+003,1.278469e-002
2.665185e+003,1.255336e-002
2.667114e+003,1.243764e-002
2.669042e+003,1.234187e-002
2.670970e+003,1.222671e-002
2.672899e+003,1.207732e-002
2.674827e+003,1.194128e-002
2.676756e+003,1.183309e-002
2.678685e+003,1.169769e-002
2.680613e+003,1.160165e-002
2.682542e+003,1.156279e-002
2.684470e+003,1.147577e-002
2.686398e+003,1.140757e-002
2.688327e+003,1.132056e-002
2.690255e+003,1.117283e-002
2.692184e+003,1.103760e-002
2.694113e+003,1.094855e-002
2.696041e+003,1.092286e-002
2.697969e+003,1.100875e-002
2.699898e+003,1.111915e-002
2.701826e+003,1.124053e-002
2.703755e+003,1.142336e-002
2.705683e+003,1.159181e-002
2.707612e+003,1.174353e-002
2.709541e+003,1.192610e-002
2.711469e+003,1.206685e-002
2.713397e+003,1.219320e-002
2.715326e+003,1.232597e-002
2.717254e+003,1.253387e-002
2.719183e+003,1.270983e-002
2.721111e+003,1.295853e-002
2.723040e+003,1.320957e-002
2.724969e+003,1.342212e-002
2.726897e+003,1.370149e-002
2.728825e+003,1.398045e-002
2.730754e+003,1.423473e-002
2.732682e+003,1.445469e-002
2.734611e+003,1.464315e-002
2.736539e+003,1.477955e-002
2.738468e+003,1.488971e-002
2.740396e+003,1.498120e-002
2.742325e+003,1.495857e-002
2.744253e+003,1.493409e-002
2.746182e+003,1.495840e-002
2.748110e+003,1.499027e-002
2.750039e+003,1.507147e-002
2.751967e+003,1.521995e-002
2.753896e+003,1.545954e-002
2.755824e+003,1.577164e-002
2.757753e+003,1.606442e-002
2.759681e+003,1.639987e-002
2.761610e+003,1.672198e-002
2.763538e+003,1.707436e-002
2.765467e+003,1.748589e-002
2.767395e+003,1.791194e-002
2.769324e+003,1.845207e-002
2.771252e+003,1.906657e-002
2.773181e+003,1.966919e-002
2.775109e+003,2.038461e-002
2.777038e+003,2.119934e-002
2.778966e+003,2.215285e-002
2.780895e+003,2.322758e-002
2.782823e+003,2.438326e-002
2.784752e+003,2.562299e-002
2.786680e+003,2.698729e-002
2.788609e+003,2.843423e-002
2.790537e+003,2.994107e-002
2.792466e+003,3.151514e-002
2.794394e+003,3.315140e-002
2.796323e+003,3.486578e-002
2.798251e+003,3.664675e-002
2.800180e+003,3.847462e-002
2.802108e+003,4.047992e-002
2.804037e+003,4.268634e-002
2.805965e+003,4.506065e-002
2.807894e+003,4.773910e-002
2.809822e+003,5.088311e-002
2.811751e+003,5.444610e-002
2.813679e+003,5.855932e-002
2.815608e+003,6.348843e-002
2.817536e+003,6.920834e-002
2.819465e+003,7.597879e-002
2.821393e+003,8.411379e-002
2.823322e+003,9.405071e-002
2.825250e+003,1.063932e-001
2.827179e+003,1.218110e-001
2.829107e+003,1.409436e-001
2.831036e+003,1.648048e-001
2.832964e+003,1.952771e-001
2.834893e+003,2.355069e-001
2.836821e+003,2.896417e-001
2.838750e+003,3.641329e-001
2.840678e+003,4.693361e-001
2.842607e+003,6.155980e-001
2.844535e+003,7.968692e-001
2.846464e+003,9.491183e-001
2.848392e+003,9.489111e-001
2.850321e+003,7.971003e-001
2.852249e+003,6.301552e-001
2.854178e+003,5.086049e-001
2.856106e+003,4.190163e-001
2.858035e+003,3.474247e-001
2.859963e+003,2.900200e-001
2.861892e+003,2.460472e-001
2.863820e+003,2.146774e-001
2.865749e+003,1.946142e-001
2.867677e+003,1.842263e-001
2.869606e+003,1.812628e-001
2.871534e+003,1.821904e-001
2.873463e+003,1.847982e-001
2.875391e+003,1.902586e-001
2.877320e+003,2.006303e-001
2.879248e+003,2.164428e-001
2.881177e+003,2.366073e-001
2.883105e+003,2.596746e-001
2.885034e+003,2.848364e-001
2.886962e+003,3.115109e-001
2.888891e+003,3.391941e-001
2.890819e+003,3.676088e-001
2.892748e+003,3.964389e-001
2.894676e+003,4.254995e-001
2.896605e+003,4.553403e-001
2.898533e+003,4.869533e-001
2.900462e+003,5.223300e-001
2.902390e+003,5.647796e-001
2.904319e+003,6.185956e-001
2.906247e+003,6.889066e-001
2.908176e+003,7.800240e-001
2.910104e+003,8.921231e-001
2.912033e+003,1.011708e+000
2.913961e+003,1.097862e+000
2.915890e+003,1.101227e+000
2.917818e+003,1.023522e+000
2.919747e+003,9.140514e-001
2.921675e+003,8.073374e-001
2.923604e+003,7.130418e-001
2.925532e+003,6.316708e-001
2.927461e+003,5.602246e-001
2.929389e+003,4.954937e-001
2.931318e+003,4.362404e-001
2.933246e+003,3.823749e-001
2.935175e+003,3.341945e-001
2.937103e+003,2.918130e-001
2.939032e+003,2.552139e-001
2.940960e+003,2.243057e-001
2.942889e+003,1.989343e-001
2.944817e+003,1.792098e-001
2.946746e+003,1.649416e-001
2.948674e+003,1.556023e-001
2.950603e+003,1.502564e-001
2.952531e+003,1.467787e-001
2.954460e+003,1.427395e-001
2.956388e+003,1.371374e-001
2.958317e+003,1.297615e-001
2.960245e+003,1.207735e-001
2.962174e+003,1.106627e-001
2.964102e+003,1.000328e-001
2.966031e+003,8.940119e-002
2.967959e+003,7.932711e-002
2.969888e+003,7.032618e-002
2.971816e+003,6.258906e-002
2.973745e+003,5.600656e-002
2.975673e+003,5.043036e-002
2.977602e+003,4.571156e-002
2.979530e+003,4.171893e-002
2.981459e+003,3.836415e-002
2.983387e+003,3.560376e-002
2.985316e+003,3.339829e-002
2.987244e+003,3.180648e-002
2.989173e+003,3.073486e-002
2.991101e+003,3.026576e-002
2.993030e+003,3.060287e-002
2.994958e+003,3.177729e-002
2.996887e+003,3.358502e-002
2.998815e+003,3.578280e-002
3.000744e+003,3.795371e-002
3.002672e+003,3.956218e-002
3.004601e+003,4.016193e-002
3.006529e+003,3.967094e-002
3.008458e+003,3.812635e-002
3.010386e+003,3.557731e-002
3.012315e+003,3.229246e-002
3.014243e+003,2.887745e-002
3.016172e+003,2.560052e-002
3.018100e+003,2.273035e-002
3.020029e+003,2.031256e-002
3.021957e+003,1.831618e-002
3.023886e+003,1.673928e-002
3.025814e+003,1.561010e-002
3.027743e+003,1.472158e-002
3.029671e+003,1.391331e-002
3.031600e+003,1.316565e-002
3.033528e+003,1.264269e-002
3.035457e+003,1.214981e-002
3.037385e+003,1.166978e-002
3.039314e+003,1.124490e-002
3.041242e+003,1.084062e-002
3.043171e+003,1.041222e-002
3.045099e+003,1.005842e-002
3.047028e+003,9.722777e-003
3.048956e+003,9.390432e-003
3.050885e+003,9.163678e-003
3.052813e+003,9.057548e-003
3.054742e+003,8.864734e-003
3.056670e+003,8.712487e-003
3.058599e+003,8.623626e-003
3.060527e+003,8.544771e-003
3.062456e+003,8.498114e-003
3.064384e+003,8.385083e-003
3.066313e+003,8.244500e-003
3.068241e+003,8.157438e-003
3.070170e+003,8.033818e-003
3.072098e+003,7.911505e-003
3.074027e+003,7.734843e-003
3.075955e+003,7.493250e-003
3.077884e+003,7.302072e-003
3.079812e+003,7.093873e-003
3.081741e+003,6.870415e-003
3.083669e+003,6.714487e-003
3.085598e+003,6.590124e-003
3.087526e+003,6.404486e-003
3.089455e+003,6.208109e-003
3.091383e+003,6.113119e-003
3.093312e+003,5.907701e-003
3.095240e+003,5.659360e-003
3.097169e+003,5.352227e-003
3.099097e+003,5.045095e-003
3.101026e+003,4.782805e-003
3.102954e+003,4.662007e-003
3.104883e+003,4.612273e-003
3.106811e+003,4.569557e-003
3.108740e+003,4.399642e-003
3.110668e+003,4.180223e-003
3.112597e+003,4.135875e-003
3.114525e+003,4.176624e-003
3.116454e+003,4.062980e-003
3.118382e+003,3.923219e-003
3.120311e+003,3.822755e-003
3.122239e+003,3.794573e-003
3.124168e+003,3.879171e-003
3.126096e+003,3.942925e-003
3.128025e+003,3.886227e-003
3.129953e+003,3.781036e-003
3.131882e+003,3.780600e-003
3.133810e+003,3.852297e-003
3.135739e+003,3.926426e-003
3.137667e+003,3.936078e-003
3.139596e+003,3.898766e-003
3.141524e+003,3.893979e-003
3.143453e+003,3.901690e-003
3.145381e+003,3.952071e-003
3.147310e+003,3.999196e-003
3.149238e+003,3.994104e-003
3.151167e+003,3.977422e-003
3.153095e+003,4.051756e-003
3.155024e+003,4.122309e-003
3.156952e+003,4.136901e-003
3.158881e+003,4.131719e-003
3.160809e+003,4.115786e-003
3.162738e+003,4.171457e-003
3.164666e+003,4.216533e-003
3.166594e+003,4.300013e-003
3.168523e+003,4.389614e-003
3.170452e+003,4.410408e-003
3.172380e+003,4.477520e-003
3.174309e+003,4.566621e-003
3.176237e+003,4.601691e-003
3.178166e+003,4.616249e-003
3.180094e+003,4.708517e-003
3.182022e+003,4.752915e-003
3.183951e+003,4.845034e-003
3.185880e+003,4.890643e-003
3.187808e+003,4.994448e-003
3.189737e+003,5.077098e-003
3.191665e+003,5.061541e-003
3.193594e+003,5.043015e-003
3.195522e+003,5.070791e-003
3.197450e+003,5.120900e-003
3.199379e+003,5.119774e-003
3.201308e+003,5.170174e-003
3.203236e+003,5.340341e-003
3.205165e+003,5.409036e-003
3.207093e+003,5.460668e-003
3.209021e+003,5.498696e-003
3.210950e+003,5.497526e-003
3.212878e+003,5.526848e-003
3.214807e+003,5.576786e-003
3.216736e+003,5.574968e-003
3.218664e+003,5.635384e-003
3.220593e+003,5.713511e-003
3.222521e+003,5.727660e-003
3.224449e+003,5.760044e-003
3.226378e+003,5.783767e-003
3.228307e+003,5.827632e-003
3.230235e+003,5.935442e-003
3.232164e+003,6.018180e-003
3.234092e+003,5.976886e-003
3.236021e+003,6.066006e-003
3.237949e+003,6.255597e-003
3.239877e+003,6.385274e-003
3.241806e+003,6.510247e-003
3.243735e+003,6.595362e-003
3.245663e+003,6.640550e-003
3.247592e+003,6.644513e-003
3.249520e+003,6.763715e-003
3.251448e+003,6.909329e-003
3.253377e+003,7.071525e-003
3.255305e+003,7.214718e-003
3.257234e+003,7.287815e-003
3.259163e+003,7.407539e-003
3.261091e+003,7.433910e-003
3.263020e+003,7.488221e-003
3.264948e+003,7.692307e-003
3.266876e+003,7.898871e-003
3.268805e+003,7.968031e-003
3.270733e+003,8.035813e-003
3.272662e+003,8.166511e-003
3.274591e+003,8.300707e-003
3.276519e+003,8.390699e-003
3.278448e+003,8.508634e-003
3.280376e+003,8.485477e-003
3.282304e+003,8.466430e-003
3.284233e+003,8.580338e-003
3.286161e+003,8.623742e-003
3.288090e+003,8.603692e-003
3.290019e+003,8.729868e-003
3.291947e+003,8.821703e-003
3.293875e+003,8.691907e-003
3.295804e+003,8.569270e-003
3.297732e+003,8.627266e-003
3.299661e+003,8.665737e-003
3.301589e+003,8.615706e-003
3.303518e+003,8.562006e-003
3.305447e+003,8.698691e-003
3.307375e+003,8.734766e-003
3.309303e+003,8.730233e-003
3.311232e+003,8.853562e-003
3.313160e+003,8.776050e-003
3.315089e+003,8.643802e-003
3.317018e+003,8.634742e-003
3.318946e+003,8.680247e-003
3.320875e+003,8.640248e-003
3.322803e+003,8.572541e-003
3.324731e+003,8.648664e-003
3.326660e+003,8.709326e-003
3.328588e+003,8.745067e-003
3.330517e+003,8.710161e-003
3.332446e+003,8.647934e-003
3.334374e+003,8.632250e-003
3.336302e+003,8.598097e-003
3.338231e+003,8.638717e-003
3.340159e+003,8.613292e-003
3.342088e+003,8.516908e-003
3.344016e+003,8.563001e-003
3.345945e+003,8.677043e-003
3.347874e+003,8.690018e-003
3.349802e+003,8.614440e-003
3.351730e+003,8.592159e-003
3.353659e+003,8.537013e-003
3.355587e+003,8.621436e-003
3.357516e+003,8.606650e-003
3.359444e+003,8.448940e-003
3.361373e+003,8.490086e-003
3.363302e+003,8.517388e-003
3.365230e+003,8.546654e-003
3.367158e+003,8.465238e-003
3.369087e+003,8.411188e-003
3.371015e+003,8.409601e-003
3.372944e+003,8.376252e-003
3.374872e+003,8.381303e-003
3.376801e+003,8.500252e-003
3.378729e+003,8.483466e-003
3.380658e+003,8.361954e-003
3.382586e+003,8.360963e-003
3.384515e+003,8.396897e-003
3.386443e+003,8.390833e-003
3.388372e+003,8.407742e-003
3.390300e+003,8.377600e-003
3.392229e+003,8.298017e-003
3.394157e+003,8.223660e-003
3.396086e+003,8.206077e-003
3.398014e+003,8.234922e-003
3.399943e+003,8.205600e-003
3.401871e+003,8.303951e-003
3.403800e+003,8.307923e-003
3.405728e+003,8.201789e-003
3.407657e+003,8.164786e-003
3.409585e+003,8.073200e-003
3.411514e+003,8.119937e-003
3.413442e+003,8.094084e-003
3.415371e+003,7.998317e-003
3.417299e+003,8.024789e-003
3.419228e+003,8.247849e-003
3.421156e+003,8.334551e-003
3.423085e+003,8.227564e-003
3.425013e+003,8.087751e-003
3.426942e+003,8.051321e-003
3.428870e+003,8.109998e-003
3.430799e+003,8.116908e-003
3.432727e+003,8.006539e-003
3.434656e+003,7.919468e-003
3.436584e+003,7.928371e-003
3.438513e+003,7.954847e-003
3.440441e+003,7.959183e-003
3.442370e+003,7.879011e-003
3.444298e+003,7.916633e-003
3.446227e+003,8.127723e-003
3.448155e+003,8.079216e-003
3.450084e+003,8.005712e-003
3.452012e+003,8.004375e-003
3.453941e+003,7.940862e-003
3.455869e+003,7.954672e-003
3.457798e+003,8.142147e-003
3.459726e+003,8.157954e-003
3.461655e+003,8.206941e-003
3.463583e+003,8.307468e-003
3.465512e+003,8.322187e-003
3.467440e+003,8.213945e-003
3.469369e+003,8.138109e-003
3.471297e+003,8.062299e-003
3.473226e+003,7.927086e-003
3.475154e+003,7.776678e-003
3.477083e+003,7.576924e-003
3.479011e+003,7.440165e-003
3.480940e+003,7.404324e-003
3.482868e+003,7.198710e-003
3.484797e+003,6.961197e-003
3.486725e+003,6.853979e-003
3.488654e+003,6.729651e-003
3.490582e+003,6.465618e-003
3.492511e+003,6.206084e-003
3.494439e+003,6.101567e-003
3.496368e+003,6.013721e-003
3.498296e+003,5.860265e-003
3.500225e+003,5.835336e-003
3.502153e+003,5.804416e-003
3.504082e+003,5.691737e-003
3.506010e+003,5.612127e-003
3.507939e+003,5.520593e-003
3.509867e+003,5.329575e-003
3.511796e+003,5.191062e-003
3.513724e+003,5.048931e-003
3.515653e+003,4.829515e-003
3.517581e+003,4.857216e-003
3.519510e+003,4.823521e-003
3.521438e+003,4.809909e-003
3.523367e+003,4.657712e-003
3.525295e+003,4.479222e-003
3.527224e+003,4.558481e-003
3.529152e+003,4.552707e-003
3.531081e+003,4.431378e-003
3.533009e+003,4.164666e-003
3.534938e+003,3.955394e-003
3.536866e+003,3.897540e-003
3.538795e+003,3.794506e-003
3.540723e+003,3.642611e-003
3.542652e+003,3.692277e-003
3.544580e+003,3.802355e-003
3.546509e+003,3.774986e-003
3.548437e+003,3.406338e-003
3.550366e+003,3.084913e-003
3.552294e+003,2.868555e-003
3.554223e+003,2.838314e-003
3.556151e+003,2.670903e-003
3.558080e+003,2.535716e-003
3.560008e+003,2.679992e-003
3.561937e+003,2.512585e-003
3.563865e+003,2.287999e-003
3.565794e+003,2.413195e-003
3.567722e+003,2.656210e-003
3.569651e+003,2.285074e-003
3.571579e+003,1.730986e-003
3.573508e+003,1.473185e-003
3.575436e+003,1.540527e-003
3.577365e+003,1.594339e-003
3.579293e+003,1.482707e-003
3.581222e+003,1.131978e-003
3.583150e+003,9.565204e-004
3.585079e+003,1.050122e-003
3.587007e+003,1.402915e-003
3.588936e+003,1.508936e-003
3.590864e+003,1.276199e-003
3.592793e+003,1.221634e-003
3.594721e+003,1.475725e-003
3.596650e+003,1.496654e-003
3.598578e+003,1.633160e-003
3.600507e+003,1.942709e-003
3.602435e+003,1.980789e-003
3.604364e+003,1.807038e-003
3.606292e+003,1.808222e-003
3.608221e+003,2.058849e-003
3.610149e+003,1.964167e-003
3.612078e+003,1.607668e-003
3.614006e+003,8.934401e-004
3.615935e+003,6.295703e-004
3.617863e+003,5.985498e-004
3.619792e+003,7.658415e-004
3.621720e+003,7.946938e-004
3.623649e+003,5.726255e-004
3.625577e+003,5.626455e-004
3.627506e+003,1.265649e-003
3.629434e+003,1.261063e-003
3.631363e+003,8.104555e-004
3.633291e+003,5.755760e-004
3.635220e+003,3.208965e-005
3.637148e+003,-7.013232e-005
3.639077e+003,1.341142e-004
3.641005e+003,3.555305e-004
3.642934e+003,3.359541e-004
3.644862e+003,1.101270e-004
3.646791e+003,1.858883e-004
3.648719e+003,1.091219e-003
3.650648e+003,1.337133e-003
3.652576e+003,3.685467e-004
3.654505e+003,-9.715557e-006
3.656433e+003,-2.263859e-005
3.658362e+003,-2.478436e-005
3.660290e+003,-8.615106e-005
3.662219e+003,-3.476478e-004
3.664147e+003,-6.693900e-004
3.666076e+003,-6.945170e-004
3.668004e+003,-3.261752e-004
3.669933e+003,-1.430735e-004
3.671861e+003,-6.777011e-004
3.673790e+003,-7.087551e-004
3.675718e+003,-5.327240e-004
3.677647e+003,-1.872554e-004
3.679575e+003,-4.166365e-005
3.681504e+003,-4.119277e-004
3.683432e+003,-7.305555e-004
3.685361e+003,-9.662583e-004
3.687289e+003,-5.474649e-004
3.689218e+003,8.659065e-005
3.691146e+003,4.622713e-005
3.693075e+003,-1.845546e-004
3.695003e+003,-5.745403e-004
3.696932e+003,-9.332672e-004
3.698860e+003,-8.720495e-004
3.700789e+003,-4.377365e-004
3.702717e+003,-2.909265e-004
3.704646e+003,-5.680583e-004
3.706574e+003,-1.080390e-003
3.708503e+003,-1.286834e-003
3.710431e+003,-6.980225e-004
3.712360e+003,-1.266338e-004
3.714288e+003,-3.203154e-004
3.716217e+003,-6.915815e-004
3.718145e+003,-1.080304e-003
3.720074e+003,-1.115944e-003
3.722002e+003,-7.030852e-004
3.723931e+003,-2.792217e-004
3.725859e+003,-1.737736e-004
3.727788e+003,-5.399808e-004
3.729716e+003,-5.630665e-004
3.731645e+003,-5.273521e-004
3.733573e+003,-4.681759e-004
3.735502e+003,5.778633e-004
3.737430e+003,2.812631e-004
3.739359e+003,-6.088018e-004
3.741287e+003,-8.082017e-004
3.743216e+003,6.984919e-006
3.745144e+003,3.449731e-004
3.747073e+003,8.486211e-006
3.749001e+003,2.165847e-004
3.750930e+003,7.470474e-004
3.752858e+003,4.797950e-004
3.754787e+003,-4.508719e-005
3.756715e+003,-2.446026e-004
3.758644e+003,-1.751035e-004
3.760572e+003,7.992238e-005
3.762501e+003,-1.060851e-004
3.764429e+003,-4.123896e-004
3.766358e+003,-5.908795e-004
3.768286e+003,-3.080107e-004
3.770215e+003,-2.290234e-004
3.772143e+003,-4.247278e-004
3.774072e+003,-5.497262e-004
3.776000e+003,-4.962422e-004
3.777929e+003,-2.061948e-004
3.779857e+003,-6.670877e-005
3.781786e+003,-7.048622e-005
3.783714e+003,-3.486499e-005
3.785643e+003,-2.376437e-004
3.787571e+003,-4.262291e-004
3.789500e+003,-6.145947e-004
3.791428e+003,-5.975999e-004
3.793357e+003,-4.271306e-004
3.795285e+003,-2.322681e-004
3.797214e+003,-2.447926e-004
3.799142e+003,-8.584186e-005
3.801071e+003,8.282438e-005
3.802999e+003,-2.522990e-004
3.804927e+003,-8.202344e-005
3.806856e+003,1.918823e-004
3.808785e+003,1.085661e-004
3.810713e+003,-8.689240e-005
3.812642e+003,-2.860241e-004
3.814570e+003,1.092702e-004
3.816499e+003,4.752763e-004
3.818427e+003,7.046312e-004
3.820355e+003,9.144060e-004
3.822284e+003,1.792647e-004
3.824213e+003,-1.390278e-005
3.826141e+003,-2.761558e-004
3.828070e+003,-5.417578e-004
3.829998e+003,-7.777661e-005
3.831927e+003,2.333857e-004
3.833855e+003,2.095811e-004
3.835783e+003,2.051331e-004
3.837712e+003,3.651530e-005
3.839641e+003,-1.394190e-004
3.841569e+003,1.212470e-004
3.843498e+003,3.232844e-004
3.845426e+003,2.582036e-004
3.847354e+003,-7.162616e-005
3.849283e+003,-3.903620e-004
3.851211e+003,-1.631789e-004
3.853140e+003,8.515641e-004
3.855069e+003,8.819290e-004
3.856997e+003,4.820786e-004
3.858926e+003,-1.415163e-004
3.860854e+003,-2.308004e-004
3.862782e+003,4.453287e-004
3.864711e+003,8.207113e-004
3.866640e+003,4.360937e-004
3.868568e+003,4.172251e-004
3.870497e+003,1.703724e-004
3.872425e+003,4.772991e-004
3.874354e+003,4.233047e-004
3.876282e+003,-1.564994e-005
3.878210e+003,1.253039e-004
3.880139e+003,3.775135e-004
3.882068e+003,6.742738e-004
3.883996e+003,1.098335e-003
3.885925e+003,4.868656e-004
3.887853e+003,-8.318946e-005
3.889781e+003,6.660819e-006
3.891710e+003,2.261214e-004
3.893638e+003,3.947020e-004
3.895567e+003,4.037768e-004
3.897496e+003,2.401546e-004
3.899424e+003,1.017824e-004
3.901353e+003,5.793087e-004
3.903281e+003,8.359216e-004
3.905209e+003,6.201901e-004
3.907138e+003,5.339161e-004
3.909066e+003,4.044659e-004
3.910995e+003,2.996922e-004
3.912924e+003,1.848713e-004
3.914852e+003,3.453977e-004
3.916781e+003,5.333461e-004
3.918709e+003,4.499629e-004
3.920637e+003,2.794862e-004
3.922566e+003,3.185980e-004
3.924494e+003,4.556142e-004
3.926423e+003,3.797337e-004
3.928352e+003,3.151111e-004
3.930280e+003,2.533533e-004
3.932208e+003,3.633685e-004
3.934137e+003,3.121123e-004
3.936065e+003,1.857542e-004
3.937994e+003,-2.168864e-005
3.939922e+003,-4.313886e-005
3.941851e+003,1.890622e-004
3.943780e+003,2.513155e-004
3.945708e+003,3.365204e-004
3.947636e+003,3.788024e-004
3.949565e+003,2.729297e-004
3.951493e+003,1.638494e-004
3.953422e+003,2.058297e-004
3.955351e+003,1.717620e-004
3.957279e+003,9.778515e-005
3.959208e+003,1.971424e-004
3.961136e+003,3.730766e-004
3.963064e+003,3.579669e-004
3.964993e+003,3.226548e-004
3.966921e+003,3.430396e-004
3.968850e+003,3.634244e-004
3.970779e+003,3.205128e-004
3.972707e+003,3.444143e-004
3.974635e+003,3.436506e-004
3.976564e+003,2.802871e-004
3.978492e+003,2.132133e-004
3.980421e+003,2.557226e-004
3.982349e+003,2.890937e-004
3.984278e+003,2.212301e-004
3.986207e+003,2.501532e-004
3.988135e+003,3.106147e-004
3.990063e+003,2.744757e-004
3.991992e+003,2.701245e-004
3.993920e+003,2.524815e-004
3.995849e+003,1.519844e-004
3.997777e+003,4.055351e-005
3.999706e+003,1.017377e-004
4.001635e+003,0.000000e+000
