3.991992e+002,0.000000e+000
4.011277e+002,0.000000e+000
4.030562e+002,0.000000e+000
4.049846e+002,0.000000e+000
4.069131e+002,0.000000e+000
4.088416e+002,0.000000e+000
4.107701e+002,0.000000e+000
4.126986e+002,0.000000e+000
4.146271e+002,0.000000e+000
4.165556e+002,0.000000e+000
4.184841e+002,0.000000e+000
4.204126e+002,0.000000e+000
4.223411e+002,0.000000e+000
4.242697e+002,0.000000e+000
4.261982e+002,0.000000e+000
4.281266e+002,0.000000e+000
4.300551e+002,0.000000e+000
4.319836e+002,0.000000e+000
4.339121e+002,0.000000e+000
4.358406e+002,0.000000e+000
4.377691e+002,0.000000e+000
4.396976e+002,0.000000e+000
4.416261e+002,0.000000e+000
4.435546e+002,0.000000e+000
4.454831e+002,0.000000e+000
4.474116e+002,0.000000e+000
4.493401e+002,0.000000e+000
4.512686e+002,0.000000e+000
4.531971e+002,0.000000e+000
4.551256e+002,0.000000e+000
4.570541e+002,0.000000e+000
4.589826e+002,0.000000e+000
4.609111e+002,0.000000e+000
4.628396e+002,0.000000e+000
4.647681e+002,0.000000e+000
4.666966e+002,0.000000e+000
4.686251e+002,0.000000e+000
4.705536e+002,0.000000e+000
4.724821e+002,0.000000e+000
4.744106e+002,0.000000e+000
4.763391e+002,0.000000e+000
4.782676e+002,0.000000e+000
4.801961e+002,0.000000e+000
4.821246e+002,0.000000e+000
4.840531e+002,0.000000e+000
4.859816e+002,0.000000e+000
4.879101e+002,0.000000e+000
4.898386e+002,0.000000e+000
4.917671e+002,0.000000e+000
4.936956e+002,0.000000e+000
4.956241e+002,0.000000e+000
4.975526e+002,0.000000e+000
4.994811e+002,0.000000e+000
5.014096e+002,0.000000e+000
5.033381e+002,0.000000e+000
5.052666e+002,0.000000e+000
5.071951e+002,0.000000e+000
5.091236e+002,0.000000e+000
5.110521e+002,0.000000e+000
5.129806e+002,0.000000e+000
5.149091e+002,0.000000e+000
5.168376e+002,0.000000e+000
5.187661e+002,0.000000e+000
5.206946e+002,0.000000e+000
5.226230e+002,0.000000e+000
5.245516e+002,2.064211e-004
5.264800e+002,2.068197e-004
5.284086e+002,3.553759e-004
5.303370e+002,2.576737e-004
5.322656e+002,2.336930e-004
5.341940e+002,2.131592e-004
5.361226e+002,7.039588e-005
5.380510e+002,1.462363e-005
5.399796e+002,9.783544e-005
5.419081e+002,5.518552e-005
5.438365e+002,5.761534e-005
5.457650e+002,2.289051e-004
5.476935e+002,2.501290e-004
5.496221e+002,7.057749e-005
5.515505e+002,5.268026e-005
5.534790e+002,1.604315e-004
5.554075e+002,2.238732e-004
5.573361e+002,1.113228e-004
5.592645e+002,1.226049e-004
5.611931e+002,1.285765e-004
5.631215e+002,7.833261e-005
5.650500e+002,7.374212e-006
5.669785e+002,9.450130e-006
5.689070e+002,2.387539e-005
5.708355e+002,8.288585e-005
5.727640e+002,2.606399e-005
5.746925e+002,-6.762333e-005
5.766210e+002,-1.146132e-004
5.785495e+002,-4.255120e-005
5.804780e+002,-2.251845e-005
5.824065e+002,-6.175693e-005
5.843350e+002,-1.619216e-004
5.862635e+002,-1.721568e-004
5.881920e+002,-1.903204e-004
5.901205e+002,-1.772456e-004
5.920490e+002,-1.773238e-004
5.939775e+002,-1.304746e-004
5.959060e+002,-1.086360e-004
5.978345e+002,-1.401920e-004
5.997630e+002,-1.508072e-004
6.016915e+002,-1.541339e-005
6.036200e+002,5.911663e-005
6.055485e+002,3.749412e-005
6.074770e+002,-3.058370e-005
6.094055e+002,3.240071e-005
6.113340e+002,-3.881846e-005
6.132625e+002,-1.941519e-004
6.151910e+002,-2.861368e-004
6.171195e+002,-2.567135e-004
6.190480e+002,-2.632821e-004
6.209765e+002,-1.163064e-004
6.229050e+002,-6.517395e-006
6.248335e+002,3.170501e-005
6.267620e+002,-1.891702e-005
6.286905e+002,2.455339e-005
6.306190e+002,8.881651e-005
6.325475e+002,1.045549e-004
6.344760e+002,1.058290e-004
6.364045e+002,2.109762e-004
6.383330e+002,2.664728e-004
6.402615e+002,3.496204e-004
6.421899e+002,3.169551e-004
6.441185e+002,3.290046e-004
6.460470e+002,3.681434e-004
6.479755e+002,4.092325e-004
6.499039e+002,3.740750e-004
6.518325e+002,4.189489e-004
6.537610e+002,4.727310e-004
6.556895e+002,6.388566e-004
6.576179e+002,6.669816e-004
6.595464e+002,6.837416e-004
6.614750e+002,6.725974e-004
6.634034e+002,6.890744e-004
6.653319e+002,6.524473e-004
6.672604e+002,6.841766e-004
6.691890e+002,5.905209e-004
6.711174e+002,6.992025e-004
6.730460e+002,8.570962e-004
6.749745e+002,9.722859e-004
6.769030e+002,1.055148e-003
6.788314e+002,1.240718e-003
6.807599e+002,1.302563e-003
6.826885e+002,1.424156e-003
6.846169e+002,1.571797e-003
6.865454e+002,1.793590e-003
6.884739e+002,1.920202e-003
6.904025e+002,2.177356e-003
6.923309e+002,2.484377e-003
6.942594e+002,2.876086e-003
6.961879e+002,3.385680e-003
6.981165e+002,4.178623e-003
7.000449e+002,5.089834e-003
7.019734e+002,6.266301e-003
7.039019e+002,7.729903e-003
7.058304e+002,9.922978e-003
7.077589e+002,1.281793e-002
7.096874e+002,1.721706e-002
7.116159e+002,2.446702e-002
7.135444e+002,3.860501e-002
7.154729e+002,6.392550e-002
7.174014e+002,9.763449e-002
7.193299e+002,1.122809e-001
7.212584e+002,8.549002e-002
7.231869e+002,5.777610e-002
7.251154e+002,4.836803e-002
7.270439e+002,5.352271e-002
7.289724e+002,6.856674e-002
7.309009e+002,6.365092e-002
7.328294e+002,3.639019e-002
7.347579e+002,1.896067e-002
7.366864e+002,1.267922e-002
7.386149e+002,9.926811e-003
7.405434e+002,8.238705e-003
7.424719e+002,7.170212e-003
7.444004e+002,6.398968e-003
7.463289e+002,5.878339e-003
7.482574e+002,5.385531e-003
7.501859e+002,4.971972e-003
7.521144e+002,4.573667e-003
7.540428e+002,4.332863e-003
7.559714e+002,4.063744e-003
7.578999e+002,3.878243e-003
7.598284e+002,3.737014e-003
7.617568e+002,3.644103e-003
7.636854e+002,3.568035e-003
7.656139e+002,3.544530e-003
7.675424e+002,3.458304e-003
7.694709e+002,3.366187e-003
7.713994e+002,3.267091e-003
7.733279e+002,3.159089e-003
7.752563e+002,3.056571e-003
7.771849e+002,2.958324e-003
7.791134e+002,2.852542e-003
7.810419e+002,2.756415e-003
7.829703e+002,2.666669e-003
7.848989e+002,2.601774e-003
7.868274e+002,2.487224e-003
7.887559e+002,2.421500e-003
7.906843e+002,2.439287e-003
7.926129e+002,2.407925e-003
7.945414e+002,2.396066e-003
7.964698e+002,2.443891e-003
7.983983e+002,2.401590e-003
8.003268e+002,2.307894e-003
8.022554e+002,2.278194e-003
8.041838e+002,2.219317e-003
8.061123e+002,2.166359e-003
8.080408e+002,2.075097e-003
8.099694e+002,2.001626e-003
8.118978e+002,1.952028e-003
8.138263e+002,1.931179e-003
8.157548e+002,1.897536e-003
8.176833e+002,1.837181e-003
8.196118e+002,1.733756e-003
8.215403e+002,1.606757e-003
8.234689e+002,1.516780e-003
8.253973e+002,1.501063e-003
8.273258e+002,1.454487e-003
8.292543e+002,1.430944e-003
8.311829e+002,1.419924e-003
8.331113e+002,1.443826e-003
8.350398e+002,1.407342e-003
8.369683e+002,1.431540e-003
8.388969e+002,1.447894e-003
8.408253e+002,1.485869e-003
8.427538e+002,1.506936e-003
8.446823e+002,1.526285e-003
8.466108e+002,1.474496e-003
8.485393e+002,1.462275e-003
8.504678e+002,1.491589e-003
8.523963e+002,1.493175e-003
8.543248e+002,1.494884e-003
8.562533e+002,1.538113e-003
8.581818e+002,1.478260e-003
8.601103e+002,1.443306e-003
8.620388e+002,1.455611e-003
8.639673e+002,1.496112e-003
8.658958e+002,1.500212e-003
8.678243e+002,1.484983e-003
8.697528e+002,1.546582e-003
8.716813e+002,1.662135e-003
8.736098e+002,1.691801e-003
8.755383e+002,1.725929e-003
8.774668e+002,1.760526e-003
8.793953e+002,1.898943e-003
8.813238e+002,2.087871e-003
8.832523e+002,2.325712e-003
8.851808e+002,2.536759e-003
8.871093e+002,2.687957e-003
8.890378e+002,2.677808e-003
8.909663e+002,2.642347e-003
8.928948e+002,2.493063e-003
8.948232e+002,2.366180e-003
8.967518e+002,2.251552e-003
8.986803e+002,2.155472e-003
9.006088e+002,2.073843e-003
9.025372e+002,2.144359e-003
9.044658e+002,2.290489e-003
9.063943e+002,2.537003e-003
9.083228e+002,2.628038e-003
9.102512e+002,2.495933e-003
9.121797e+002,2.226355e-003
9.141083e+002,2.032043e-003
9.160367e+002,1.836611e-003
9.179653e+002,1.739776e-003
9.198937e+002,1.654057e-003
9.218223e+002,1.653969e-003
9.237507e+002,1.661876e-003
9.256793e+002,1.714865e-003
9.276077e+002,1.821201e-003
9.295363e+002,1.828078e-003
9.314647e+002,1.829911e-003
9.333932e+002,1.907386e-003
9.353217e+002,1.754045e-003
9.372502e+002,1.754558e-003
9.391787e+002,1.962449e-003
9.411072e+002,1.716455e-003
9.430358e+002,1.476029e-003
9.449642e+002,1.776727e-003
9.468928e+002,1.848446e-003
9.488212e+002,1.579829e-003
9.507498e+002,1.598610e-003
9.526782e+002,1.755103e-003
9.546068e+002,1.708305e-003
9.565352e+002,1.778858e-003
9.584637e+002,1.874357e-003
9.603922e+002,1.998756e-003
9.623207e+002,2.077116e-003
9.642492e+002,2.180343e-003
9.661777e+002,2.210010e-003
9.681062e+002,2.150040e-003
9.700347e+002,2.046036e-003
9.719632e+002,2.022525e-003
9.738917e+002,2.021730e-003
9.758202e+002,1.973061e-003
9.777487e+002,1.902565e-003
9.796772e+002,1.924979e-003
9.816057e+002,1.919165e-003
9.835342e+002,1.970980e-003
9.854627e+002,2.012778e-003
9.873912e+002,2.139093e-003
9.893197e+002,2.221152e-003
9.912482e+002,2.258595e-003
9.931767e+002,2.263924e-003
9.951052e+002,2.313655e-003
9.970337e+002,2.356419e-003
9.989622e+002,2.409814e-003
1.000891e+003,2.401100e-003
1.002819e+003,2.463164e-003
1.004748e+003,2.567476e-003
1.006676e+003,2.634563e-003
1.008605e+003,2.675159e-003
1.010533e+003,2.812602e-003
1.012462e+003,2.915746e-003
1.014390e+003,3.017249e-003
1.016319e+003,3.114417e-003
1.018247e+003,3.197903e-003
1.020176e+003,3.243325e-003
1.022104e+003,3.314193e-003
1.024033e+003,3.331609e-003
1.025961e+003,3.357496e-003
1.027890e+003,3.352601e-003
1.029818e+003,3.419528e-003
1.031747e+003,3.477788e-003
1.033675e+003,3.531961e-003
1.035604e+003,3.571561e-003
1.037532e+003,3.641207e-003
1.039461e+003,3.656885e-003
1.041389e+003,3.738414e-003
1.043318e+003,3.785584e-003
1.045246e+003,3.845939e-003
1.047175e+003,3.914783e-003
1.049103e+003,4.101556e-003
1.051032e+003,4.191466e-003
1.052960e+003,4.180089e-003
1.054889e+003,4.198365e-003
1.056817e+003,4.267246e-003
1.058746e+003,4.355764e-003
1.060674e+003,4.539967e-003
1.062603e+003,4.627462e-003
1.064531e+003,4.674219e-003
1.066460e+003,4.689131e-003
1.068388e+003,4.729403e-003
1.070317e+003,4.784420e-003
1.072245e+003,4.943715e-003
1.074174e+003,5.055485e-003
1.076102e+003,5.235620e-003
1.078031e+003,5.360907e-003
1.079959e+003,5.445566e-003
1.081888e+003,5.421225e-003
1.083816e+003,5.436191e-003
1.085745e+003,5.393723e-003
1.087673e+003,5.375113e-003
1.089602e+003,5.297136e-003
1.091530e+003,5.230384e-003
1.093459e+003,5.058827e-003
1.095387e+003,4.966918e-003
1.097316e+003,4.863722e-003
1.099244e+003,4.772507e-003
1.101173e+003,4.645549e-003
1.103101e+003,4.540604e-003
1.105030e+003,4.394811e-003
1.106958e+003,4.305512e-003
1.108887e+003,4.217122e-003
1.110815e+003,4.200760e-003
1.112744e+003,4.156349e-003
1.114672e+003,4.139433e-003
1.116601e+003,4.054883e-003
1.118529e+003,4.037226e-003
1.120458e+003,3.938705e-003
1.122386e+003,3.929479e-003
1.124315e+003,3.899818e-003
1.126243e+003,3.909517e-003
1.128172e+003,3.898926e-003
1.130100e+003,3.988001e-003
1.132029e+003,4.001113e-003
1.133957e+003,3.999444e-003
1.135885e+003,4.014915e-003
1.137814e+003,4.137391e-003
1.139743e+003,4.206559e-003
1.141671e+003,4.299907e-003
1.143600e+003,4.378146e-003
1.145528e+003,4.504167e-003
1.147457e+003,4.641052e-003
1.149385e+003,4.882308e-003
1.151314e+003,5.089823e-003
1.153242e+003,5.364338e-003
1.155171e+003,5.615452e-003
1.157099e+003,5.856289e-003
1.159028e+003,5.974300e-003
1.160956e+003,6.059902e-003
1.162885e+003,6.033707e-003
1.164813e+003,5.953889e-003
1.166742e+003,5.753627e-003
1.168670e+003,5.541857e-003
1.170599e+003,5.317817e-003
1.172527e+003,5.174195e-003
1.174456e+003,4.963990e-003
1.176384e+003,4.857128e-003
1.178313e+003,4.687786e-003
1.180241e+003,4.446035e-003
1.182170e+003,4.254330e-003
1.184098e+003,4.186148e-003
1.186027e+003,4.094426e-003
1.187955e+003,4.100710e-003
1.189884e+003,4.094651e-003
1.191812e+003,4.155587e-003
1.193740e+003,4.180180e-003
1.195669e+003,4.279818e-003
1.197598e+003,4.326889e-003
1.199526e+003,4.406968e-003
1.201455e+003,4.497306e-003
1.203383e+003,4.675463e-003
1.205312e+003,4.791848e-003
1.207240e+003,4.968155e-003
1.209168e+003,5.127773e-003
1.211097e+003,5.370229e-003
1.213026e+003,5.549157e-003
1.214954e+003,5.768284e-003
1.216883e+003,5.923452e-003
1.218811e+003,6.123006e-003
1.220740e+003,6.273987e-003
1.222668e+003,6.459262e-003
1.224596e+003,6.610988e-003
1.226525e+003,6.837122e-003
1.228453e+003,6.985057e-003
1.230382e+003,7.152392e-003
1.232311e+003,7.264409e-003
1.234239e+003,7.449713e-003
1.236167e+003,7.523976e-003
1.238096e+003,7.558743e-003
1.240025e+003,7.551204e-003
1.241953e+003,7.556194e-003
1.243882e+003,7.421589e-003
1.245810e+003,7.315103e-003
1.247739e+003,7.139891e-003
1.249667e+003,6.992772e-003
1.251595e+003,6.827250e-003
1.253524e+003,6.786279e-003
1.255453e+003,6.725211e-003
1.257381e+003,6.754559e-003
1.259310e+003,6.728444e-003
1.261238e+003,6.713346e-003
1.263167e+003,6.578205e-003
1.265095e+003,6.486537e-003
1.267023e+003,6.346278e-003
1.268952e+003,6.326627e-003
1.270880e+003,6.280109e-003
1.272809e+003,6.279152e-003
1.274738e+003,6.254418e-003
1.276666e+003,6.339801e-003
1.278594e+003,6.410118e-003
1.280523e+003,6.557235e-003
1.282451e+003,6.681032e-003
1.284380e+003,6.884577e-003
1.286308e+003,7.027479e-003
1.288237e+003,7.316871e-003
1.290166e+003,7.591767e-003
1.292094e+003,7.960860e-003
1.294022e+003,8.355130e-003
1.295951e+003,8.799776e-003
1.297879e+003,9.062307e-003
1.299808e+003,9.307560e-003
1.301736e+003,9.411642e-003
1.303665e+003,9.479536e-003
1.305594e+003,9.405246e-003
1.307522e+003,9.317636e-003
1.309450e+003,9.043880e-003
1.311379e+003,8.741407e-003
1.313307e+003,8.294608e-003
1.315236e+003,7.896537e-003
1.317164e+003,7.467607e-003
1.319093e+003,7.118030e-003
1.321021e+003,6.692581e-003
1.322950e+003,6.448584e-003
1.324878e+003,6.182075e-003
1.326807e+003,6.095532e-003
1.328735e+003,6.032815e-003
1.330664e+003,6.192841e-003
1.332592e+003,6.428860e-003
1.334521e+003,6.912775e-003
1.336449e+003,7.533953e-003
1.338378e+003,8.394331e-003
1.340306e+003,9.098709e-003
1.342235e+003,9.593686e-003
1.344163e+003,9.990111e-003
1.346092e+003,1.065871e-002
1.348021e+003,1.135411e-002
1.349949e+003,1.206054e-002
1.351877e+003,1.239983e-002
1.353806e+003,1.247302e-002
1.355734e+003,1.225570e-002
1.357663e+003,1.231289e-002
1.359591e+003,1.264462e-002
1.361520e+003,1.354597e-002
1.363448e+003,1.477455e-002
1.365377e+003,1.596796e-002
1.367305e+003,1.691569e-002
1.369234e+003,1.740954e-002
1.371162e+003,1.717778e-002
1.373091e+003,1.754932e-002
1.375019e+003,1.960790e-002
1.376948e+003,2.126354e-002
1.378876e+003,1.955835e-002
1.380805e+003,1.498171e-002
1.382733e+003,1.055539e-002
1.384662e+003,8.008990e-003
1.386590e+003,6.537534e-003
1.388519e+003,5.766502e-003
1.390447e+003,5.190209e-003
1.392376e+003,5.071945e-003
1.394304e+003,4.899537e-003
1.396233e+003,4.964830e-003
1.398161e+003,4.777882e-003
1.400090e+003,4.915955e-003
1.402018e+003,4.774682e-003
1.403947e+003,5.028205e-003
1.405875e+003,5.034925e-003
1.407804e+003,5.261453e-003
1.409732e+003,5.327089e-003
1.411661e+003,5.680377e-003
1.413589e+003,5.755730e-003
1.415518e+003,6.144734e-003
1.417446e+003,6.325547e-003
1.419375e+003,7.199606e-003
1.421303e+003,7.449966e-003
1.423232e+003,8.451173e-003
1.425160e+003,9.872999e-003
1.427089e+003,1.188164e-002
1.429017e+003,1.439669e-002
1.430946e+003,1.821833e-002
1.432874e+003,2.136484e-002
1.434803e+003,2.449526e-002
1.436731e+003,2.785820e-002
1.438660e+003,3.087843e-002
1.440588e+003,3.266983e-002
1.442517e+003,3.530672e-002
1.444445e+003,3.740195e-002
1.446374e+003,4.037298e-002
1.448302e+003,4.444397e-002
1.450231e+003,5.060457e-002
1.452159e+003,5.963724e-002
1.454088e+003,7.122158e-002
1.456016e+003,8.266814e-002
1.457945e+003,1.076456e-001
1.459873e+003,1.503817e-001
1.461802e+003,1.965108e-001
1.463730e+003,2.005110e-001
1.465659e+003,1.584543e-001
1.467587e+003,1.442506e-001
1.469516e+003,1.426124e-001
1.471444e+003,1.610386e-001
1.473373e+003,1.385251e-001
1.475301e+003,7.482062e-002
1.477230e+003,3.365289e-002
1.479158e+003,2.146922e-002
1.481087e+003,1.546147e-002
1.483015e+003,1.263448e-002
1.484944e+003,1.039764e-002
1.486872e+003,9.752143e-003
1.488801e+003,8.280590e-003
1.490729e+003,7.957740e-003
1.492658e+003,6.730910e-003
1.494586e+003,6.726604e-003
1.496515e+003,6.046228e-003
1.498443e+003,6.104862e-003
1.500372e+003,5.269079e-003
1.502300e+003,5.203253e-003
1.504229e+003,4.812779e-003
1.506157e+003,6.061023e-003
1.508086e+003,4.992859e-003
1.510014e+003,4.772667e-003
1.511943e+003,4.236631e-003
1.513871e+003,4.383618e-003
1.515800e+003,4.213758e-003
1.517728e+003,4.469780e-003
1.519657e+003,4.012628e-003
1.521585e+003,4.584625e-003
1.523514e+003,4.009066e-003
1.525442e+003,4.242193e-003
1.527371e+003,3.867770e-003
1.529299e+003,3.823990e-003
1.531228e+003,3.605260e-003
1.533156e+003,4.008122e-003
1.535085e+003,3.593508e-003
1.537013e+003,3.711989e-003
1.538942e+003,3.990732e-003
1.540870e+003,4.814919e-003
1.542799e+003,3.954144e-003
1.544727e+003,3.834648e-003
1.546656e+003,3.282344e-003
1.548584e+003,3.311392e-003
1.550513e+003,3.121439e-003
1.552441e+003,3.143491e-003
1.554370e+003,3.032237e-003
1.556298e+003,3.295867e-003
1.558227e+003,3.755689e-003
1.560155e+003,3.478330e-003
1.562084e+003,2.516955e-003
1.564012e+003,2.493951e-003
1.565941e+003,2.337657e-003
1.567869e+003,2.453469e-003
1.569798e+003,2.352169e-003
1.571726e+003,2.195271e-003
1.573655e+003,2.062093e-003
1.575583e+003,2.459059e-003
1.577512e+003,2.223788e-003
1.579440e+003,2.041489e-003
1.581369e+003,1.896951e-003
1.583297e+003,1.995537e-003
1.585226e+003,1.952190e-003
1.587154e+003,2.041407e-003
1.589083e+003,1.956211e-003
1.591011e+003,1.989169e-003
1.592940e+003,1.930906e-003
1.594868e+003,1.989614e-003
1.596797e+003,1.820663e-003
1.598725e+003,1.863051e-003
1.600654e+003,1.880094e-003
1.602582e+003,1.992596e-003
1.604511e+003,1.884336e-003
1.606439e+003,1.988422e-003
1.608368e+003,2.003817e-003
1.610296e+003,2.066560e-003
1.612225e+003,1.987588e-003
1.614153e+003,2.156554e-003
1.616082e+003,2.394417e-003
1.618010e+003,2.511367e-003
1.619939e+003,2.345268e-003
1.621867e+003,2.577156e-003
1.623796e+003,2.688492e-003
1.625724e+003,2.738303e-003
1.627653e+003,2.765823e-003
1.629581e+003,2.943130e-003
1.631510e+003,2.957437e-003
1.633438e+003,3.200611e-003
1.635367e+003,3.674263e-003
1.637295e+003,3.927341e-003
1.639224e+003,3.672976e-003
1.641152e+003,3.709629e-003
1.643081e+003,3.712669e-003
1.645009e+003,4.076255e-003
1.646938e+003,4.418081e-003
1.648866e+003,4.173027e-003
1.650795e+003,4.014896e-003
1.652723e+003,5.288081e-003
1.654652e+003,4.442127e-003
1.656580e+003,3.835499e-003
1.658509e+003,3.569275e-003
1.660437e+003,3.581209e-003
1.662366e+003,3.526291e-003
1.664294e+003,3.348328e-003
1.666223e+003,3.106412e-003
1.668151e+003,3.290052e-003
1.670080e+003,3.174523e-003
1.672008e+003,2.958111e-003
1.673937e+003,2.811564e-003
1.675865e+003,2.729302e-003
1.677794e+003,2.366362e-003
1.679722e+003,2.385445e-003
1.681651e+003,2.337614e-003
1.683579e+003,2.907028e-003
1.685508e+003,2.271589e-003
1.687436e+003,1.957657e-003
1.689365e+003,1.738127e-003
1.691293e+003,1.594976e-003
1.693222e+003,1.451682e-003
1.695150e+003,1.754008e-003
1.697079e+003,1.652580e-003
1.699007e+003,1.885707e-003
1.700936e+003,1.778509e-003
1.702864e+003,1.458611e-003
1.704793e+003,1.431499e-003
1.706721e+003,1.510087e-003
1.708650e+003,1.421560e-003
1.710578e+003,1.629228e-003
1.712507e+003,1.799520e-003
1.714435e+003,2.224650e-003
1.716364e+003,2.552669e-003
1.718292e+003,2.870858e-003
1.720221e+003,2.524685e-003
1.722149e+003,2.454830e-003
1.724078e+003,2.220670e-003
1.726006e+003,1.842948e-003
1.727935e+003,1.549603e-003
1.729863e+003,1.657136e-003
1.731792e+003,1.755884e-003
1.733720e+003,2.293738e-003
1.735649e+003,1.865828e-003
1.737577e+003,1.796070e-003
1.739506e+003,2.077021e-003
1.741434e+003,2.350928e-003
1.743363e+003,2.574071e-003
1.745291e+003,2.966277e-003
1.747220e+003,3.196295e-003
1.749148e+003,3.467545e-003
1.751077e+003,3.050046e-003
1.753005e+003,2.284180e-003
1.754934e+003,1.635192e-003
1.756862e+003,1.128923e-003
1.758791e+003,5.783997e-004
1.760719e+003,4.136227e-004
1.762648e+003,8.141622e-006
1.764576e+003,-2.703965e-004
1.766505e+003,-4.003048e-004
1.768433e+003,-3.148187e-004
1.770362e+003,-3.730971e-004
1.772290e+003,-2.935026e-004
1.774219e+003,-6.936695e-004
1.776147e+003,-7.875599e-004
1.778076e+003,-8.250717e-004
1.780004e+003,-7.124431e-004
1.781933e+003,-9.021182e-004
1.783861e+003,-9.170007e-004
1.785790e+003,-1.007099e-003
1.787718e+003,-1.025822e-003
1.789646e+003,-1.012586e-003
1.791575e+003,-6.780233e-004
1.793504e+003,-8.190889e-004
1.795432e+003,-9.678509e-004
1.797361e+003,-1.101144e-003
1.799289e+003,-1.040174e-003
1.801218e+003,-1.142982e-003
1.803146e+003,-1.143076e-003
1.805074e+003,-1.254223e-003
1.807003e+003,-1.189832e-003
1.808932e+003,-1.202933e-003
1.810860e+003,-1.175651e-003
1.812789e+003,-1.429232e-003
1.814717e+003,-1.584234e-003
1.816646e+003,-1.668811e-003
1.818574e+003,-1.243845e-003
1.820502e+003,-1.080386e-003
1.822431e+003,-9.588655e-004
1.824360e+003,-9.894501e-004
1.826288e+003,-9.998754e-004
1.828217e+003,-1.049059e-003
1.830145e+003,-8.729845e-004
1.832073e+003,-1.330117e-003
1.834002e+003,-1.429545e-003
1.835931e+003,-1.521606e-003
1.837859e+003,-1.380801e-003
1.839788e+003,-1.478324e-003
1.841716e+003,-1.323754e-003
1.843645e+003,-1.061998e-003
1.845573e+003,-1.083450e-003
1.847501e+003,-1.571689e-003
1.849430e+003,-1.498738e-003
1.851359e+003,-1.515882e-003
1.853287e+003,-1.345247e-003
1.855216e+003,-1.389321e-003
1.857144e+003,-1.364155e-003
1.859073e+003,-1.465410e-003
1.861001e+003,-1.339702e-003
1.862929e+003,-1.374492e-003
1.864858e+003,-1.217064e-003
1.866787e+003,-1.117967e-003
1.868715e+003,-8.187965e-004
1.870644e+003,-1.313427e-003
1.872572e+003,-1.362365e-003
1.874500e+003,-1.275219e-003
1.876429e+003,-9.615030e-004
1.878357e+003,-1.057619e-003
1.880286e+003,-9.899884e-004
1.882215e+003,-1.161747e-003
1.884143e+003,-1.009408e-003
1.886072e+003,-9.240173e-004
1.888000e+003,-3.693514e-004
1.889928e+003,-2.567172e-004
1.891857e+003,-5.238503e-005
1.893785e+003,1.866519e-004
1.895714e+003,4.184693e-004
1.897643e+003,1.044273e-004
1.899571e+003,3.466047e-004
1.901500e+003,3.455803e-004
1.903428e+003,3.445596e-004
1.905356e+003,3.435202e-004
1.907285e+003,3.424808e-004
1.909213e+003,3.414415e-004
1.911142e+003,3.403872e-004
1.913071e+003,3.393292e-004
1.914999e+003,3.382675e-004
1.916927e+003,3.371947e-004
1.918856e+003,3.361180e-004
1.920784e+003,3.350340e-004
1.922713e+003,3.339499e-004
1.924641e+003,3.328510e-004
1.926570e+003,3.317520e-004
1.928499e+003,3.306456e-004
1.930427e+003,3.295317e-004
1.932355e+003,3.284104e-004
1.934284e+003,3.272854e-004
1.936212e+003,3.261529e-004
1.938141e+003,3.250130e-004
1.940070e+003,3.238730e-004
1.941998e+003,3.227219e-004
1.943927e+003,3.215633e-004
1.945855e+003,3.204010e-004
1.947783e+003,3.192313e-004
1.949712e+003,3.180541e-004
1.951640e+003,3.168732e-004
1.953569e+003,3.156811e-004
1.955498e+003,3.144927e-004
1.957426e+003,3.132895e-004
1.959354e+003,3.120825e-004
1.961283e+003,3.108718e-004
1.963211e+003,3.096499e-004
1.965140e+003,3.084242e-004
1.967068e+003,3.071949e-004
1.968997e+003,3.059544e-004
1.970926e+003,3.047138e-004
1.972854e+003,3.034659e-004
1.974782e+003,3.022067e-004
1.976711e+003,3.009439e-004
1.978639e+003,2.996735e-004
1.980568e+003,2.983995e-004
1.982496e+003,2.971180e-004
1.984425e+003,2.958328e-004
1.986354e+003,2.945401e-004
1.988282e+003,2.932400e-004
1.990210e+003,2.919324e-004
1.992139e+003,2.906211e-004
1.994067e+003,2.893023e-004
1.995996e+003,2.879761e-004
1.997924e+003,2.866462e-004
1.999853e+003,2.853125e-004
2.001781e+003,2.839677e-004
2.003710e+003,2.826191e-004
2.005638e+003,2.812631e-004
2.007567e+003,2.798997e-004
2.009495e+003,2.785325e-004
2.011424e+003,2.771579e-004
2.013352e+003,2.757758e-004
2.015281e+003,2.743900e-004
2.017209e+003,2.729967e-004
2.019138e+003,2.715960e-004
2.021066e+003,2.701953e-004
2.022995e+003,2.687834e-004
2.024923e+003,2.673641e-004
2.026852e+003,2.659410e-004
2.028781e+003,2.645142e-004
2.030709e+003,2.630763e-004
2.032637e+003,2.616309e-004
2.034566e+003,2.601780e-004
2.036494e+003,2.587289e-004
2.038423e+003,2.572648e-004
2.040351e+003,2.558008e-004
2.042280e+003,2.543256e-004
2.044208e+003,2.528466e-004
2.046137e+003,2.513602e-004
2.048065e+003,2.498664e-004
2.049994e+003,2.483688e-004
2.051922e+003,2.468638e-004
2.053851e+003,2.453588e-004
2.055779e+003,2.438389e-004
2.057708e+003,2.423190e-004
2.059636e+003,2.407879e-004
2.061565e+003,2.392493e-004
2.063493e+003,2.377033e-004
2.065422e+003,2.361573e-004
2.067350e+003,2.346002e-004
2.069279e+003,2.330430e-004
2.071207e+003,2.314746e-004
2.073136e+003,2.299026e-004
2.075064e+003,2.283230e-004
2.076993e+003,2.267398e-004
2.078921e+003,2.251491e-004
2.080850e+003,2.235472e-004
2.082778e+003,2.219416e-004
2.084707e+003,2.203360e-004
2.086635e+003,2.187192e-004
2.088564e+003,2.171025e-004
2.090492e+003,2.154671e-004
2.092421e+003,2.138317e-004
2.094349e+003,2.121925e-004
2.096278e+003,2.105422e-004
2.098206e+003,2.088919e-004
2.100135e+003,2.072304e-004
2.102063e+003,2.055652e-004
2.103992e+003,2.038926e-004
2.105920e+003,2.022162e-004
2.107849e+003,2.005287e-004
2.109777e+003,1.988374e-004
2.111706e+003,1.971386e-004
2.113634e+003,1.954399e-004
2.115563e+003,1.937337e-004
2.117491e+003,1.920201e-004
2.119420e+003,1.902953e-004
2.121348e+003,1.885630e-004
2.123277e+003,1.868308e-004
2.125205e+003,1.850873e-004
2.127134e+003,1.833439e-004
2.129062e+003,1.815930e-004
2.130991e+003,1.798347e-004
2.132919e+003,1.780652e-004
2.134848e+003,1.762956e-004
2.136776e+003,1.745149e-004
2.138705e+003,1.727343e-004
2.140633e+003,1.709424e-004
2.142562e+003,1.691505e-004
2.144490e+003,1.673438e-004
2.146419e+003,1.655370e-004
2.148347e+003,1.637191e-004
2.150276e+003,1.619011e-004
2.152204e+003,1.600757e-004
2.154133e+003,1.582429e-004
2.156061e+003,1.563989e-004
2.157990e+003,1.545548e-004
2.159918e+003,1.527034e-004
2.161847e+003,1.508445e-004
2.163775e+003,1.489781e-004
2.165704e+003,1.471080e-004
2.167632e+003,1.452304e-004
2.169561e+003,1.433454e-004
2.171489e+003,1.414567e-004
2.173418e+003,1.395643e-004
2.175346e+003,1.376607e-004
2.177275e+003,1.357533e-004
2.179203e+003,1.338385e-004
2.181132e+003,1.319200e-004
2.183060e+003,1.299903e-004
2.184989e+003,1.280569e-004
2.186917e+003,1.261197e-004
2.188846e+003,1.241751e-004
2.190774e+003,1.222193e-004
2.192703e+003,1.202598e-004
2.194631e+003,1.183003e-004
2.196560e+003,1.163296e-004
2.198488e+003,1.143515e-004
2.200417e+003,1.123697e-004
2.202345e+003,1.103841e-004
2.204274e+003,1.083910e-004
2.206202e+003,1.063868e-004
2.208131e+003,1.043789e-004
2.210059e+003,1.023673e-004
2.211988e+003,1.003444e-004
2.213916e+003,9.831414e-005
2.215845e+003,9.628013e-005
2.217773e+003,9.425357e-005
2.219702e+003,9.220839e-005
2.221630e+003,9.015575e-005
2.223559e+003,8.809566e-005
2.225487e+003,8.603558e-005
2.227416e+003,8.396432e-005
2.229344e+003,8.188561e-005
2.231273e+003,7.980689e-005
2.233201e+003,7.772073e-005
2.235130e+003,7.562712e-005
2.237058e+003,7.352605e-005
2.238987e+003,7.142127e-005
2.240915e+003,6.930158e-005
2.242844e+003,6.718189e-005
2.244772e+003,6.506220e-005
2.246701e+003,6.293133e-005
2.248629e+003,6.079301e-005
2.250558e+003,5.864725e-005
2.252486e+003,5.649775e-005
2.254415e+003,5.434453e-005
2.256343e+003,5.218014e-005
2.258272e+003,5.000830e-005
2.260200e+003,4.783273e-005
2.262129e+003,4.565343e-005
2.264057e+003,4.346296e-005
2.265986e+003,4.126877e-005
2.267914e+003,3.906712e-005
2.269843e+003,3.686547e-005
2.271771e+003,3.465265e-005
2.273700e+003,3.243238e-005
2.275628e+003,3.021583e-005
2.277557e+003,2.798438e-005
2.279485e+003,2.574548e-005
2.281414e+003,2.349913e-005
2.283342e+003,2.124906e-005
2.285271e+003,1.899153e-005
2.287199e+003,1.673028e-005
2.289128e+003,1.446530e-005
2.291056e+003,1.219660e-005
2.292985e+003,9.909272e-006
2.294913e+003,7.621944e-006
2.296842e+003,5.330890e-006
2.298770e+003,3.032386e-006
2.300699e+003,7.264316e-007
2.302627e+003,-1.583248e-006
2.304556e+003,-3.904104e-006
2.306484e+003,-6.221235e-006
2.308413e+003,-8.553267e-006
2.310341e+003,-1.089647e-005
2.312270e+003,-1.323223e-005
2.314198e+003,-1.558289e-005
2.316127e+003,-1.794472e-005
2.318055e+003,-2.030656e-005
2.319984e+003,-2.266839e-005
2.321912e+003,-2.504140e-005
2.323841e+003,-2.742186e-005
2.325769e+003,-2.980605e-005
2.327698e+003,-3.219768e-005
2.329626e+003,-3.459677e-005
2.331555e+003,-3.700703e-005
2.333483e+003,-3.941357e-005
2.335412e+003,-4.182756e-005
2.337340e+003,-4.424900e-005
2.339269e+003,-4.668534e-005
2.341197e+003,-4.911795e-005
2.343126e+003,-5.156174e-005
2.345054e+003,-5.400926e-005
2.346983e+003,-5.646423e-005
2.348911e+003,-5.891919e-005
2.350840e+003,-6.138906e-005
2.352768e+003,-6.386265e-005
2.354697e+003,-6.634369e-005
2.356625e+003,-6.883219e-005
2.358554e+003,-7.132068e-005
2.360482e+003,-7.382035e-005
2.362411e+003,-7.632375e-005
2.364339e+003,-7.882714e-005
2.366268e+003,-8.134171e-005
2.368196e+003,-8.387491e-005
2.370125e+003,-8.640066e-005
2.372053e+003,-8.893386e-005
2.373982e+003,-9.147450e-005
2.375910e+003,-9.402260e-005
2.377839e+003,-9.657070e-005
2.379767e+003,-9.913370e-005
2.381696e+003,-1.017004e-004
2.383624e+003,-1.042746e-004
2.385553e+003,-1.068488e-004
2.387481e+003,-1.094341e-004
2.389410e+003,-1.120232e-004
2.391338e+003,-1.146235e-004
2.393267e+003,-1.172274e-004
2.395195e+003,-1.198351e-004
2.397124e+003,-1.224540e-004
2.399052e+003,-1.250766e-004
2.400981e+003,-1.680106e-004
2.402909e+003,-1.089945e-004
2.404838e+003,-8.260086e-005
2.406766e+003,8.384138e-005
2.408695e+003,3.737360e-004
2.410623e+003,4.276671e-004
2.412552e+003,4.828349e-004
2.414480e+003,5.425066e-004
2.416409e+003,5.326569e-004
2.418337e+003,4.881211e-004
2.420266e+003,5.930439e-004
2.422194e+003,3.965758e-004
2.424123e+003,2.230331e-004
2.426051e+003,2.910085e-004
2.427979e+003,3.954135e-004
2.429908e+003,3.715344e-004
2.431837e+003,3.460348e-004
2.433765e+003,3.511794e-004
2.435694e+003,4.472099e-004
2.437622e+003,4.348829e-004
2.439551e+003,3.889017e-004
2.441479e+003,4.182979e-004
2.443407e+003,4.873089e-004
2.445336e+003,4.801750e-004
2.447265e+003,5.383790e-004
2.449193e+003,5.077980e-004
2.451122e+003,5.467609e-004
2.453050e+003,6.072745e-004
2.454979e+003,6.788559e-004
2.456907e+003,5.439520e-004
2.458836e+003,5.485713e-004
2.460764e+003,4.700013e-004
2.462693e+003,5.476922e-004
2.464621e+003,5.186796e-004
2.466550e+003,5.918667e-004
2.468478e+003,7.118694e-004
2.470406e+003,8.143596e-004
2.472335e+003,8.977503e-004
2.474264e+003,1.046706e-003
2.476192e+003,9.938218e-004
2.478121e+003,9.367503e-004
2.480049e+003,9.414889e-004
2.481978e+003,1.101021e-003
2.483906e+003,1.089446e-003
2.485835e+003,1.003537e-003
2.487763e+003,9.650886e-004
2.489692e+003,1.070268e-003
2.491620e+003,1.140222e-003
2.493549e+003,1.207866e-003
2.495477e+003,1.295678e-003
2.497406e+003,1.295429e-003
2.499334e+003,1.302581e-003
2.501263e+003,1.344852e-003
2.503191e+003,1.430515e-003
2.505120e+003,1.450825e-003
2.507048e+003,1.379762e-003
2.508977e+003,1.446769e-003
2.510905e+003,1.554087e-003
2.512833e+003,1.705509e-003
2.514762e+003,1.687564e-003
2.516691e+003,1.808148e-003
2.518619e+003,1.994204e-003
2.520548e+003,2.156120e-003
2.522476e+003,2.178825e-003
2.524405e+003,2.388630e-003
2.526333e+003,2.346586e-003
2.528261e+003,2.392512e-003
2.530190e+003,2.491523e-003
2.532119e+003,2.690710e-003
2.534047e+003,2.651602e-003
2.535976e+003,2.499834e-003
2.537904e+003,2.438784e-003
2.539833e+003,2.403066e-003
2.541761e+003,2.429765e-003
2.543689e+003,2.800159e-003
2.545618e+003,3.169563e-003
2.547547e+003,3.382955e-003
2.549475e+003,3.448263e-003
2.551404e+003,3.625277e-003
2.553332e+003,3.705330e-003
2.555260e+003,3.721304e-003
2.557189e+003,3.620986e-003
2.559117e+003,3.592685e-003
2.561046e+003,3.681324e-003
2.562975e+003,3.914248e-003
2.564903e+003,4.134599e-003
2.566832e+003,4.245169e-003
2.568760e+003,4.375543e-003
2.570688e+003,4.522935e-003
2.572617e+003,4.569367e-003
2.574546e+003,4.650868e-003
2.576474e+003,4.880704e-003
2.578403e+003,5.224872e-003
2.580331e+003,5.457196e-003
2.582260e+003,5.518887e-003
2.584188e+003,5.621105e-003
2.586116e+003,5.796000e-003
2.588045e+003,5.992502e-003
2.589974e+003,6.295446e-003
2.591902e+003,6.627213e-003
2.593831e+003,6.792612e-003
2.595759e+003,6.853461e-003
2.597688e+003,7.080514e-003
2.599616e+003,7.195737e-003
2.601544e+003,7.353067e-003
2.603473e+003,7.571761e-003
2.605402e+003,7.804092e-003
2.607330e+003,8.014012e-003
2.609259e+003,8.295335e-003
2.611187e+003,8.589819e-003
2.613115e+003,8.875992e-003
2.615044e+003,9.211872e-003
2.616972e+003,9.616874e-003
2.618901e+003,9.931967e-003
2.620830e+003,1.020996e-002
2.622758e+003,1.054477e-002
2.624687e+003,1.099078e-002
2.626615e+003,1.143761e-002
2.628543e+003,1.189704e-002
2.630472e+003,1.225969e-002
2.632400e+003,1.261040e-002
2.634329e+003,1.290242e-002
2.636258e+003,1.302480e-002
2.638186e+003,1.299669e-002
2.640115e+003,1.288694e-002
2.642043e+003,1.270773e-002
2.643971e+003,1.270663e-002
2.645900e+003,1.271271e-002
2.647828e+003,1.271629e-002
2.649757e+003,1.278935e-002
2.651686e+003,1.293170e-002
2.653614e+003,1.311068e-002
2.655542e+003,1.322182e-002
2.657471e+003,1.324588e-002
2.659399e+003,1.325217e-002
2.661328e+003,1.318129e-002
2.663256e+003,1.302540e-002
2.665185e+003,1.279465e-002
2.667114e+003,1.262854e-002
2.669042e+003,1.244070e-002
2.670970e+003,1.221040e-002
2.672899e+003,1.203665e-002
2.674827e+003,1.192279e-002
2.676756e+003,1.177747e-002
2.678685e+003,1.167157e-002
2.680613e+003,1.155682e-002
2.682542e+003,1.139767e-002
2.684470e+003,1.124381e-002
2.686398e+003,1.114514e-002
2.688327e+003,1.102304e-002
2.690255e+003,1.091518e-002
2.692184e+003,1.079386e-002
2.694113e+003,1.069092e-002
2.696041e+003,1.065034e-002
2.697969e+003,1.066831e-002
2.699898e+003,1.074597e-002
2.701826e+003,1.089674e-002
2.703755e+003,1.104990e-002
2.705683e+003,1.125098e-002
2.707612e+003,1.148118e-002
2.709541e+003,1.167706e-002
2.711469e+003,1.181085e-002
2.713397e+003,1.196118e-002
2.715326e+003,1.209924e-002
2.717254e+003,1.230305e-002
2.719183e+003,1.253244e-002
2.721111e+003,1.274721e-002
2.723040e+003,1.302880e-002
2.724969e+003,1.335735e-002
2.726897e+003,1.367647e-002
2.728825e+003,1.395699e-002
2.730754e+003,1.414704e-002
2.732682e+003,1.434375e-002
2.734611e+003,1.453017e-002
2.736539e+003,1.458782e-002
2.738468e+003,1.464209e-002
2.740396e+003,1.467626e-002
2.742325e+003,1.467803e-002
2.744253e+003,1.467739e-002
2.746182e+003,1.461372e-002
2.748110e+003,1.457888e-002
2.750039e+003,1.462454e-002
2.751967e+003,1.478515e-002
2.753896e+003,1.501140e-002
2.755824e+003,1.530674e-002
2.757753e+003,1.564106e-002
2.759681e+003,1.601011e-002
2.761610e+003,1.638672e-002
2.763538e+003,1.677775e-002
2.765467e+003,1.722219e-002
2.767395e+003,1.769391e-002
2.769324e+003,1.821904e-002
2.771252e+003,1.881337e-002
2.773181e+003,1.952714e-002
2.775109e+003,2.033778e-002
2.777038e+003,2.124568e-002
2.778966e+003,2.226187e-002
2.780895e+003,2.331603e-002
2.782823e+003,2.446773e-002
2.784752e+003,2.576160e-002
2.786680e+003,2.724280e-002
2.788609e+003,2.884439e-002
2.790537e+003,3.047952e-002
2.792466e+003,3.219194e-002
2.794394e+003,3.404511e-002
2.796323e+003,3.592025e-002
2.798251e+003,3.776965e-002
2.800180e+003,3.972846e-002
2.802108e+003,4.185258e-002
2.804037e+003,4.417523e-002
2.805965e+003,4.665835e-002
2.807894e+003,4.936383e-002
2.809822e+003,5.236340e-002
2.811751e+003,5.578589e-002
2.813679e+003,5.974559e-002
2.815608e+003,6.433305e-002
2.817536e+003,6.962771e-002
2.819465e+003,7.580078e-002
2.821393e+003,8.321251e-002
2.823322e+003,9.222251e-002
2.825250e+003,1.033127e-001
2.827179e+003,1.173486e-001
2.829107e+003,1.355398e-001
2.831036e+003,1.598277e-001
2.832964e+003,1.932267e-001
2.834893e+003,2.406626e-001
2.836821e+003,3.086190e-001
2.838750e+003,4.071656e-001
2.840678e+003,5.533171e-001
2.842607e+003,7.692853e-001
2.844535e+003,1.067264e+000
2.846464e+003,1.375756e+000
2.848392e+003,1.432834e+000
2.850321e+003,1.161867e+000
2.852249e+003,8.532491e-001
2.854178e+003,6.372844e-001
2.856106e+003,4.928010e-001
2.858035e+003,3.912443e-001
2.859963e+003,3.186546e-001
2.861892e+003,2.677082e-001
2.863820e+003,2.334584e-001
2.865749e+003,2.127186e-001
2.867677e+003,2.025877e-001
2.869606e+003,1.997192e-001
2.871534e+003,2.009186e-001
2.873463e+003,2.053250e-001
2.875391e+003,2.145593e-001
2.877320e+003,2.299675e-001
2.879248e+003,2.515905e-001
2.881177e+003,2.784302e-001
2.883105e+003,3.094027e-001
2.885034e+003,3.438383e-001
2.886962e+003,3.810995e-001
2.888891e+003,4.203432e-001
2.890819e+003,4.603728e-001
2.892748e+003,5.004544e-001
2.894676e+003,5.404416e-001
2.896605e+003,5.810422e-001
2.898533e+003,6.238739e-001
2.900462e+003,6.718947e-001
2.902390e+003,7.298920e-001
2.904319e+003,8.049123e-001
2.906247e+003,9.064636e-001
2.908176e+003,1.045269e+000
2.910104e+003,1.227760e+000
2.912033e+003,1.436329e+000
2.913961e+003,1.596769e+000
2.915890e+003,1.603765e+000
2.917818e+003,1.447404e+000
2.919747e+003,1.228813e+000
2.921675e+003,1.025074e+000
2.923604e+003,8.578872e-001
2.925532e+003,7.248611e-001
2.927461e+003,6.168246e-001
2.929389e+003,5.261503e-001
2.931318e+003,4.486095e-001
2.933246e+003,3.818627e-001
2.935175e+003,3.244752e-001
2.937103e+003,2.753551e-001
2.939032e+003,2.335078e-001
2.940960e+003,1.985305e-001
2.942889e+003,1.701827e-001
2.944817e+003,1.484249e-001
2.946746e+003,1.329750e-001
2.948674e+003,1.233062e-001
2.950603e+003,1.179288e-001
2.952531e+003,1.146237e-001
2.954460e+003,1.113758e-001
2.956388e+003,1.071975e-001
2.958317e+003,1.018039e-001
2.960245e+003,9.517537e-002
2.962174e+003,8.748402e-002
2.964102e+003,7.907504e-002
2.966031e+003,7.037722e-002
2.967959e+003,6.206097e-002
2.969888e+003,5.449363e-002
2.971816e+003,4.779227e-002
2.973745e+003,4.211785e-002
2.975673e+003,3.743434e-002
2.977602e+003,3.349396e-002
2.979530e+003,3.027891e-002
2.981459e+003,2.760604e-002
2.983387e+003,2.534541e-002
2.985316e+003,2.342934e-002
2.987244e+003,2.186869e-002
2.989173e+003,2.053813e-002
2.991101e+003,1.939300e-002
2.993030e+003,1.838442e-002
2.994958e+003,1.754403e-002
2.996887e+003,1.681850e-002
2.998815e+003,1.611209e-002
3.000744e+003,1.547294e-002
3.002672e+003,1.491986e-002
3.004601e+003,1.447211e-002
3.006529e+003,1.401859e-002
3.008458e+003,1.350356e-002
3.010386e+003,1.307084e-002
3.012315e+003,1.269242e-002
3.014243e+003,1.229546e-002
3.016172e+003,1.194133e-002
3.018100e+003,1.166281e-002
3.020029e+003,1.133788e-002
3.021957e+003,1.101650e-002
3.023886e+003,1.080415e-002
3.025814e+003,1.060879e-002
3.027743e+003,1.032055e-002
3.029671e+003,1.007660e-002
3.031600e+003,9.773955e-003
3.033528e+003,9.439629e-003
3.035457e+003,9.126637e-003
3.037385e+003,8.742295e-003
3.039314e+003,8.429881e-003
3.041242e+003,8.191478e-003
3.043171e+003,7.830106e-003
3.045099e+003,7.462677e-003
3.047028e+003,7.262733e-003
3.048956e+003,7.031832e-003
3.050885e+003,6.734725e-003
3.052813e+003,6.485075e-003
3.054742e+003,6.292913e-003
3.056670e+003,6.186239e-003
3.058599e+003,6.030086e-003
3.060527e+003,5.864214e-003
3.062456e+003,5.693607e-003
3.064384e+003,5.545050e-003
3.066313e+003,5.445771e-003
3.068241e+003,5.309515e-003
3.070170e+003,5.144324e-003
3.072098e+003,5.035359e-003
3.074027e+003,4.960287e-003
3.075955e+003,4.859276e-003
3.077884e+003,4.776973e-003
3.079812e+003,4.696153e-003
3.081741e+003,4.440479e-003
3.083669e+003,4.250299e-003
3.085598e+003,4.187796e-003
3.087526e+003,3.985506e-003
3.089455e+003,3.685825e-003
3.091383e+003,3.498413e-003
3.093312e+003,3.318697e-003
3.095240e+003,3.036670e-003
3.097169e+003,2.689213e-003
3.099097e+003,2.429787e-003
3.101026e+003,2.206787e-003
3.102954e+003,1.982585e-003
3.104883e+003,1.834203e-003
3.106811e+003,1.709901e-003
3.108740e+003,1.550142e-003
3.110668e+003,1.490004e-003
3.112597e+003,1.411982e-003
3.114525e+003,1.247246e-003
3.116454e+003,1.120813e-003
3.118382e+003,1.117595e-003
3.120311e+003,9.858683e-004
3.122239e+003,8.950233e-004
3.124168e+003,9.144954e-004
3.126096e+003,8.645616e-004
3.128025e+003,7.258914e-004
3.129953e+003,6.525703e-004
3.131882e+003,6.533526e-004
3.133810e+003,6.047450e-004
3.135739e+003,6.089509e-004
3.137667e+003,6.726608e-004
3.139596e+003,7.301681e-004
3.141524e+003,7.631555e-004
3.143453e+003,7.593259e-004
3.145381e+003,6.785877e-004
3.147310e+003,6.423555e-004
3.149238e+003,7.301979e-004
3.151167e+003,6.999224e-004
3.153095e+003,6.361119e-004
3.155024e+003,6.620921e-004
3.156952e+003,6.131008e-004
3.158881e+003,6.313510e-004
3.160809e+003,7.132813e-004
3.162738e+003,6.732643e-004
3.164666e+003,6.457455e-004
3.166594e+003,6.179884e-004
3.168523e+003,6.861053e-004
3.170452e+003,7.902719e-004
3.172380e+003,7.341988e-004
3.174309e+003,6.641485e-004
3.176237e+003,7.567666e-004
3.178166e+003,8.171648e-004
3.180094e+003,8.089989e-004
3.182022e+003,8.974858e-004
3.183951e+003,9.675249e-004
3.185880e+003,8.293204e-004
3.187808e+003,7.778108e-004
3.189737e+003,8.166470e-004
3.191665e+003,8.194260e-004
3.193594e+003,8.277074e-004
3.195522e+003,8.534230e-004
3.197450e+003,8.004270e-004
3.199379e+003,7.028989e-004
3.201308e+003,6.425679e-004
3.203236e+003,7.411167e-004
3.205165e+003,8.857735e-004
3.207093e+003,9.693280e-004
3.209021e+003,9.596832e-004
3.210950e+003,8.339658e-004
3.212878e+003,7.649362e-004
3.214807e+003,8.238852e-004
3.216736e+003,8.189976e-004
3.218664e+003,8.340850e-004
3.220593e+003,8.055307e-004
3.222521e+003,8.053929e-004
3.224449e+003,8.111559e-004
3.226378e+003,8.503981e-004
3.228307e+003,9.066164e-004
3.230235e+003,8.485951e-004
3.232164e+003,7.026680e-004
3.234092e+003,7.058010e-004
3.236021e+003,7.871538e-004
3.237949e+003,7.935725e-004
3.239877e+003,8.314028e-004
3.241806e+003,9.402595e-004
3.243735e+003,1.036383e-003
3.245663e+003,1.008816e-003
3.247592e+003,9.677634e-004
3.249520e+003,1.014415e-003
3.251448e+003,1.071442e-003
3.253377e+003,1.096454e-003
3.255305e+003,1.172010e-003
3.257234e+003,1.245417e-003
3.259163e+003,1.267400e-003
3.261091e+003,1.264669e-003
3.263020e+003,1.274310e-003
3.264948e+003,1.252193e-003
3.266876e+003,1.291469e-003
3.268805e+003,1.434114e-003
3.270733e+003,1.525570e-003
3.272662e+003,1.583941e-003
3.274591e+003,1.617517e-003
3.276519e+003,1.554683e-003
3.278448e+003,1.591783e-003
3.280376e+003,1.695827e-003
3.282304e+003,1.752302e-003
3.284233e+003,1.735754e-003
3.286161e+003,1.737643e-003
3.288090e+003,1.713663e-003
3.290019e+003,1.780614e-003
3.291947e+003,1.761049e-003
3.293875e+003,1.722489e-003
3.295804e+003,1.764067e-003
3.297732e+003,1.767900e-003
3.299661e+003,1.729943e-003
3.301589e+003,1.729086e-003
3.303518e+003,1.748290e-003
3.305447e+003,1.757815e-003
3.307375e+003,1.796566e-003
3.309303e+003,1.819834e-003
3.311232e+003,1.745984e-003
3.313160e+003,1.633976e-003
3.315089e+003,1.633488e-003
3.317018e+003,1.684275e-003
3.318946e+003,1.667894e-003
3.320875e+003,1.544684e-003
3.322803e+003,1.524400e-003
3.324731e+003,1.628123e-003
3.326660e+003,1.669407e-003
3.328588e+003,1.624584e-003
3.330517e+003,1.584522e-003
3.332446e+003,1.625836e-003
3.334374e+003,1.646943e-003
3.336302e+003,1.626618e-003
3.338231e+003,1.613643e-003
3.340159e+003,1.596961e-003
3.342088e+003,1.574263e-003
3.344016e+003,1.500074e-003
3.345945e+003,1.458228e-003
3.347874e+003,1.526780e-003
3.349802e+003,1.586169e-003
3.351730e+003,1.599003e-003
3.353659e+003,1.526084e-003
3.355587e+003,1.484934e-003
3.357516e+003,1.521591e-003
3.359444e+003,1.582753e-003
3.361373e+003,1.560107e-003
3.363302e+003,1.522936e-003
3.365230e+003,1.484662e-003
3.367158e+003,1.491547e-003
3.369087e+003,1.583781e-003
3.371015e+003,1.526389e-003
3.372944e+003,1.401301e-003
3.374872e+003,1.368556e-003
3.376801e+003,1.327358e-003
3.378729e+003,1.271330e-003
3.380658e+003,1.314376e-003
3.382586e+003,1.325831e-003
3.384515e+003,1.313128e-003
3.386443e+003,1.248762e-003
3.388372e+003,1.146328e-003
3.390300e+003,1.153603e-003
3.392229e+003,1.175761e-003
3.394157e+003,1.147225e-003
3.396086e+003,1.190256e-003
3.398014e+003,1.158401e-003
3.399943e+003,1.028117e-003
3.401871e+003,1.059987e-003
3.403800e+003,1.073096e-003
3.405728e+003,1.049798e-003
3.407657e+003,9.465329e-004
3.409585e+003,8.590370e-004
3.411514e+003,8.525178e-004
3.413442e+003,8.882545e-004
3.415371e+003,8.835085e-004
3.417299e+003,7.551014e-004
3.419228e+003,7.279776e-004
3.421156e+003,8.525811e-004
3.423085e+003,9.069517e-004
3.425013e+003,9.181388e-004
3.426942e+003,8.964650e-004
3.428870e+003,8.974858e-004
3.430799e+003,8.800440e-004
3.432727e+003,8.244328e-004
3.434656e+003,7.204302e-004
3.436584e+003,6.982349e-004
3.438513e+003,6.708987e-004
3.440441e+003,6.289296e-004
3.442370e+003,6.011687e-004
3.444298e+003,5.063713e-004
3.446227e+003,6.151982e-004
3.448155e+003,5.582348e-004
3.450084e+003,3.972091e-004
3.452012e+003,3.424399e-004
3.453941e+003,3.203712e-004
3.455869e+003,3.082752e-004
3.457798e+003,2.853200e-004
3.459726e+003,2.694987e-004
3.461655e+003,2.383813e-004
3.463583e+003,1.648143e-004
3.465512e+003,1.053996e-004
3.467440e+003,4.735589e-005
3.469369e+003,-3.313273e-005
3.471297e+003,-1.437590e-005
3.473226e+003,3.853440e-005
3.475154e+003,2.931803e-005
3.477083e+003,-3.698096e-005
3.479011e+003,-1.750886e-006
3.480940e+003,7.115304e-006
3.482868e+003,-9.966269e-005
3.484797e+003,-1.642630e-004
3.486725e+003,-1.363717e-004
3.488654e+003,-2.043061e-004
3.490582e+003,-3.522150e-004
3.492511e+003,-4.756004e-004
3.494439e+003,-4.302487e-004
3.496368e+003,-2.593696e-004
3.498296e+003,-3.503598e-004
3.500225e+003,-4.636571e-004
3.502153e+003,-3.582053e-004
3.504082e+003,-3.414191e-004
3.506010e+003,-5.176067e-004
3.507939e+003,-5.201213e-004
3.509867e+003,-3.762431e-004
3.511796e+003,-3.957525e-004
3.513724e+003,-4.978925e-004
3.515653e+003,-5.703196e-004
3.517581e+003,-5.822144e-004
3.519510e+003,-6.106198e-004
3.521438e+003,-6.575026e-004
3.523367e+003,-6.480962e-004
3.525295e+003,-7.437654e-004
3.527224e+003,-7.376857e-004
3.529152e+003,-7.442422e-004
3.531081e+003,-9.315237e-004
3.533009e+003,-9.843297e-004
3.534938e+003,-7.062145e-004
3.536866e+003,-7.687323e-004
3.538795e+003,-1.028147e-003
3.540723e+003,-1.066241e-003
3.542652e+003,-9.097978e-004
3.544580e+003,-6.247684e-004
3.546509e+003,-7.546395e-004
3.548437e+003,-1.094367e-003
3.550366e+003,-1.190107e-003
3.552294e+003,-1.035035e-003
3.554223e+003,-1.092892e-003
3.556151e+003,-1.172867e-003
3.558080e+003,-1.170170e-003
3.560008e+003,-1.130436e-003
3.561937e+003,-1.274381e-003
3.563865e+003,-1.203351e-003
3.565794e+003,-3.714934e-004
3.567722e+003,-1.705065e-005
3.569651e+003,-8.401796e-004
3.571579e+003,-1.301911e-003
3.573508e+003,-1.386214e-003
3.575436e+003,-1.291245e-003
3.577365e+003,-1.304142e-003
3.579293e+003,-1.296956e-003
3.581222e+003,-1.278911e-003
3.583150e+003,-1.251452e-003
3.585079e+003,-8.260384e-004
3.587007e+003,-6.562099e-005
3.588936e+003,-3.341921e-004
3.590864e+003,-6.411374e-004
3.592793e+003,-4.586875e-004
3.594721e+003,-4.957244e-005
3.596650e+003,2.971813e-004
3.598578e+003,7.404871e-004
3.600507e+003,1.309521e-003
3.602435e+003,1.431182e-003
3.604364e+003,1.366109e-003
3.606292e+003,1.687378e-003
3.608221e+003,1.876093e-003
3.610149e+003,1.174361e-003
3.612078e+003,7.224008e-004
3.614006e+003,4.118159e-004
3.615935e+003,1.909956e-004
3.617863e+003,6.635413e-004
3.619792e+003,6.744713e-004
3.621720e+003,-1.159459e-004
3.623649e+003,-6.154142e-004
3.625577e+003,-5.924180e-004
3.627506e+003,5.897507e-004
3.629434e+003,1.280330e-003
3.631363e+003,1.040325e-004
3.633291e+003,-3.630668e-005
3.635220e+003,-1.304075e-004
3.637148e+003,-1.775622e-004
3.639077e+003,-2.023056e-004
3.641005e+003,-2.083778e-004
3.642934e+003,-3.082827e-004
3.644862e+003,-9.976327e-005
3.646791e+003,1.203120e-003
3.648719e+003,2.197698e-003
3.650648e+003,1.419976e-003
3.652576e+003,-2.405047e-005
3.654505e+003,-2.371147e-004
3.656433e+003,-3.004745e-004
3.658362e+003,-9.423867e-004
3.660290e+003,-1.041375e-003
3.662219e+003,-9.939224e-004
3.664147e+003,-9.879768e-004
3.666076e+003,-8.258298e-004
3.668004e+003,-9.159744e-005
3.669933e+003,5.116910e-004
3.671861e+003,-2.636909e-004
3.673790e+003,4.382804e-004
3.675718e+003,1.654521e-003
3.677647e+003,9.882450e-005
3.679575e+003,-4.408658e-004
3.681504e+003,-9.121820e-004
3.683432e+003,-1.096472e-003
3.685361e+003,-9.183064e-004
3.687289e+003,4.023314e-007
3.689218e+003,6.997138e-004
3.691146e+003,-3.497303e-005
3.693075e+003,-5.723611e-004
3.695003e+003,-6.488338e-004
3.696932e+003,-7.590204e-004
3.698860e+003,-9.581819e-004
3.700789e+003,-5.723760e-004
3.702717e+003,-5.011857e-004
3.704646e+003,-6.769374e-004
3.706574e+003,-4.830509e-004
3.708503e+003,-6.703287e-005
3.710431e+003,8.181706e-004
3.712360e+003,7.695407e-004
3.714288e+003,-1.985878e-004
3.716217e+003,-6.091148e-004
3.718145e+003,-5.903468e-004
3.720074e+003,-3.550500e-004
3.722002e+003,2.077669e-004
3.723931e+003,1.364425e-004
3.725859e+003,7.338822e-005
3.727788e+003,-3.009588e-004
3.729716e+003,-3.537387e-004
3.731645e+003,1.006126e-004
3.733573e+003,6.998405e-004
3.735502e+003,1.843102e-003
3.737430e+003,7.595792e-004
3.739359e+003,9.503961e-005
3.741287e+003,1.293793e-004
3.743216e+003,1.410119e-003
3.745144e+003,1.714937e-003
3.747073e+003,7.267371e-004
3.749001e+003,1.693979e-003
3.750930e+003,2.017707e-003
3.752858e+003,6.506890e-004
3.754787e+003,-3.089011e-004
3.756715e+003,-2.914891e-004
3.758644e+003,6.233901e-005
3.760572e+003,-1.051277e-004
3.762501e+003,-5.479306e-004
3.764429e+003,-3.839433e-004
3.766358e+003,-3.160015e-004
3.768286e+003,-1.962706e-004
3.770215e+003,1.870096e-006
3.772143e+003,-4.977286e-004
3.774072e+003,-6.802306e-004
3.776000e+003,-6.273985e-004
3.777929e+003,-3.882125e-004
3.779857e+003,-2.293289e-004
3.781786e+003,-5.551502e-004
3.783714e+003,-2.984628e-004
3.785643e+003,-2.677441e-004
3.787571e+003,-4.448071e-004
3.789500e+003,-5.095303e-004
3.791428e+003,-5.443916e-004
3.793357e+003,-4.699305e-004
3.795285e+003,-4.550070e-005
3.797214e+003,9.275973e-006
3.799142e+003,2.108887e-004
3.801071e+003,1.287825e-003
3.802999e+003,3.520995e-004
3.804927e+003,-7.543713e-005
3.806856e+003,4.741624e-004
3.808785e+003,1.550019e-004
3.810713e+003,-9.069592e-005
3.812642e+003,-1.963004e-004
3.814570e+003,5.138367e-004
3.816499e+003,8.751377e-004
3.818427e+003,4.573762e-004
3.820355e+003,1.406208e-003
3.822284e+003,9.068921e-004
3.824213e+003,1.856908e-004
3.826141e+003,1.146644e-004
3.828070e+003,-8.834898e-005
3.829998e+003,9.831041e-005
3.831927e+003,4.280880e-004
3.833855e+003,3.828257e-004
3.835783e+003,6.420538e-004
3.837712e+003,1.336090e-003
3.839641e+003,1.199320e-003
3.841569e+003,7.603914e-004
3.843498e+003,5.376860e-004
3.845426e+003,1.910105e-004
3.847354e+003,7.231534e-005
3.849283e+003,2.152473e-004
3.851211e+003,1.128808e-003
3.853140e+003,3.097989e-003
3.855069e+003,1.580596e-003
3.856997e+003,5.020648e-004
3.858926e+003,1.169816e-004
3.860854e+003,3.340319e-004
3.862782e+003,6.494373e-004
3.864711e+003,7.383078e-004
3.866640e+003,4.475042e-004
3.868568e+003,1.172721e-003
3.870497e+003,1.636736e-003
3.872425e+003,1.102351e-003
3.874354e+003,1.056604e-003
3.876282e+003,4.726276e-004
3.878210e+003,4.526302e-004
3.880139e+003,9.906292e-004
3.882068e+003,7.105172e-004
3.883996e+003,5.958453e-004
3.885925e+003,6.713420e-004
3.887853e+003,1.953915e-004
3.889781e+003,3.739595e-004
3.891710e+003,6.773621e-004
3.893638e+003,3.259033e-004
3.895567e+003,5.748123e-005
3.897496e+003,3.453717e-004
3.899424e+003,9.940416e-004
3.901353e+003,9.606928e-004
3.903281e+003,1.209453e-003
3.905209e+003,1.096092e-003
3.907138e+003,5.350485e-004
3.909066e+003,3.016368e-004
3.910995e+003,2.183318e-004
3.912924e+003,1.718104e-004
3.914852e+003,4.334971e-004
3.916781e+003,8.157939e-004
3.918709e+003,7.916614e-004
3.920637e+003,5.566850e-004
3.922566e+003,4.109889e-004
3.924494e+003,5.431771e-004
3.926423e+003,3.843009e-004
3.928352e+003,3.552884e-004
3.930280e+003,4.099160e-004
3.932208e+003,3.780201e-004
3.934137e+003,1.899824e-004
3.936065e+003,3.438443e-005
3.937994e+003,-6.539375e-005
3.939922e+003,-2.069920e-004
3.941851e+003,-5.024672e-005
3.943780e+003,-7.450581e-009
3.945708e+003,-7.332116e-005
3.947636e+003,4.041195e-005
3.949565e+003,9.636581e-005
3.951493e+003,-1.103505e-004
3.953422e+003,-3.247485e-004
3.955351e+003,-2.993420e-004
3.957279e+003,-2.002046e-004
3.959208e+003,-1.901388e-004
3.961136e+003,-1.471490e-004
3.963064e+003,-1.853257e-004
3.964993e+003,-1.757890e-004
3.966921e+003,-1.146644e-004
3.968850e+003,-9.167939e-005
3.970779e+003,-1.107380e-004
3.972707e+003,-4.538149e-005
3.974635e+003,4.007667e-005
3.976564e+003,-2.600998e-005
3.978492e+003,-1.441836e-004
3.980421e+003,-1.881495e-004
3.982349e+003,-1.285970e-004
3.984278e+003,-7.420778e-005
3.986207e+003,-4.092604e-005
3.988135e+003,-6.816536e-005
3.990063e+003,-1.905635e-004
3.991992e+003,-1.654327e-004
3.993920e+003,-5.154312e-005
3.995849e+003,4.289299e-005
3.997777e+003,-5.693734e-005
3.999706e+003,-2.047494e-004
4.001635e+003,0.000000e+000
