3.991992e+002,0.000000e+000
4.011277e+002,0.000000e+000
4.030562e+002,0.000000e+000
4.049846e+002,0.000000e+000
4.069131e+002,0.000000e+000
4.088416e+002,0.000000e+000
4.107701e+002,0.000000e+000
4.126986e+002,0.000000e+000
4.146271e+002,0.000000e+000
4.165556e+002,0.000000e+000
4.184841e+002,0.000000e+000
4.204126e+002,0.000000e+000
4.223411e+002,0.000000e+000
4.242697e+002,0.000000e+000
4.261982e+002,0.000000e+000
4.281266e+002,0.000000e+000
4.300551e+002,0.000000e+000
4.319836e+002,0.000000e+000
4.339121e+002,0.000000e+000
4.358406e+002,0.000000e+000
4.377691e+002,0.000000e+000
4.396976e+002,0.000000e+000
4.416261e+002,0.000000e+000
4.435546e+002,0.000000e+000
4.454831e+002,0.000000e+000
4.474116e+002,0.000000e+000
4.493401e+002,0.000000e+000
4.512686e+002,0.000000e+000
4.531971e+002,0.000000e+000
4.551256e+002,0.000000e+000
4.570541e+002,0.000000e+000
4.589826e+002,0.000000e+000
4.609111e+002,0.000000e+000
4.628396e+002,0.000000e+000
4.647681e+002,0.000000e+000
4.666966e+002,0.000000e+000
4.686251e+002,0.000000e+000
4.705536e+002,0.000000e+000
4.724821e+002,0.000000e+000
4.744106e+002,0.000000e+000
4.763391e+002,0.000000e+000
4.782676e+002,0.000000e+000
4.801961e+002,0.000000e+000
4.821246e+002,0.000000e+000
4.840531e+002,0.000000e+000
4.859816e+002,0.000000e+000
4.879101e+002,0.000000e+000
4.898386e+002,0.000000e+000
4.917671e+002,0.000000e+000
4.936956e+002,0.000000e+000
4.956241e+002,0.000000e+000
4.975526e+002,0.000000e+000
4.994811e+002,0.000000e+000
5.014096e+002,0.000000e+000
5.033381e+002,0.000000e+000
5.052666e+002,0.000000e+000
5.071951e+002,0.000000e+000
5.091236e+002,0.000000e+000
5.110521e+002,0.000000e+000
5.129806e+002,0.000000e+000
5.149091e+002,0.000000e+000
5.168376e+002,0.000000e+000
5.187661e+002,0.000000e+000
5.206946e+002,0.000000e+000
5.226230e+002,0.000000e+000
5.245516e+002,-2.525710e-004
5.264800e+002,-2.532024e-004
5.284086e+002,-2.674796e-004
5.303370e+002,-2.768058e-004
5.322656e+002,-1.107939e-004
5.341940e+002,-1.159105e-004
5.361226e+002,-1.183450e-004
5.380510e+002,-1.476500e-004
5.399796e+002,-2.314243e-004
5.419081e+002,-2.121944e-004
5.438365e+002,-9.471551e-005
5.457650e+002,-1.919251e-004
5.476935e+002,-2.257526e-004
5.496221e+002,-1.362357e-004
5.515505e+002,-1.049787e-005
5.534790e+002,9.877607e-006
5.554075e+002,1.205280e-004
5.573361e+002,1.242962e-004
5.592645e+002,-2.461486e-005
5.611931e+002,-7.778220e-005
5.631215e+002,-9.994581e-005
5.650500e+002,-1.397710e-004
5.669785e+002,-1.088474e-004
5.689070e+002,-1.569353e-004
5.708355e+002,-1.369361e-004
5.727640e+002,-1.284778e-004
5.746925e+002,-1.654718e-004
5.766210e+002,-1.566932e-004
5.785495e+002,-1.461040e-004
5.804780e+002,-2.917089e-004
5.824065e+002,-2.927724e-004
5.843350e+002,-1.838114e-004
5.862635e+002,-1.136493e-004
5.881920e+002,-1.148637e-004
5.901205e+002,-2.162475e-004
5.920490e+002,-3.455617e-004
5.939775e+002,-1.893863e-004
5.959060e+002,-1.503080e-004
5.978345e+002,-1.053233e-004
5.997630e+002,-1.034979e-004
6.016915e+002,-1.418032e-005
6.036200e+002,5.094521e-005
6.055485e+002,1.172461e-004
6.074770e+002,2.188049e-005
6.094055e+002,-2.087653e-005
6.113340e+002,-1.690350e-005
6.132625e+002,-6.222166e-005
6.151910e+002,-2.087429e-004
6.171195e+002,-1.844373e-004
6.190480e+002,-4.298612e-005
6.209765e+002,1.291167e-004
6.229050e+002,8.849800e-005
6.248335e+002,7.867441e-005
6.267620e+002,1.306254e-004
6.286905e+002,2.213866e-004
6.306190e+002,2.475549e-004
6.325475e+002,3.513992e-004
6.344760e+002,4.217271e-004
6.364045e+002,4.900526e-004
6.383330e+002,5.389582e-004
6.402615e+002,5.521569e-004
6.421899e+002,5.072430e-004
6.441185e+002,5.383119e-004
6.460470e+002,5.331840e-004
6.479755e+002,5.212631e-004
6.499039e+002,4.943237e-004
6.518325e+002,5.692914e-004
6.537610e+002,6.342810e-004
6.556895e+002,7.154252e-004
6.576179e+002,8.272529e-004
6.595464e+002,1.014465e-003
6.614750e+002,9.294897e-004
6.634034e+002,8.976441e-004
6.653319e+002,9.352397e-004
6.672604e+002,9.397324e-004
6.691890e+002,9.705350e-004
6.711174e+002,1.193663e-003
6.730460e+002,1.288621e-003
6.749745e+002,1.452742e-003
6.769030e+002,1.527650e-003
6.788314e+002,1.691721e-003
6.807599e+002,1.859194e-003
6.826885e+002,2.054183e-003
6.846169e+002,2.142508e-003
6.865454e+002,2.327589e-003
6.884739e+002,2.509519e-003
6.904025e+002,2.801662e-003
6.923309e+002,3.166556e-003
6.942594e+002,3.668223e-003
6.961879e+002,4.109435e-003
6.981165e+002,4.830960e-003
7.000449e+002,5.752552e-003
7.019734e+002,6.907184e-003
7.039019e+002,8.402890e-003
7.058304e+002,1.056737e-002
7.077589e+002,1.346858e-002
7.096874e+002,1.785408e-002
7.116159e+002,2.479901e-002
7.135444e+002,3.806384e-002
7.154729e+002,6.204068e-002
7.174014e+002,9.476092e-002
7.193299e+002,1.098488e-001
7.212584e+002,8.472841e-002
7.231869e+002,5.804110e-002
7.251154e+002,4.895782e-002
7.270439e+002,5.412481e-002
7.289724e+002,6.802232e-002
7.309009e+002,6.172507e-002
7.328294e+002,3.533354e-002
7.347579e+002,1.901492e-002
7.366864e+002,1.306116e-002
7.386149e+002,1.039197e-002
7.405434e+002,8.782651e-003
7.424719e+002,7.774986e-003
7.444004e+002,6.929345e-003
7.463289e+002,6.364884e-003
7.482574e+002,5.867446e-003
7.501859e+002,5.507737e-003
7.521144e+002,5.124480e-003
7.540428e+002,4.799280e-003
7.559714e+002,4.549278e-003
7.578999e+002,4.457595e-003
7.598284e+002,4.318267e-003
7.617568e+002,4.175648e-003
7.636854e+002,4.107308e-003
7.656139e+002,4.079143e-003
7.675424e+002,3.998049e-003
7.694709e+002,3.947707e-003
7.713994e+002,3.819644e-003
7.733279e+002,3.650164e-003
7.752563e+002,3.553888e-003
7.771849e+002,3.517678e-003
7.791134e+002,3.392883e-003
7.810419e+002,3.230495e-003
7.829703e+002,3.144043e-003
7.848989e+002,3.067724e-003
7.868274e+002,2.940465e-003
7.887559e+002,2.887459e-003
7.906843e+002,2.871297e-003
7.926129e+002,2.869699e-003
7.945414e+002,2.874210e-003
7.964698e+002,2.783353e-003
7.983983e+002,2.755350e-003
8.003268e+002,2.806900e-003
8.022554e+002,2.812341e-003
8.041838e+002,2.773345e-003
8.061123e+002,2.723822e-003
8.080408e+002,2.591841e-003
8.099694e+002,2.542548e-003
8.118978e+002,2.548793e-003
8.138263e+002,2.489477e-003
8.157548e+002,2.408348e-003
8.176833e+002,2.361303e-003
8.196118e+002,2.310235e-003
8.215403e+002,2.270486e-003
8.234689e+002,2.181260e-003
8.253973e+002,2.152525e-003
8.273258e+002,2.116593e-003
8.292543e+002,2.108481e-003
8.311829e+002,2.125382e-003
8.331113e+002,2.091477e-003
8.350398e+002,2.029149e-003
8.369683e+002,2.044864e-003
8.388969e+002,2.075909e-003
8.408253e+002,2.103290e-003
8.427538e+002,2.116231e-003
8.446823e+002,2.182417e-003
8.466108e+002,2.225433e-003
8.485393e+002,2.274057e-003
8.504678e+002,2.262387e-003
8.523963e+002,2.252599e-003
8.543248e+002,2.275966e-003
8.562533e+002,2.265122e-003
8.581818e+002,2.232401e-003
8.601103e+002,2.277007e-003
8.620388e+002,2.291190e-003
8.639673e+002,2.336439e-003
8.658958e+002,2.365872e-003
8.678243e+002,2.370218e-003
8.697528e+002,2.362221e-003
8.716813e+002,2.422828e-003
8.736098e+002,2.407158e-003
8.755383e+002,2.485178e-003
8.774668e+002,2.582248e-003
8.793953e+002,2.691884e-003
8.813238e+002,2.855252e-003
8.832523e+002,3.185751e-003
8.851808e+002,3.460092e-003
8.871093e+002,3.629105e-003
8.890378e+002,3.605217e-003
8.909663e+002,3.429193e-003
8.928948e+002,3.279341e-003
8.948232e+002,3.275195e-003
8.967518e+002,3.160521e-003
8.986803e+002,3.059452e-003
9.006088e+002,2.998441e-003
9.025372e+002,2.992572e-003
9.044658e+002,3.046973e-003
9.063943e+002,3.289070e-003
9.083228e+002,3.502432e-003
9.102512e+002,3.402298e-003
9.121797e+002,3.159836e-003
9.141083e+002,3.014814e-003
9.160367e+002,2.840584e-003
9.179653e+002,2.751047e-003
9.198937e+002,2.738148e-003
9.218223e+002,2.762400e-003
9.237507e+002,2.731998e-003
9.256793e+002,2.748292e-003
9.276077e+002,2.765022e-003
9.295363e+002,2.865303e-003
9.314647e+002,2.886944e-003
9.333932e+002,2.936963e-003
9.353217e+002,2.949577e-003
9.372502e+002,2.961904e-003
9.391787e+002,2.955232e-003
9.411072e+002,2.940424e-003
9.430358e+002,2.875801e-003
9.449642e+002,2.920985e-003
9.468928e+002,2.949461e-003
9.488212e+002,2.996441e-003
9.507498e+002,3.010437e-003
9.526782e+002,3.079634e-003
9.546068e+002,3.117334e-003
9.565352e+002,3.192235e-003
9.584637e+002,3.295053e-003
9.603922e+002,3.460918e-003
9.623207e+002,3.575929e-003
9.642492e+002,3.689919e-003
9.661777e+002,3.745131e-003
9.681062e+002,3.786221e-003
9.700347e+002,3.715772e-003
9.719632e+002,3.643412e-003
9.738917e+002,3.528912e-003
9.758202e+002,3.503367e-003
9.777487e+002,3.538959e-003
9.796772e+002,3.595494e-003
9.816057e+002,3.615897e-003
9.835342e+002,3.705867e-003
9.854627e+002,3.757682e-003
9.873912e+002,3.857281e-003
9.893197e+002,3.972713e-003
9.912482e+002,4.089374e-003
9.931767e+002,4.086550e-003
9.951052e+002,4.098207e-003
9.970337e+002,4.111174e-003
9.989622e+002,4.153565e-003
1.000891e+003,4.222434e-003
1.002819e+003,4.342195e-003
1.004748e+003,4.408348e-003
1.006676e+003,4.498869e-003
1.008605e+003,4.567318e-003
1.010533e+003,4.718445e-003
1.012462e+003,4.824169e-003
1.014390e+003,4.922558e-003
1.016319e+003,4.921198e-003
1.018247e+003,4.840098e-003
1.020176e+003,4.834086e-003
1.022104e+003,5.090717e-003
1.024033e+003,5.268995e-003
1.025961e+003,5.399000e-003
1.027890e+003,5.471870e-003
1.029818e+003,5.610462e-003
1.031747e+003,5.698372e-003
1.033675e+003,5.739085e-003
1.035604e+003,5.760714e-003
1.037532e+003,5.849872e-003
1.039461e+003,5.880501e-003
1.041389e+003,5.922414e-003
1.043318e+003,5.924448e-003
1.045246e+003,6.004997e-003
1.047175e+003,6.151788e-003
1.049103e+003,6.354183e-003
1.051032e+003,6.428566e-003
1.052960e+003,6.483551e-003
1.054889e+003,6.543107e-003
1.056817e+003,6.660856e-003
1.058746e+003,6.760899e-003
1.060674e+003,6.923564e-003
1.062603e+003,7.001743e-003
1.064531e+003,7.076312e-003
1.066460e+003,7.073186e-003
1.068388e+003,7.071801e-003
1.070317e+003,7.109791e-003
1.072245e+003,7.299684e-003
1.074174e+003,7.509042e-003
1.076102e+003,7.789556e-003
1.078031e+003,7.992875e-003
1.079959e+003,8.188922e-003
1.081888e+003,8.257743e-003
1.083816e+003,8.314189e-003
1.085745e+003,8.353353e-003
1.087673e+003,8.372761e-003
1.089602e+003,8.318517e-003
1.091530e+003,8.310989e-003
1.093459e+003,8.219671e-003
1.095387e+003,8.100100e-003
1.097316e+003,7.812522e-003
1.099244e+003,7.494889e-003
1.101173e+003,7.248323e-003
1.103101e+003,7.190358e-003
1.105030e+003,7.155884e-003
1.106958e+003,7.145762e-003
1.108887e+003,7.065952e-003
1.110815e+003,7.037442e-003
1.112744e+003,6.989084e-003
1.114672e+003,7.026464e-003
1.116601e+003,7.077191e-003
1.118529e+003,7.209327e-003
1.120458e+003,7.285908e-003
1.122386e+003,7.326096e-003
1.124315e+003,7.256538e-003
1.126243e+003,7.257741e-003
1.128172e+003,7.296380e-003
1.130100e+003,7.429581e-003
1.132029e+003,7.614173e-003
1.133957e+003,7.937055e-003
1.135885e+003,8.272242e-003
1.137814e+003,8.679364e-003
1.139743e+003,9.032793e-003
1.141671e+003,9.364221e-003
1.143600e+003,9.625360e-003
1.145528e+003,9.946182e-003
1.147457e+003,1.026025e-002
1.149385e+003,1.072063e-002
1.151314e+003,1.116111e-002
1.153242e+003,1.164339e-002
1.155171e+003,1.198561e-002
1.157099e+003,1.231699e-002
1.159028e+003,1.257034e-002
1.160956e+003,1.271110e-002
1.162885e+003,1.269221e-002
1.164813e+003,1.259489e-002
1.166742e+003,1.232206e-002
1.168670e+003,1.198307e-002
1.170599e+003,1.154391e-002
1.172527e+003,1.112909e-002
1.174456e+003,1.071591e-002
1.176384e+003,1.046048e-002
1.178313e+003,1.009837e-002
1.180241e+003,9.752676e-003
1.182170e+003,9.430613e-003
1.184098e+003,9.202421e-003
1.186027e+003,9.001873e-003
1.187955e+003,8.901503e-003
1.189884e+003,8.767433e-003
1.191812e+003,8.708429e-003
1.193740e+003,8.606404e-003
1.195669e+003,8.574028e-003
1.197598e+003,8.568224e-003
1.199526e+003,8.642148e-003
1.201455e+003,8.688688e-003
1.203383e+003,8.823041e-003
1.205312e+003,8.960482e-003
1.207240e+003,9.135127e-003
1.209168e+003,9.242401e-003
1.211097e+003,9.423621e-003
1.213026e+003,9.601735e-003
1.214954e+003,9.817716e-003
1.216883e+003,9.970810e-003
1.218811e+003,1.017040e-002
1.220740e+003,1.033621e-002
1.222668e+003,1.056974e-002
1.224596e+003,1.073573e-002
1.226525e+003,1.094367e-002
1.228453e+003,1.113041e-002
1.230382e+003,1.135975e-002
1.232311e+003,1.147452e-002
1.234239e+003,1.157396e-002
1.236167e+003,1.161570e-002
1.238096e+003,1.162947e-002
1.240025e+003,1.142912e-002
1.241953e+003,1.120076e-002
1.243882e+003,1.082277e-002
1.245810e+003,1.045781e-002
1.247739e+003,1.014199e-002
1.249667e+003,9.955246e-003
1.251595e+003,9.833124e-003
1.253524e+003,9.849384e-003
1.255453e+003,9.761188e-003
1.257381e+003,9.639461e-003
1.259310e+003,9.337910e-003
1.261238e+003,8.985739e-003
1.263167e+003,8.490752e-003
1.265095e+003,8.016776e-003
1.267023e+003,7.663585e-003
1.268952e+003,7.684991e-003
1.270880e+003,7.843520e-003
1.272809e+003,8.127000e-003
1.274738e+003,8.354884e-003
1.276666e+003,8.646458e-003
1.278594e+003,8.873180e-003
1.280523e+003,9.140853e-003
1.282451e+003,9.326138e-003
1.284380e+003,9.525158e-003
1.286308e+003,9.670805e-003
1.288237e+003,9.960990e-003
1.290166e+003,1.023074e-002
1.292094e+003,1.063012e-002
1.294022e+003,1.104324e-002
1.295951e+003,1.149552e-002
1.297879e+003,1.176958e-002
1.299808e+003,1.198431e-002
1.301736e+003,1.203673e-002
1.303665e+003,1.210165e-002
1.305594e+003,1.202666e-002
1.307522e+003,1.194964e-002
1.309450e+003,1.170183e-002
1.311379e+003,1.141886e-002
1.313307e+003,1.101229e-002
1.315236e+003,1.067051e-002
1.317164e+003,1.024637e-002
1.319093e+003,9.919185e-003
1.321021e+003,9.502396e-003
1.322950e+003,9.219423e-003
1.324878e+003,8.952800e-003
1.326807e+003,8.825265e-003
1.328735e+003,8.746915e-003
1.330664e+003,8.894823e-003
1.332592e+003,9.104826e-003
1.334521e+003,9.565681e-003
1.336449e+003,1.015958e-002
1.338378e+003,1.103773e-002
1.340306e+003,1.173778e-002
1.342235e+003,1.223843e-002
1.344163e+003,1.269596e-002
1.346092e+003,1.338673e-002
1.348021e+003,1.404115e-002
1.349949e+003,1.470626e-002
1.351877e+003,1.503826e-002
1.353806e+003,1.516527e-002
1.355734e+003,1.500135e-002
1.357663e+003,1.505735e-002
1.359591e+003,1.539783e-002
1.361520e+003,1.622804e-002
1.363448e+003,1.742801e-002
1.365377e+003,1.860503e-002
1.367305e+003,1.947257e-002
1.369234e+003,1.989692e-002
1.371162e+003,1.966292e-002
1.373091e+003,1.997001e-002
1.375019e+003,2.181226e-002
1.376948e+003,2.319264e-002
1.378876e+003,2.145177e-002
1.380805e+003,1.715878e-002
1.382733e+003,1.295514e-002
1.384662e+003,1.050047e-002
1.386590e+003,9.091884e-003
1.388519e+003,8.354839e-003
1.390447e+003,7.788230e-003
1.392376e+003,7.651452e-003
1.394304e+003,7.443991e-003
1.396233e+003,7.572453e-003
1.398161e+003,7.471882e-003
1.400090e+003,7.619742e-003
1.402018e+003,7.473737e-003
1.403947e+003,7.695682e-003
1.405875e+003,7.636335e-003
1.407804e+003,7.782146e-003
1.409732e+003,7.898953e-003
1.411661e+003,8.379765e-003
1.413589e+003,8.572619e-003
1.415518e+003,9.053774e-003
1.417446e+003,9.211913e-003
1.419375e+003,1.002784e-002
1.421303e+003,1.036341e-002
1.423232e+003,1.131793e-002
1.425160e+003,1.259257e-002
1.427089e+003,1.449884e-002
1.429017e+003,1.701162e-002
1.430946e+003,2.081551e-002
1.432874e+003,2.382831e-002
1.434803e+003,2.675853e-002
1.436731e+003,3.000009e-002
1.438660e+003,3.316372e-002
1.440588e+003,3.487948e-002
1.442517e+003,3.729807e-002
1.444445e+003,3.923403e-002
1.446374e+003,4.200027e-002
1.448302e+003,4.590131e-002
1.450231e+003,5.196985e-002
1.452159e+003,6.070963e-002
1.454088e+003,7.173708e-002
1.456016e+003,8.236949e-002
1.457945e+003,1.066067e-001
1.459873e+003,1.476379e-001
1.461802e+003,1.925460e-001
1.463730e+003,1.981938e-001
1.465659e+003,1.567139e-001
1.467587e+003,1.414152e-001
1.469516e+003,1.384408e-001
1.471444e+003,1.546801e-001
1.473373e+003,1.334129e-001
1.475301e+003,7.366744e-002
1.477230e+003,3.454997e-002
1.479158e+003,2.294154e-002
1.481087e+003,1.719017e-002
1.483015e+003,1.448781e-002
1.484944e+003,1.227680e-002
1.486872e+003,1.163409e-002
1.488801e+003,1.017744e-002
1.490729e+003,9.951226e-003
1.492658e+003,8.831557e-003
1.494586e+003,8.736338e-003
1.496515e+003,7.953584e-003
1.498443e+003,8.147106e-003
1.500372e+003,7.405698e-003
1.502300e+003,7.294234e-003
1.504229e+003,6.542899e-003
1.506157e+003,6.810181e-003
1.508086e+003,6.691370e-003
1.510014e+003,7.072881e-003
1.511943e+003,6.540079e-003
1.513871e+003,6.668683e-003
1.515800e+003,6.316684e-003
1.517728e+003,6.528415e-003
1.519657e+003,6.086502e-003
1.521585e+003,6.521206e-003
1.523514e+003,6.238464e-003
1.525442e+003,6.517936e-003
1.527371e+003,6.215684e-003
1.529299e+003,6.240003e-003
1.531228e+003,6.008834e-003
1.533156e+003,6.307617e-003
1.535085e+003,6.057546e-003
1.537013e+003,5.973473e-003
1.538942e+003,5.381167e-003
1.540870e+003,6.108459e-003
1.542799e+003,6.009012e-003
1.544727e+003,6.257363e-003
1.546656e+003,5.839620e-003
1.548584e+003,5.852968e-003
1.550513e+003,5.692031e-003
1.552441e+003,5.633436e-003
1.554370e+003,5.272906e-003
1.556298e+003,5.206954e-003
1.558227e+003,4.285041e-003
1.560155e+003,5.090602e-003
1.562084e+003,4.959319e-003
1.564012e+003,4.975367e-003
1.565941e+003,4.745711e-003
1.567869e+003,4.770271e-003
1.569798e+003,4.682649e-003
1.571726e+003,4.696216e-003
1.573655e+003,4.441086e-003
1.575583e+003,4.495781e-003
1.577512e+003,4.448302e-003
1.579440e+003,4.494183e-003
1.581369e+003,4.390717e-003
1.583297e+003,4.473045e-003
1.585226e+003,4.418522e-003
1.587154e+003,4.480712e-003
1.589083e+003,4.367605e-003
1.591011e+003,4.452635e-003
1.592940e+003,4.383631e-003
1.594868e+003,4.452329e-003
1.596797e+003,4.330494e-003
1.598725e+003,4.374187e-003
1.600654e+003,4.341405e-003
1.602582e+003,4.431967e-003
1.604511e+003,4.338004e-003
1.606439e+003,4.408699e-003
1.608368e+003,4.387490e-003
1.610296e+003,4.505921e-003
1.612225e+003,4.433256e-003
1.614153e+003,4.509233e-003
1.616082e+003,4.534774e-003
1.618010e+003,4.912533e-003
1.619939e+003,4.902925e-003
1.621867e+003,5.004354e-003
1.623796e+003,5.044416e-003
1.625724e+003,5.183533e-003
1.627653e+003,5.223140e-003
1.629581e+003,5.367812e-003
1.631510e+003,5.299263e-003
1.633438e+003,5.311742e-003
1.635367e+003,5.345806e-003
1.637295e+003,5.984116e-003
1.639224e+003,5.991407e-003
1.641152e+003,6.041635e-003
1.643081e+003,5.918786e-003
1.645009e+003,5.969282e-003
1.646938e+003,6.102353e-003
1.648866e+003,6.331455e-003
1.650795e+003,5.911775e-003
1.652723e+003,5.440328e-003
1.654652e+003,5.995419e-003
1.656580e+003,6.079819e-003
1.658509e+003,5.716179e-003
1.660437e+003,5.558591e-003
1.662366e+003,5.379654e-003
1.664294e+003,5.357865e-003
1.666223e+003,5.119096e-003
1.668151e+003,4.949138e-003
1.670080e+003,4.790332e-003
1.672008e+003,4.838094e-003
1.673937e+003,4.498877e-003
1.675865e+003,4.456714e-003
1.677794e+003,4.411288e-003
1.679722e+003,4.362777e-003
1.681651e+003,3.969368e-003
1.683579e+003,3.424030e-003
1.685508e+003,3.622118e-003
1.687436e+003,3.897436e-003
1.689365e+003,3.696226e-003
1.691293e+003,3.637977e-003
1.693222e+003,3.327586e-003
1.695150e+003,3.020491e-003
1.697079e+003,3.095292e-003
1.699007e+003,3.034595e-003
1.700936e+003,2.904601e-003
1.702864e+003,3.366787e-003
1.704793e+003,3.353603e-003
1.706721e+003,3.603306e-003
1.708650e+003,3.652710e-003
1.710578e+003,3.809255e-003
1.712507e+003,3.761463e-003
1.714435e+003,3.895812e-003
1.716364e+003,3.878918e-003
1.718292e+003,4.337236e-003
1.720221e+003,4.457451e-003
1.722149e+003,4.109491e-003
1.724078e+003,3.365401e-003
1.726006e+003,2.983432e-003
1.727935e+003,3.084045e-003
1.729863e+003,4.104119e-003
1.731792e+003,5.029909e-003
1.733720e+003,6.786264e-003
1.735649e+003,9.275772e-003
1.737577e+003,1.055969e-002
1.739506e+003,1.230782e-002
1.741434e+003,1.434728e-002
1.743363e+003,1.610897e-002
1.745291e+003,1.758987e-002
1.747220e+003,1.810889e-002
1.749148e+003,1.763939e-002
1.751077e+003,1.578989e-002
1.753005e+003,1.351564e-002
1.754934e+003,1.134191e-002
1.756862e+003,8.744717e-003
1.758791e+003,6.715812e-003
1.760719e+003,5.427286e-003
1.762648e+003,4.148297e-003
1.764576e+003,3.449071e-003
1.766505e+003,2.847869e-003
1.768433e+003,2.504751e-003
1.770362e+003,2.138216e-003
1.772290e+003,1.924023e-003
1.774219e+003,1.826718e-003
1.776147e+003,1.798850e-003
1.778076e+003,1.695577e-003
1.780004e+003,1.718737e-003
1.781933e+003,1.576003e-003
1.783861e+003,1.593255e-003
1.785790e+003,1.458742e-003
1.787718e+003,1.440000e-003
1.789646e+003,1.283590e-003
1.791575e+003,1.286756e-003
1.793504e+003,1.339611e-003
1.795432e+003,1.412209e-003
1.797361e+003,1.203056e-003
1.799289e+003,1.153968e-003
1.801218e+003,1.174271e-003
1.803146e+003,1.213409e-003
1.805074e+003,1.007646e-003
1.807003e+003,9.889714e-004
1.808932e+003,7.857420e-004
1.810860e+003,7.599704e-004
1.812789e+003,6.167106e-004
1.814717e+003,3.829226e-004
1.816646e+003,1.566149e-004
1.818574e+003,4.562661e-004
1.820502e+003,5.134419e-004
1.822431e+003,6.405935e-004
1.824360e+003,4.136749e-004
1.826288e+003,3.455766e-004
1.828217e+003,9.449199e-005
1.830145e+003,9.139627e-005
1.832073e+003,7.695332e-005
1.834002e+003,5.528331e-005
1.835931e+003,-3.106818e-004
1.837859e+003,-3.082305e-004
1.839788e+003,-3.909320e-004
1.841716e+003,-3.999658e-004
1.843645e+003,-6.010681e-004
1.845573e+003,-2.965853e-004
1.847501e+003,-3.888309e-004
1.849430e+003,-2.495125e-004
1.851359e+003,-3.196038e-004
1.853287e+003,-3.873333e-004
1.855216e+003,-5.679168e-004
1.857144e+003,-4.855990e-004
1.859073e+003,-6.037839e-004
1.861001e+003,-4.634522e-004
1.862929e+003,-6.192476e-004
1.864858e+003,-8.042678e-004
1.866787e+003,-1.252584e-003
1.868715e+003,-1.154460e-003
1.870644e+003,-9.212680e-004
1.872572e+003,-7.308945e-004
1.874500e+003,-9.098537e-004
1.876429e+003,-7.769689e-004
1.878357e+003,-9.275675e-004
1.880286e+003,-8.638538e-004
1.882215e+003,-1.110807e-003
1.884143e+003,-1.211811e-003
1.886072e+003,-1.279138e-003
1.888000e+003,-1.058094e-003
1.889928e+003,-1.143273e-003
1.891857e+003,-7.976890e-004
1.893785e+003,-9.039044e-004
1.895714e+003,-8.745939e-004
1.897643e+003,-1.179259e-003
1.899571e+003,-1.036435e-003
1.901500e+003,-1.028597e-003
1.903428e+003,-1.020767e-003
1.905356e+003,-1.012951e-003
1.907285e+003,-1.005143e-003
1.909213e+003,-9.973459e-004
1.911142e+003,-9.895600e-004
1.913071e+003,-9.817816e-004
1.914999e+003,-9.740219e-004
1.916927e+003,-9.662658e-004
1.918856e+003,-9.585172e-004
1.920784e+003,-9.507798e-004
1.922713e+003,-9.430572e-004
1.924641e+003,-9.353496e-004
1.926570e+003,-9.276383e-004
1.928499e+003,-9.199455e-004
1.930427e+003,-9.122640e-004
1.932355e+003,-9.045936e-004
1.934284e+003,-8.969232e-004
1.936212e+003,-8.892789e-004
1.938141e+003,-8.816347e-004
1.940070e+003,-8.739904e-004
1.941998e+003,-8.663759e-004
1.943927e+003,-8.587651e-004
1.945855e+003,-8.511655e-004
1.947783e+003,-8.435696e-004
1.949712e+003,-8.359998e-004
1.951640e+003,-8.284301e-004
1.953569e+003,-8.208677e-004
1.955498e+003,-8.133166e-004
1.957426e+003,-8.057803e-004
1.959354e+003,-7.982552e-004
1.961283e+003,-7.907376e-004
1.963211e+003,-7.832274e-004
1.965140e+003,-7.757246e-004
1.967068e+003,-7.682443e-004
1.968997e+003,-7.607639e-004
1.970926e+003,-7.532984e-004
1.972854e+003,-7.458478e-004
1.974782e+003,-7.384047e-004
1.976711e+003,-7.309690e-004
1.978639e+003,-7.235333e-004
1.980568e+003,-7.161200e-004
1.982496e+003,-7.087141e-004
1.984425e+003,-7.013232e-004
1.986354e+003,-6.939396e-004
1.988282e+003,-6.865710e-004
1.990210e+003,-6.792098e-004
1.992139e+003,-6.718561e-004
1.994067e+003,-6.645173e-004
1.995996e+003,-6.571785e-004
1.997924e+003,-6.498545e-004
1.999853e+003,-6.425455e-004
2.001781e+003,-6.352440e-004
2.003710e+003,-6.279573e-004
2.005638e+003,-6.206781e-004
2.007567e+003,-6.133988e-004
2.009495e+003,-6.061494e-004
2.011424e+003,-5.989000e-004
2.013352e+003,-5.916581e-004
2.015281e+003,-5.844235e-004
2.017209e+003,-5.772114e-004
2.019138e+003,-5.699992e-004
2.021066e+003,-5.628020e-004
2.022995e+003,-5.556196e-004
2.024923e+003,-5.484447e-004
2.026852e+003,-5.412772e-004
2.028781e+003,-5.341247e-004
2.030709e+003,-5.269721e-004
2.032637e+003,-5.198345e-004
2.034566e+003,-5.127117e-004
2.036494e+003,-5.055889e-004
2.038423e+003,-4.984960e-004
2.040351e+003,-4.913956e-004
2.042280e+003,-4.843101e-004
2.044208e+003,-4.772395e-004
2.046137e+003,-4.701838e-004
2.048065e+003,-4.631206e-004
2.049994e+003,-4.560798e-004
2.051922e+003,-4.490465e-004
2.053851e+003,-4.420206e-004
2.055779e+003,-4.350096e-004
2.057708e+003,-4.280210e-004
2.059636e+003,-4.210249e-004
2.061565e+003,-4.140511e-004
2.063493e+003,-4.070774e-004
2.065422e+003,-4.001185e-004
2.067350e+003,-3.931746e-004
2.069279e+003,-3.862232e-004
2.071207e+003,-3.792942e-004
2.073136e+003,-3.723726e-004
2.075064e+003,-3.654733e-004
2.076993e+003,-3.585741e-004
2.078921e+003,-3.516898e-004
2.080850e+003,-3.448129e-004
2.082778e+003,-3.379509e-004
2.084707e+003,-3.310814e-004
2.086635e+003,-3.242418e-004
2.088564e+003,-3.174022e-004
2.090492e+003,-3.105775e-004
2.092421e+003,-3.037676e-004
2.094349e+003,-2.969652e-004
2.096278e+003,-2.901703e-004
2.098206e+003,-2.833754e-004
2.100135e+003,-2.766103e-004
2.102063e+003,-2.698451e-004
2.103992e+003,-2.630875e-004
2.105920e+003,-2.563521e-004
2.107849e+003,-2.496168e-004
2.109777e+003,-2.428964e-004
2.111706e+003,-2.361983e-004
2.113634e+003,-2.294779e-004
2.115563e+003,-2.227873e-004
2.117491e+003,-2.161115e-004
2.119420e+003,-2.094433e-004
2.121348e+003,-2.027825e-004
2.123277e+003,-1.961365e-004
2.125205e+003,-1.894906e-004
2.127134e+003,-1.828671e-004
2.129062e+003,-1.762435e-004
2.130991e+003,-1.696348e-004
2.132919e+003,-1.630411e-004
2.134848e+003,-1.564547e-004
2.136776e+003,-1.498833e-004
2.138705e+003,-1.433045e-004
2.140633e+003,-1.367554e-004
2.142562e+003,-1.301989e-004
2.144490e+003,-1.236647e-004
2.146419e+003,-1.171380e-004
2.148347e+003,-1.106262e-004
2.150276e+003,-1.041219e-004
2.152204e+003,-9.762496e-005
2.154133e+003,-9.113550e-005
2.156061e+003,-8.466095e-005
2.157990e+003,-7.820129e-005
2.159918e+003,-7.174909e-005
2.161847e+003,-6.531179e-005
2.163775e+003,-5.888194e-005
2.165704e+003,-5.245954e-005
2.167632e+003,-4.604459e-005
2.169561e+003,-3.964454e-005
2.171489e+003,-3.325194e-005
2.173418e+003,-2.685934e-005
2.175346e+003,-2.048910e-005
2.177275e+003,-1.414120e-005
2.179203e+003,-7.785857e-006
2.181132e+003,-1.452863e-006
2.183060e+003,4.880130e-006
2.184989e+003,1.119822e-005
2.186917e+003,1.750886e-005
2.188846e+003,2.381206e-005
2.190774e+003,3.010035e-005
2.192703e+003,3.637373e-005
2.194631e+003,4.263967e-005
2.196560e+003,4.889816e-005
2.198488e+003,5.514175e-005
2.200417e+003,6.138533e-005
2.202345e+003,6.760657e-005
2.204274e+003,7.382780e-005
2.206202e+003,8.003414e-005
2.208131e+003,8.623302e-005
2.210059e+003,9.240955e-005
2.211988e+003,9.857863e-005
2.213916e+003,1.047328e-004
2.215845e+003,1.108870e-004
2.217773e+003,1.170412e-004
2.219702e+003,1.231655e-004
2.221630e+003,1.292974e-004
2.223559e+003,1.354069e-004
2.225487e+003,1.415089e-004
2.227416e+003,1.476035e-004
2.229344e+003,1.536757e-004
2.231273e+003,1.597553e-004
2.233201e+003,1.658201e-004
2.235130e+003,1.718700e-004
2.237058e+003,1.778975e-004
2.238987e+003,1.839250e-004
2.240915e+003,1.899451e-004
2.242844e+003,1.959503e-004
2.244772e+003,2.019629e-004
2.246701e+003,2.079532e-004
2.248629e+003,2.139360e-004
2.250558e+003,2.198964e-004
2.252486e+003,2.258569e-004
2.254415e+003,2.318025e-004
2.256343e+003,2.377331e-004
2.258272e+003,2.436638e-004
2.260200e+003,2.495721e-004
2.262129e+003,2.554804e-004
2.264057e+003,2.613738e-004
2.265986e+003,2.672598e-004
2.267914e+003,2.731308e-004
2.269843e+003,2.789944e-004
2.271771e+003,2.848506e-004
2.273700e+003,2.906919e-004
2.275628e+003,2.965331e-004
2.277557e+003,3.023595e-004
2.279485e+003,3.081709e-004
2.281414e+003,3.139749e-004
2.283342e+003,3.197566e-004
2.285271e+003,3.255382e-004
2.287199e+003,3.313050e-004
2.289128e+003,3.370717e-004
2.291056e+003,3.428236e-004
2.292985e+003,3.485605e-004
2.294913e+003,3.542900e-004
2.296842e+003,3.600121e-004
2.298770e+003,3.657192e-004
2.300699e+003,3.714189e-004
2.302627e+003,3.771111e-004
2.304556e+003,3.827885e-004
2.306484e+003,3.884584e-004
2.308413e+003,3.941134e-004
2.310341e+003,3.997609e-004
2.312270e+003,4.053935e-004
2.314198e+003,4.110187e-004
2.316127e+003,4.166365e-004
2.318055e+003,4.222319e-004
2.319984e+003,4.278421e-004
2.321912e+003,4.334301e-004
2.323841e+003,4.389957e-004
2.325769e+003,4.445612e-004
2.327698e+003,4.501119e-004
2.329626e+003,4.556552e-004
2.331555e+003,4.611835e-004
2.333483e+003,4.667193e-004
2.335412e+003,4.722252e-004
2.337340e+003,4.777312e-004
2.339269e+003,4.832223e-004
2.341197e+003,4.887059e-004
2.343126e+003,4.941672e-004
2.345054e+003,4.996359e-004
2.346983e+003,5.050898e-004
2.348911e+003,5.105361e-004
2.350840e+003,5.159527e-004
2.352768e+003,5.213842e-004
2.354697e+003,5.267933e-004
2.356625e+003,5.321875e-004
2.358554e+003,5.375668e-004
2.360482e+003,5.429536e-004
2.362411e+003,5.483106e-004
2.364339e+003,5.536824e-004
2.366268e+003,5.590320e-004
2.368196e+003,5.643591e-004
2.370125e+003,5.696863e-004
2.372053e+003,5.750060e-004
2.373982e+003,5.803034e-004
2.375910e+003,5.856007e-004
2.377839e+003,5.909055e-004
2.379767e+003,5.961657e-004
2.381696e+003,6.014332e-004
2.383624e+003,6.066859e-004
2.385553e+003,6.119311e-004
2.387481e+003,6.171614e-004
2.389410e+003,6.223917e-004
2.391338e+003,6.276071e-004
2.393267e+003,6.328076e-004
2.395195e+003,6.379932e-004
2.397124e+003,6.431788e-004
2.399052e+003,6.483495e-004
2.400981e+003,6.486028e-004
2.402909e+003,5.966648e-004
2.404838e+003,6.308854e-004
2.406766e+003,9.082854e-004
2.408695e+003,1.233056e-003
2.410623e+003,1.244955e-003
2.412552e+003,1.173623e-003
2.414480e+003,1.058161e-003
2.416409e+003,1.097307e-003
2.418337e+003,1.141332e-003
2.420266e+003,1.087941e-003
2.422194e+003,9.204447e-004
2.424123e+003,8.679703e-004
2.426051e+003,8.293763e-004
2.427979e+003,8.565038e-004
2.429908e+003,7.508770e-004
2.431837e+003,8.954406e-004
2.433765e+003,9.945929e-004
2.435694e+003,9.988174e-004
2.437622e+003,8.745417e-004
2.439551e+003,8.499920e-004
2.441479e+003,8.248612e-004
2.443407e+003,8.684099e-004
2.445336e+003,8.989051e-004
2.447265e+003,9.338260e-004
2.449193e+003,1.045547e-003
2.451122e+003,1.163341e-003
2.453050e+003,1.182064e-003
2.454979e+003,1.328401e-003
2.456907e+003,1.201443e-003
2.458836e+003,9.188205e-004
2.460764e+003,7.727221e-004
2.462693e+003,8.883998e-004
2.464621e+003,8.476451e-004
2.466550e+003,8.290410e-004
2.468478e+003,9.282455e-004
2.470406e+003,1.172535e-003
2.472335e+003,1.178399e-003
2.474264e+003,1.216203e-003
2.476192e+003,1.238219e-003
2.478121e+003,1.272239e-003
2.480049e+003,1.220718e-003
2.481978e+003,1.279138e-003
2.483906e+003,1.432963e-003
2.485835e+003,1.473241e-003
2.487763e+003,1.339301e-003
2.489692e+003,1.386769e-003
2.491620e+003,1.488470e-003
2.493549e+003,1.607269e-003
2.495477e+003,1.680650e-003
2.497406e+003,1.605071e-003
2.499334e+003,1.636803e-003
2.501263e+003,1.825146e-003
2.503191e+003,1.749627e-003
2.505120e+003,1.537554e-003
2.507048e+003,1.565434e-003
2.508977e+003,1.743034e-003
2.510905e+003,1.737356e-003
2.512833e+003,1.845807e-003
2.514762e+003,1.953512e-003
2.516691e+003,2.023391e-003
2.518619e+003,2.149068e-003
2.520548e+003,2.448857e-003
2.522476e+003,2.521187e-003
2.524405e+003,2.691112e-003
2.526333e+003,2.715185e-003
2.528261e+003,2.570547e-003
2.530190e+003,2.530031e-003
2.532119e+003,2.887949e-003
2.534047e+003,2.989493e-003
2.535976e+003,2.903759e-003
2.537904e+003,2.893217e-003
2.539833e+003,2.963878e-003
2.541761e+003,2.948895e-003
2.543689e+003,3.122889e-003
2.545618e+003,3.468804e-003
2.547547e+003,3.722280e-003
2.549475e+003,3.900111e-003
2.551404e+003,3.943324e-003
2.553332e+003,3.945686e-003
2.555260e+003,4.015811e-003
2.557189e+003,4.061200e-003
2.559117e+003,4.216924e-003
2.561046e+003,4.321463e-003
2.562975e+003,4.505292e-003
2.564903e+003,4.465990e-003
2.566832e+003,4.521511e-003
2.568760e+003,4.636802e-003
2.570688e+003,4.808716e-003
2.572617e+003,4.975244e-003
2.574546e+003,5.190842e-003
2.576474e+003,5.374499e-003
2.578403e+003,5.539484e-003
2.580331e+003,5.678982e-003
2.582260e+003,5.966924e-003
2.584188e+003,6.216295e-003
2.586116e+003,6.487630e-003
2.588045e+003,6.493323e-003
2.589974e+003,6.704725e-003
2.591902e+003,7.008411e-003
2.593831e+003,7.241756e-003
2.595759e+003,7.506266e-003
2.597688e+003,7.742353e-003
2.599616e+003,7.912166e-003
2.601544e+003,8.158781e-003
2.603473e+003,8.441404e-003
2.605402e+003,8.747131e-003
2.607330e+003,8.994967e-003
2.609259e+003,9.221680e-003
2.611187e+003,9.522781e-003
2.613115e+003,9.908825e-003
2.615044e+003,1.024834e-002
2.616972e+003,1.067296e-002
2.618901e+003,1.104274e-002
2.620830e+003,1.139614e-002
2.622758e+003,1.176348e-002
2.624687e+003,1.212388e-002
2.626615e+003,1.253697e-002
2.628543e+003,1.304860e-002
2.630472e+003,1.347353e-002
2.632400e+003,1.380884e-002
2.634329e+003,1.408410e-002
2.636258e+003,1.423234e-002
2.638186e+003,1.426572e-002
2.640115e+003,1.429407e-002
2.642043e+003,1.429656e-002
2.643971e+003,1.425092e-002
2.645900e+003,1.426481e-002
2.647828e+003,1.438096e-002
2.649757e+003,1.448905e-002
2.651686e+003,1.463411e-002
2.653614e+003,1.483457e-002
2.655542e+003,1.500691e-002
2.657471e+003,1.509581e-002
2.659399e+003,1.510928e-002
2.661328e+003,1.498649e-002
2.663256e+003,1.477437e-002
2.665185e+003,1.456804e-002
2.667114e+003,1.439019e-002
2.669042e+003,1.423475e-002
2.670970e+003,1.407416e-002
2.672899e+003,1.388109e-002
2.674827e+003,1.372342e-002
2.676756e+003,1.364262e-002
2.678685e+003,1.352058e-002
2.680613e+003,1.337478e-002
2.682542e+003,1.326648e-002
2.684470e+003,1.317666e-002
2.686398e+003,1.311694e-002
2.688327e+003,1.294975e-002
2.690255e+003,1.277416e-002
2.692184e+003,1.262905e-002
2.694113e+003,1.250902e-002
2.696041e+003,1.252042e-002
2.697969e+003,1.262034e-002
2.699898e+003,1.274069e-002
2.701826e+003,1.281865e-002
2.703755e+003,1.294505e-002
2.705683e+003,1.311520e-002
2.707612e+003,1.326283e-002
2.709541e+003,1.341301e-002
2.711469e+003,1.356457e-002
2.713397e+003,1.372615e-002
2.715326e+003,1.388160e-002
2.717254e+003,1.413126e-002
2.719183e+003,1.436467e-002
2.721111e+003,1.460713e-002
2.723040e+003,1.484070e-002
2.724969e+003,1.511187e-002
2.726897e+003,1.546116e-002
2.728825e+003,1.569640e-002
2.730754e+003,1.591075e-002
2.732682e+003,1.610841e-002
2.734611e+003,1.618690e-002
2.736539e+003,1.632993e-002
2.738468e+003,1.644051e-002
2.740396e+003,1.646775e-002
2.742325e+003,1.652540e-002
2.744253e+003,1.653063e-002
2.746182e+003,1.646253e-002
2.748110e+003,1.645377e-002
2.750039e+003,1.652543e-002
2.751967e+003,1.665082e-002
2.753896e+003,1.674293e-002
2.755824e+003,1.693402e-002
2.757753e+003,1.725521e-002
2.759681e+003,1.761612e-002
2.761610e+003,1.799835e-002
2.763538e+003,1.844937e-002
2.765467e+003,1.886874e-002
2.767395e+003,1.931174e-002
2.769324e+003,1.980354e-002
2.771252e+003,2.037012e-002
2.773181e+003,2.098902e-002
2.775109e+003,2.171393e-002
2.777038e+003,2.254812e-002
2.778966e+003,2.354533e-002
2.780895e+003,2.461165e-002
2.782823e+003,2.569000e-002
2.784752e+003,2.688698e-002
2.786680e+003,2.830013e-002
2.788609e+003,2.981722e-002
2.790537e+003,3.131765e-002
2.792466e+003,3.293245e-002
2.794394e+003,3.471386e-002
2.796323e+003,3.652282e-002
2.798251e+003,3.839935e-002
2.800180e+003,4.033282e-002
2.802108e+003,4.237325e-002
2.804037e+003,4.460508e-002
2.805965e+003,4.702608e-002
2.807894e+003,4.961717e-002
2.809822e+003,5.250024e-002
2.811751e+003,5.580086e-002
2.813679e+003,5.958401e-002
2.815608e+003,6.398895e-002
2.817536e+003,6.912244e-002
2.819465e+003,7.513712e-002
2.821393e+003,8.224382e-002
2.823322e+003,9.084278e-002
2.825250e+003,1.015175e-001
2.827179e+003,1.150755e-001
2.829107e+003,1.327287e-001
2.831036e+003,1.563157e-001
2.832964e+003,1.888009e-001
2.834893e+003,2.350226e-001
2.836821e+003,3.013276e-001
2.838750e+003,3.973708e-001
2.840678e+003,5.393365e-001
2.842607e+003,7.480266e-001
2.844535e+003,1.033941e+000
2.846464e+003,1.327416e+000
2.848392e+003,1.380591e+000
2.850321e+003,1.117719e+000
2.852249e+003,8.142611e-001
2.854178e+003,6.018301e-001
2.856106e+003,4.621749e-001
2.858035e+003,3.662274e-001
2.859963e+003,2.988547e-001
2.861892e+003,2.521628e-001
2.863820e+003,2.211061e-001
2.865749e+003,2.023740e-001
2.867677e+003,1.930957e-001
2.869606e+003,1.901417e-001
2.871534e+003,1.908788e-001
2.873463e+003,1.952055e-001
2.875391e+003,2.048099e-001
2.877320e+003,2.205808e-001
2.879248e+003,2.421238e-001
2.881177e+003,2.684483e-001
2.883105e+003,2.984948e-001
2.885034e+003,3.317315e-001
2.886962e+003,3.676024e-001
2.888891e+003,4.051366e-001
2.890819e+003,4.433579e-001
2.892748e+003,4.817098e-001
2.894676e+003,5.198056e-001
2.896605e+003,5.585579e-001
2.898533e+003,5.995932e-001
2.900462e+003,6.455433e-001
2.902390e+003,7.009649e-001
2.904319e+003,7.726318e-001
2.906247e+003,8.695111e-001
2.908176e+003,1.001914e+000
2.910104e+003,1.175859e+000
2.912033e+003,1.374812e+000
2.913961e+003,1.527756e+000
2.915890e+003,1.531746e+000
2.917818e+003,1.375590e+000
2.919747e+003,1.157300e+000
2.921675e+003,9.539832e-001
2.923604e+003,7.892758e-001
2.925532e+003,6.611539e-001
2.927461e+003,5.597721e-001
2.929389e+003,4.764931e-001
2.931318e+003,4.061820e-001
2.933246e+003,3.462083e-001
2.935175e+003,2.950745e-001
2.937103e+003,2.514074e-001
2.939032e+003,2.141953e-001
2.940960e+003,1.830061e-001
2.942889e+003,1.575333e-001
2.944817e+003,1.376407e-001
2.946746e+003,1.231194e-001
2.948674e+003,1.134447e-001
2.950603e+003,1.071663e-001
2.952531e+003,1.024696e-001
2.954460e+003,9.791398e-002
2.956388e+003,9.304456e-002
2.958317e+003,8.773489e-002
2.960245e+003,8.188828e-002
2.962174e+003,7.553446e-002
2.964102e+003,6.893721e-002
2.966031e+003,6.229338e-002
2.967959e+003,5.597130e-002
2.969888e+003,5.011070e-002
2.971816e+003,4.476316e-002
2.973745e+003,4.010060e-002
2.975673e+003,3.616814e-002
2.977602e+003,3.284665e-002
2.979530e+003,3.006528e-002
2.981459e+003,2.774289e-002
2.983387e+003,2.582908e-002
2.985316e+003,2.419372e-002
2.987244e+003,2.284622e-002
2.989173e+003,2.179179e-002
2.991101e+003,2.087284e-002
2.993030e+003,2.006619e-002
2.994958e+003,1.940488e-002
2.996887e+003,1.892453e-002
2.998815e+003,1.862526e-002
3.000744e+003,1.836821e-002
3.002672e+003,1.807320e-002
3.004601e+003,1.772006e-002
3.006529e+003,1.729577e-002
3.008458e+003,1.680724e-002
3.010386e+003,1.628958e-002
3.012315e+003,1.565041e-002
3.014243e+003,1.503371e-002
3.016172e+003,1.449597e-002
3.018100e+003,1.416435e-002
3.020029e+003,1.383086e-002
3.021957e+003,1.335298e-002
3.023886e+003,1.291850e-002
3.025814e+003,1.259336e-002
3.027743e+003,1.225518e-002
3.029671e+003,1.196910e-002
3.031600e+003,1.168478e-002
3.033528e+003,1.136440e-002
3.035457e+003,1.100579e-002
3.037385e+003,1.069051e-002
3.039314e+003,1.030307e-002
3.041242e+003,9.936258e-003
3.043171e+003,9.637646e-003
3.045099e+003,9.343117e-003
3.047028e+003,9.140469e-003
3.048956e+003,8.913249e-003
3.050885e+003,8.606732e-003
3.052813e+003,8.405954e-003
3.054742e+003,8.182414e-003
3.056670e+003,8.043610e-003
3.058599e+003,7.914275e-003
3.060527e+003,7.709205e-003
3.062456e+003,7.485434e-003
3.064384e+003,7.401131e-003
3.066313e+003,7.342294e-003
3.068241e+003,7.242478e-003
3.070170e+003,7.107541e-003
3.072098e+003,6.965928e-003
3.074027e+003,6.818429e-003
3.075955e+003,6.698236e-003
3.077884e+003,6.585307e-003
3.079812e+003,6.542929e-003
3.081741e+003,6.487973e-003
3.083669e+003,6.337158e-003
3.085598e+003,6.138384e-003
3.087526e+003,5.924977e-003
3.089455e+003,5.689390e-003
3.091383e+003,5.395375e-003
3.093312e+003,5.009733e-003
3.095240e+003,4.720747e-003
3.097169e+003,4.601724e-003
3.099097e+003,4.427992e-003
3.101026e+003,4.167557e-003
3.102954e+003,3.960095e-003
3.104883e+003,3.694206e-003
3.106811e+003,3.555536e-003
3.108740e+003,3.522187e-003
3.110668e+003,3.462709e-003
3.112597e+003,3.414318e-003
3.114525e+003,3.290616e-003
3.116454e+003,3.167115e-003
3.118382e+003,3.093854e-003
3.120311e+003,2.964482e-003
3.122239e+003,2.858244e-003
3.124168e+003,2.888955e-003
3.126096e+003,2.856642e-003
3.128025e+003,2.765022e-003
3.129953e+003,2.673507e-003
3.131882e+003,2.619006e-003
3.133810e+003,2.703279e-003
3.135739e+003,2.719253e-003
3.137667e+003,2.645209e-003
3.139596e+003,2.550960e-003
3.141524e+003,2.540514e-003
3.143453e+003,2.549522e-003
3.145381e+003,2.576344e-003
3.147310e+003,2.571642e-003
3.149238e+003,2.618797e-003
3.151167e+003,2.553485e-003
3.153095e+003,2.488874e-003
3.155024e+003,2.417296e-003
3.156952e+003,2.293870e-003
3.158881e+003,2.272189e-003
3.160809e+003,2.336264e-003
3.162738e+003,2.388760e-003
3.164666e+003,2.349958e-003
3.166594e+003,2.408877e-003
3.168523e+003,2.506323e-003
3.170452e+003,2.522685e-003
3.172380e+003,2.422050e-003
3.174309e+003,2.405636e-003
3.176237e+003,2.572335e-003
3.178166e+003,2.718307e-003
3.180094e+003,2.692603e-003
3.182022e+003,2.652109e-003
3.183951e+003,2.621382e-003
3.185880e+003,2.630793e-003
3.187808e+003,2.655506e-003
3.189737e+003,2.704240e-003
3.191665e+003,2.649769e-003
3.193594e+003,2.558753e-003
3.195522e+003,2.588615e-003
3.197450e+003,2.617024e-003
3.199379e+003,2.565205e-003
3.201308e+003,2.523899e-003
3.203236e+003,2.512120e-003
3.205165e+003,2.524100e-003
3.207093e+003,2.591565e-003
3.209021e+003,2.711423e-003
3.210950e+003,2.673835e-003
3.212878e+003,2.594538e-003
3.214807e+003,2.642259e-003
3.216736e+003,2.689950e-003
3.218664e+003,2.660535e-003
3.220593e+003,2.573147e-003
3.222521e+003,2.554253e-003
3.224449e+003,2.615713e-003
3.226378e+003,2.597250e-003
3.228307e+003,2.583981e-003
3.230235e+003,2.570316e-003
3.232164e+003,2.577595e-003
3.234092e+003,2.632044e-003
3.236021e+003,2.739049e-003
3.237949e+003,2.747595e-003
3.239877e+003,2.759762e-003
3.241806e+003,2.777368e-003
3.243735e+003,2.807312e-003
3.245663e+003,2.863705e-003
3.247592e+003,2.961338e-003
3.249520e+003,3.018782e-003
3.251448e+003,3.008619e-003
3.253377e+003,3.069796e-003
3.255305e+003,3.180481e-003
3.257234e+003,3.195710e-003
3.259163e+003,3.142029e-003
3.261091e+003,3.144376e-003
3.263020e+003,3.181584e-003
3.264948e+003,3.233910e-003
3.266876e+003,3.243543e-003
3.268805e+003,3.368035e-003
3.270733e+003,3.491484e-003
3.272662e+003,3.422208e-003
3.274591e+003,3.312029e-003
3.276519e+003,3.423661e-003
3.278448e+003,3.503345e-003
3.280376e+003,3.497645e-003
3.282304e+003,3.475092e-003
3.284233e+003,3.462292e-003
3.286161e+003,3.362529e-003
3.288090e+003,3.272541e-003
3.290019e+003,3.324434e-003
3.291947e+003,3.387108e-003
3.293875e+003,3.413498e-003
3.295804e+003,3.445357e-003
3.297732e+003,3.506064e-003
3.299661e+003,3.467031e-003
3.301589e+003,3.368661e-003
3.303518e+003,3.350317e-003
3.305447e+003,3.370568e-003
3.307375e+003,3.385641e-003
3.309303e+003,3.415316e-003
3.311232e+003,3.441684e-003
3.313160e+003,3.434367e-003
3.315089e+003,3.424272e-003
3.317018e+003,3.360800e-003
3.318946e+003,3.350057e-003
3.320875e+003,3.380597e-003
3.322803e+003,3.337085e-003
3.324731e+003,3.216781e-003
3.326660e+003,3.181465e-003
3.328588e+003,3.176294e-003
3.330517e+003,3.153555e-003
3.332446e+003,3.123507e-003
3.334374e+003,3.174193e-003
3.336302e+003,3.298238e-003
3.338231e+003,3.361516e-003
3.340159e+003,3.274269e-003
3.342088e+003,3.182232e-003
3.344016e+003,3.205046e-003
3.345945e+003,3.122218e-003
3.347874e+003,3.141142e-003
3.349802e+003,3.133439e-003
3.351730e+003,3.061354e-003
3.353659e+003,2.978101e-003
3.355587e+003,2.956815e-003
3.357516e+003,2.978340e-003
3.359444e+003,3.035977e-003
3.361373e+003,3.043100e-003
3.363302e+003,3.043234e-003
3.365230e+003,3.127180e-003
3.367158e+003,3.204338e-003
3.369087e+003,3.125601e-003
3.371015e+003,2.954915e-003
3.372944e+003,2.925336e-003
3.374872e+003,2.922125e-003
3.376801e+003,2.906159e-003
3.378729e+003,2.874568e-003
3.380658e+003,2.832159e-003
3.382586e+003,2.854899e-003
3.384515e+003,2.853043e-003
3.386443e+003,2.706051e-003
3.388372e+003,2.651162e-003
3.390300e+003,2.710156e-003
3.392229e+003,2.650574e-003
3.394157e+003,2.478912e-003
3.396086e+003,2.474986e-003
3.398014e+003,2.618581e-003
3.399943e+003,2.589874e-003
3.401871e+003,2.464108e-003
3.403800e+003,2.407216e-003
3.405728e+003,2.419062e-003
3.407657e+003,2.386615e-003
3.409585e+003,2.333716e-003
3.411514e+003,2.367772e-003
3.413442e+003,2.394035e-003
3.415371e+003,2.337359e-003
3.417299e+003,2.269872e-003
3.419228e+003,2.286069e-003
3.421156e+003,2.409019e-003
3.423085e+003,2.332352e-003
3.425013e+003,2.187371e-003
3.426942e+003,2.193093e-003
3.428870e+003,2.168618e-003
3.430799e+003,2.142623e-003
3.432727e+003,2.229720e-003
3.434656e+003,2.169780e-003
3.436584e+003,2.078123e-003
3.438513e+003,2.076507e-003
3.440441e+003,2.110884e-003
3.442370e+003,2.106689e-003
3.444298e+003,1.977123e-003
3.446227e+003,1.872145e-003
3.448155e+003,1.869045e-003
3.450084e+003,1.780525e-003
3.452012e+003,1.805425e-003
3.453941e+003,1.877338e-003
3.455869e+003,1.747839e-003
3.457798e+003,1.648419e-003
3.459726e+003,1.709066e-003
3.461655e+003,1.742266e-003
3.463583e+003,1.686715e-003
3.465512e+003,1.656502e-003
3.467440e+003,1.666874e-003
3.469369e+003,1.668304e-003
3.471297e+003,1.568519e-003
3.473226e+003,1.413561e-003
3.475154e+003,1.382619e-003
3.477083e+003,1.329966e-003
3.479011e+003,1.294062e-003
3.480940e+003,1.298755e-003
3.482868e+003,1.382872e-003
3.484797e+003,1.300037e-003
3.486725e+003,1.266144e-003
3.488654e+003,1.259297e-003
3.490582e+003,1.160011e-003
3.492511e+003,1.146227e-003
3.494439e+003,1.188725e-003
3.496368e+003,1.211137e-003
3.498296e+003,1.163021e-003
3.500225e+003,1.151197e-003
3.502153e+003,1.264513e-003
3.504082e+003,1.220480e-003
3.506010e+003,9.399354e-004
3.507939e+003,8.418262e-004
3.509867e+003,9.335577e-004
3.511796e+003,8.760318e-004
3.513724e+003,7.909164e-004
3.515653e+003,7.481202e-004
3.517581e+003,7.499605e-004
3.519510e+003,6.336272e-004
3.521438e+003,5.063564e-004
3.523367e+003,6.888807e-004
3.525295e+003,6.559938e-004
3.527224e+003,4.780069e-004
3.529152e+003,5.612746e-004
3.531081e+003,4.267544e-004
3.533009e+003,2.009496e-004
3.534938e+003,2.625659e-004
3.536866e+003,4.590228e-004
3.538795e+003,3.711358e-004
3.540723e+003,1.906753e-004
3.542652e+003,3.434718e-005
3.544580e+003,1.370907e-004
3.546509e+003,2.759993e-004
3.548437e+003,1.630038e-004
3.550366e+003,3.617257e-005
3.552294e+003,1.165271e-004
3.554223e+003,1.127422e-004
3.556151e+003,2.205372e-005
3.558080e+003,-1.177266e-004
3.560008e+003,-2.268478e-004
3.561937e+003,-3.723875e-004
3.563865e+003,-5.167946e-004
3.565794e+003,-4.032105e-004
3.567722e+003,1.974702e-004
3.569651e+003,1.279265e-004
3.571579e+003,-2.362654e-004
3.573508e+003,-3.642663e-004
3.575436e+003,-2.873763e-004
3.577365e+003,-2.103075e-004
3.579293e+003,-3.204718e-004
3.581222e+003,-5.711317e-004
3.583150e+003,-7.988662e-004
3.585079e+003,-8.820668e-004
3.587007e+003,-2.122149e-004
3.588936e+003,2.994761e-004
3.590864e+003,1.822561e-004
3.592793e+003,1.426637e-004
3.594721e+003,4.668608e-004
3.596650e+003,9.040236e-004
3.598578e+003,1.322292e-003
3.600507e+003,1.766689e-003
3.602435e+003,1.842141e-003
3.604364e+003,1.489259e-003
3.606292e+003,1.162171e-003
3.608221e+003,1.384564e-003
3.610149e+003,1.277775e-003
3.612078e+003,8.445308e-004
3.614006e+003,6.178170e-004
3.615935e+003,1.709908e-004
3.617863e+003,1.204684e-004
3.619792e+003,7.048845e-004
3.621720e+003,5.609468e-004
3.623649e+003,-6.955862e-005
3.625577e+003,-5.984381e-004
3.627506e+003,-1.267545e-003
3.629434e+003,-7.124990e-005
3.631363e+003,4.294664e-004
3.633291e+003,1.088530e-004
3.635220e+003,4.172325e-006
3.637148e+003,-2.786517e-005
3.639077e+003,5.830824e-005
3.641005e+003,4.216284e-005
3.642934e+003,-1.150668e-004
3.644862e+003,-7.519200e-004
3.646791e+003,-1.889400e-003
3.648719e+003,-1.871921e-003
3.650648e+003,-1.793355e-004
3.652576e+003,-6.563962e-005
3.654505e+003,-7.796064e-004
3.656433e+003,-6.778017e-004
3.658362e+003,-1.780763e-004
3.660290e+003,-2.046898e-004
3.662219e+003,-4.396737e-004
3.664147e+003,-7.426441e-004
3.666076e+003,-1.096234e-003
3.668004e+003,-1.821481e-003
3.669933e+003,-1.936518e-003
3.671861e+003,-1.715928e-003
3.673790e+003,-2.728820e-003
3.675718e+003,-1.950085e-003
3.677647e+003,-4.239753e-004
3.679575e+003,-4.754812e-004
3.681504e+003,-6.329492e-004
3.683432e+003,-8.839890e-004
3.685361e+003,-1.277469e-003
3.687289e+003,-1.989089e-003
3.689218e+003,-1.879074e-003
3.691146e+003,-8.963048e-004
3.693075e+003,-6.926283e-004
3.695003e+003,-8.616522e-004
3.696932e+003,-1.038998e-003
3.698860e+003,-1.311645e-003
3.700789e+003,-1.238085e-003
3.702717e+003,-5.616322e-004
3.704646e+003,-4.980266e-004
3.706574e+003,-8.612424e-004
3.708503e+003,-1.410797e-003
3.710431e+003,-1.347855e-003
3.712360e+003,-4.528388e-004
3.714288e+003,-3.238916e-004
3.716217e+003,-7.511526e-004
3.718145e+003,-9.939000e-004
3.720074e+003,-1.178719e-003
3.722002e+003,-1.091644e-003
3.723931e+003,-7.663742e-004
3.725859e+003,-5.023405e-004
3.727788e+003,-6.075874e-004
3.729716e+003,-1.146421e-003
3.731645e+003,-1.860201e-003
3.733573e+003,-1.882300e-003
3.735502e+003,-9.680763e-004
3.737430e+003,-2.768636e-004
3.739359e+003,-5.644709e-004
3.741287e+003,-1.212738e-003
3.743216e+003,-2.276525e-003
3.745144e+003,-1.479857e-003
3.747073e+003,-1.329362e-003
3.749001e+003,-2.240442e-003
3.750930e+003,-1.414195e-003
3.752858e+003,-1.470596e-004
3.754787e+003,-3.012121e-004
3.756715e+003,-7.613152e-004
3.758644e+003,-7.109344e-004
3.760572e+003,-2.771169e-004
3.762501e+003,-4.984438e-004
3.764429e+003,-9.070337e-004
3.766358e+003,-9.255111e-004
3.768286e+003,-8.064806e-004
3.770215e+003,-2.849996e-004
3.772143e+003,-1.444072e-004
3.774072e+003,-4.608035e-004
3.776000e+003,-7.379949e-004
3.777929e+003,-7.102191e-004
3.779857e+003,-2.817512e-004
3.781786e+003,-2.294928e-004
3.783714e+003,-2.710074e-004
3.785643e+003,-7.964671e-005
3.787571e+003,-1.096278e-004
3.789500e+003,-2.210289e-004
3.791428e+003,-2.420247e-004
3.793357e+003,-3.941953e-004
3.795285e+003,-6.081760e-004
3.797214e+003,-5.000383e-004
3.799142e+003,-7.970631e-004
3.801071e+003,-5.221963e-004
3.802999e+003,3.182292e-004
3.804927e+003,-1.484454e-004
3.806856e+003,1.286566e-004
3.808785e+003,5.189180e-004
3.810713e+003,1.859516e-004
3.812642e+003,-2.451539e-004
3.814570e+003,-7.321239e-004
3.816499e+003,-3.687888e-004
3.818427e+003,-2.049804e-004
3.820355e+003,-1.216829e-004
3.822284e+003,8.476973e-004
3.824213e+003,7.172972e-004
3.826141e+003,5.559176e-004
3.828070e+003,2.956986e-004
3.829998e+003,-2.835691e-005
3.831927e+003,-9.959936e-005
3.833855e+003,-5.140901e-006
3.835783e+003,3.054738e-006
3.837712e+003,4.270673e-005
3.839641e+003,2.766848e-004
3.841569e+003,4.480481e-004
3.843498e+003,6.881505e-004
3.845426e+003,5.635023e-004
3.847354e+003,6.130338e-005
3.849283e+003,-5.949438e-004
3.851211e+003,-1.715690e-003
3.853140e+003,-1.635447e-003
3.855069e+003,7.532388e-004
3.856997e+003,8.368492e-004
3.858926e+003,1.438260e-004
3.860854e+003,-2.978295e-004
3.862782e+003,-2.589226e-004
3.864711e+003,1.817048e-004
3.866640e+003,2.843142e-004
3.868568e+003,-7.635355e-005
3.870497e+003,5.177259e-004
3.872425e+003,9.641200e-004
3.874354e+003,1.109689e-003
3.876282e+003,6.677508e-004
3.878210e+003,-7.465482e-006
3.880139e+003,-3.731251e-005
3.882068e+003,4.605502e-004
3.883996e+003,4.812479e-004
3.885925e+003,7.690936e-004
3.887853e+003,4.653484e-004
3.889781e+003,2.629012e-004
3.891710e+003,9.219944e-004
3.893638e+003,1.007438e-003
3.895567e+003,5.730838e-004
3.897496e+003,2.429783e-004
3.899424e+003,2.351403e-004
3.901353e+003,4.013926e-004
3.903281e+003,8.708388e-004
3.905209e+003,1.394063e-003
3.907138e+003,1.209632e-003
3.909066e+003,8.247942e-004
3.910995e+003,5.952716e-004
3.912924e+003,4.210621e-004
3.914852e+003,4.100353e-004
3.916781e+003,5.794317e-004
3.918709e+003,6.806403e-004
3.920637e+003,6.215572e-004
3.922566e+003,5.945712e-004
3.924494e+003,7.180125e-004
3.926423e+003,6.291419e-004
3.928352e+003,4.326999e-004
3.930280e+003,3.775656e-004
3.932208e+003,6.144941e-004
3.934137e+003,7.200390e-004
3.936065e+003,5.185753e-004
3.937994e+003,4.135668e-004
3.939922e+003,2.771020e-004
3.941851e+003,4.505962e-004
3.943780e+003,5.520433e-004
3.945708e+003,2.906322e-004
3.947636e+003,3.550649e-004
3.949565e+003,4.474372e-004
3.951493e+003,3.274083e-004
3.953422e+003,2.814829e-004
3.955351e+003,2.336800e-004
3.957279e+003,1.326650e-004
3.959208e+003,2.412796e-004
3.961136e+003,5.038381e-004
3.963064e+003,4.540086e-004
3.964993e+003,1.654327e-004
3.966921e+003,8.700788e-005
3.968850e+003,1.625717e-004
3.970779e+003,1.621395e-004
3.972707e+003,2.318621e-004
3.974635e+003,3.473312e-004
3.976564e+003,4.261881e-004
3.978492e+003,2.803653e-004
3.980421e+003,1.566559e-004
3.982349e+003,2.434999e-004
3.984278e+003,3.207028e-004
3.986207e+003,1.971424e-004
3.988135e+003,2.256781e-004
3.990063e+003,2.841353e-004
3.991992e+003,1.913458e-004
3.993920e+003,1.145154e-004
3.995849e+003,1.246184e-004
3.997777e+003,5.124509e-005
3.999706e+003,8.323789e-005
4.001635e+003,0.000000e+000
