3.991992e+002,0.000000e+000
4.011277e+002,0.000000e+000
4.030562e+002,0.000000e+000
4.049846e+002,0.000000e+000
4.069131e+002,0.000000e+000
4.088416e+002,0.000000e+000
4.107701e+002,0.000000e+000
4.126986e+002,0.000000e+000
4.146271e+002,0.000000e+000
4.165556e+002,0.000000e+000
4.184841e+002,0.000000e+000
4.204126e+002,0.000000e+000
4.223411e+002,0.000000e+000
4.242697e+002,0.000000e+000
4.261982e+002,0.000000e+000
4.281266e+002,0.000000e+000
4.300551e+002,0.000000e+000
4.319836e+002,0.000000e+000
4.339121e+002,0.000000e+000
4.358406e+002,0.000000e+000
4.377691e+002,0.000000e+000
4.396976e+002,0.000000e+000
4.416261e+002,0.000000e+000
4.435546e+002,0.000000e+000
4.454831e+002,0.000000e+000
4.474116e+002,0.000000e+000
4.493401e+002,0.000000e+000
4.512686e+002,0.000000e+000
4.531971e+002,0.000000e+000
4.551256e+002,0.000000e+000
4.570541e+002,0.000000e+000
4.589826e+002,0.000000e+000
4.609111e+002,0.000000e+000
4.628396e+002,0.000000e+000
4.647681e+002,0.000000e+000
4.666966e+002,0.000000e+000
4.686251e+002,0.000000e+000
4.705536e+002,0.000000e+000
4.724821e+002,0.000000e+000
4.744106e+002,0.000000e+000
4.763391e+002,0.000000e+000
4.782676e+002,0.000000e+000
4.801961e+002,0.000000e+000
4.821246e+002,0.000000e+000
4.840531e+002,0.000000e+000
4.859816e+002,0.000000e+000
4.879101e+002,0.000000e+000
4.898386e+002,0.000000e+000
4.917671e+002,0.000000e+000
4.936956e+002,0.000000e+000
4.956241e+002,0.000000e+000
4.975526e+002,0.000000e+000
4.994811e+002,0.000000e+000
5.014096e+002,0.000000e+000
5.033381e+002,0.000000e+000
5.052666e+002,0.000000e+000
5.071951e+002,0.000000e+000
5.091236e+002,0.000000e+000
5.110521e+002,0.000000e+000
5.129806e+002,0.000000e+000
5.149091e+002,0.000000e+000
5.168376e+002,0.000000e+000
5.187661e+002,0.000000e+000
5.206946e+002,0.000000e+000
5.226230e+002,0.000000e+000
5.245516e+002,-5.602050e-004
5.264800e+002,-8.087861e-004
5.284086e+002,-7.904463e-004
5.303370e+002,-7.465908e-004
5.322656e+002,-6.486760e-004
5.341940e+002,-5.373720e-004
5.361226e+002,-4.275653e-004
5.380510e+002,-4.726567e-004
5.399796e+002,-4.343980e-004
5.419081e+002,-4.777682e-004
5.438365e+002,-6.353396e-004
5.457650e+002,-7.952082e-004
5.476935e+002,-7.373423e-004
5.496221e+002,-6.286905e-004
5.515505e+002,-6.203384e-004
5.534790e+002,-5.549982e-004
5.554075e+002,-3.728590e-004
5.573361e+002,-3.776737e-004
5.592645e+002,-6.206778e-004
5.611931e+002,-7.298980e-004
5.631215e+002,-6.498259e-004
5.650500e+002,-7.487447e-004
5.669785e+002,-8.159815e-004
5.689070e+002,-6.756694e-004
5.708355e+002,-5.370565e-004
5.727640e+002,-6.595103e-004
5.746925e+002,-8.424674e-004
5.766210e+002,-9.472794e-004
5.785495e+002,-9.887407e-004
5.804780e+002,-1.002275e-003
5.824065e+002,-8.041927e-004
5.843350e+002,-7.783574e-004
5.862635e+002,-7.466932e-004
5.881920e+002,-7.335602e-004
5.901205e+002,-8.416185e-004
5.920490e+002,-8.950791e-004
5.939775e+002,-8.260478e-004
5.959060e+002,-7.907054e-004
5.978345e+002,-8.021618e-004
5.997630e+002,-8.456912e-004
6.016915e+002,-6.442091e-004
6.036200e+002,-5.614639e-004
6.055485e+002,-4.733119e-004
6.074770e+002,-4.679672e-004
6.094055e+002,-6.104070e-004
6.113340e+002,-7.578603e-004
6.132625e+002,-7.623761e-004
6.151910e+002,-8.399814e-004
6.171195e+002,-8.600737e-004
6.190480e+002,-7.815694e-004
6.209765e+002,-7.274323e-004
6.229050e+002,-7.109208e-004
6.248335e+002,-6.782804e-004
6.267620e+002,-6.492108e-004
6.286905e+002,-5.420644e-004
6.306190e+002,-5.104279e-004
6.325475e+002,-5.356537e-004
6.344760e+002,-4.939099e-004
6.364045e+002,-4.227173e-004
6.383330e+002,-4.066306e-004
6.402615e+002,-2.479828e-004
6.421899e+002,-2.809416e-004
6.441185e+002,-3.044417e-004
6.460470e+002,-1.944155e-004
6.479755e+002,-2.070647e-004
6.499039e+002,-2.213835e-004
6.518325e+002,-1.409831e-004
6.537610e+002,-1.748328e-004
6.556895e+002,-1.318499e-004
6.576179e+002,-2.456550e-005
6.595464e+002,8.376921e-005
6.614750e+002,4.586810e-005
6.634034e+002,2.193614e-005
6.653319e+002,7.388950e-005
6.672604e+002,3.487372e-004
6.691890e+002,4.321109e-004
6.711174e+002,3.548299e-004
6.730460e+002,3.365004e-004
6.749745e+002,4.382923e-004
6.769030e+002,5.489301e-004
6.788314e+002,7.190013e-004
6.807599e+002,7.822465e-004
6.826885e+002,9.265684e-004
6.846169e+002,1.012246e-003
6.865454e+002,1.179786e-003
6.884739e+002,1.434603e-003
6.904025e+002,1.783039e-003
6.923309e+002,2.049084e-003
6.942594e+002,2.463844e-003
6.961879e+002,2.976331e-003
6.981165e+002,3.601425e-003
7.000449e+002,4.425609e-003
7.019734e+002,5.629766e-003
7.039019e+002,7.121200e-003
7.058304e+002,9.255846e-003
7.077589e+002,1.206618e-002
7.096874e+002,1.639256e-002
7.116159e+002,2.349232e-002
7.135444e+002,3.714621e-002
7.154729e+002,6.153054e-002
7.174014e+002,9.316396e-002
7.193299e+002,1.067296e-001
7.212584e+002,8.186720e-002
7.231869e+002,5.577189e-002
7.251154e+002,4.689693e-002
7.270439e+002,5.202854e-002
7.289724e+002,6.648596e-002
7.309009e+002,6.123929e-002
7.328294e+002,3.466900e-002
7.347579e+002,1.785267e-002
7.366864e+002,1.180033e-002
7.386149e+002,9.093666e-003
7.405434e+002,7.445574e-003
7.424719e+002,6.483429e-003
7.444004e+002,5.709380e-003
7.463289e+002,5.151012e-003
7.482574e+002,4.625402e-003
7.501859e+002,4.210285e-003
7.521144e+002,3.892985e-003
7.540428e+002,3.744885e-003
7.559714e+002,3.457114e-003
7.578999e+002,3.231882e-003
7.598284e+002,3.118246e-003
7.617568e+002,3.034312e-003
7.636854e+002,3.018364e-003
7.656139e+002,2.981257e-003
7.675424e+002,2.880501e-003
7.694709e+002,2.802618e-003
7.713994e+002,2.717920e-003
7.733279e+002,2.567261e-003
7.752563e+002,2.444816e-003
7.771849e+002,2.394610e-003
7.791134e+002,2.309456e-003
7.810419e+002,2.238988e-003
7.829703e+002,2.156858e-003
7.848989e+002,1.986948e-003
7.868274e+002,1.935201e-003
7.887559e+002,1.891761e-003
7.906843e+002,1.844913e-003
7.926129e+002,1.871081e-003
7.945414e+002,1.897996e-003
7.964698e+002,1.932204e-003
7.983983e+002,1.973283e-003
8.003268e+002,1.980121e-003
8.022554e+002,1.965120e-003
8.041838e+002,1.889052e-003
8.061123e+002,1.788436e-003
8.080408e+002,1.684271e-003
8.099694e+002,1.595964e-003
8.118978e+002,1.554868e-003
8.138263e+002,1.534857e-003
8.157548e+002,1.445821e-003
8.176833e+002,1.315954e-003
8.196118e+002,1.184946e-003
8.215403e+002,1.138168e-003
8.234689e+002,1.058563e-003
8.253973e+002,1.047657e-003
8.273258e+002,9.894758e-004
8.292543e+002,9.185846e-004
8.311829e+002,8.926871e-004
8.331113e+002,8.646934e-004
8.350398e+002,8.616871e-004
8.369683e+002,8.731550e-004
8.388969e+002,7.703395e-004
8.408253e+002,7.234768e-004
8.427538e+002,8.536067e-004
8.446823e+002,9.547570e-004
8.466108e+002,9.280615e-004
8.485393e+002,9.483497e-004
8.504678e+002,9.321796e-004
8.523963e+002,9.078223e-004
8.543248e+002,9.403941e-004
8.562533e+002,9.943801e-004
8.581818e+002,9.373948e-004
8.601103e+002,9.186168e-004
8.620388e+002,9.631836e-004
8.639673e+002,1.032095e-003
8.658958e+002,1.046803e-003
8.678243e+002,1.024194e-003
8.697528e+002,1.014078e-003
8.716813e+002,1.078201e-003
8.736098e+002,1.152723e-003
8.755383e+002,1.251857e-003
8.774668e+002,1.264339e-003
8.793953e+002,1.376036e-003
8.813238e+002,1.574264e-003
8.832523e+002,1.814822e-003
8.851808e+002,2.043877e-003
8.871093e+002,2.241857e-003
8.890378e+002,2.226654e-003
8.909663e+002,2.074755e-003
8.928948e+002,1.933388e-003
8.948232e+002,1.831756e-003
8.967518e+002,1.823335e-003
8.986803e+002,1.730000e-003
9.006088e+002,1.584174e-003
9.025372e+002,1.648101e-003
9.044658e+002,1.841896e-003
9.063943e+002,2.108366e-003
9.083228e+002,2.142899e-003
9.102512e+002,2.094626e-003
9.121797e+002,1.844404e-003
9.141083e+002,1.641396e-003
9.160367e+002,1.546414e-003
9.179653e+002,1.472458e-003
9.198937e+002,1.477343e-003
9.218223e+002,1.470146e-003
9.237507e+002,1.400769e-003
9.256793e+002,1.351362e-003
9.276077e+002,1.416347e-003
9.295363e+002,1.486685e-003
9.314647e+002,1.438699e-003
9.333932e+002,1.469057e-003
9.353217e+002,1.505963e-003
9.372502e+002,1.510010e-003
9.391787e+002,1.499331e-003
9.411072e+002,1.541787e-003
9.430358e+002,1.557413e-003
9.449642e+002,1.560388e-003
9.468928e+002,1.477867e-003
9.488212e+002,1.500855e-003
9.507498e+002,1.543305e-003
9.526782e+002,1.666682e-003
9.546068e+002,1.715619e-003
9.565352e+002,1.751686e-003
9.584637e+002,1.822855e-003
9.603922e+002,1.905801e-003
9.623207e+002,1.974909e-003
9.642492e+002,2.091681e-003
9.661777e+002,2.140921e-003
9.681062e+002,2.156710e-003
9.700347e+002,2.078274e-003
9.719632e+002,2.054578e-003
9.738917e+002,2.041815e-003
9.758202e+002,2.064766e-003
9.777487e+002,2.007552e-003
9.796772e+002,2.024981e-003
9.816057e+002,2.072608e-003
9.835342e+002,2.182509e-003
9.854627e+002,2.311416e-003
9.873912e+002,2.493673e-003
9.893197e+002,2.633579e-003
9.912482e+002,2.721013e-003
9.931767e+002,2.750879e-003
9.951052e+002,2.831987e-003
9.970337e+002,2.912030e-003
9.989622e+002,3.058845e-003
1.000891e+003,3.166774e-003
1.002819e+003,3.288137e-003
1.004748e+003,3.524219e-003
1.006676e+003,3.756905e-003
1.008605e+003,3.924949e-003
1.010533e+003,4.199537e-003
1.012462e+003,4.476458e-003
1.014390e+003,4.780912e-003
1.016319e+003,5.006448e-003
1.018247e+003,5.118961e-003
1.020176e+003,5.064703e-003
1.022104e+003,5.032784e-003
1.024033e+003,4.990789e-003
1.025961e+003,4.970190e-003
1.027890e+003,4.961972e-003
1.029818e+003,5.065403e-003
1.031747e+003,5.105049e-003
1.033675e+003,5.173841e-003
1.035604e+003,5.222742e-003
1.037532e+003,5.278154e-003
1.039461e+003,5.327235e-003
1.041389e+003,5.444507e-003
1.043318e+003,5.493038e-003
1.045246e+003,5.530663e-003
1.047175e+003,5.598522e-003
1.049103e+003,5.739217e-003
1.051032e+003,5.757048e-003
1.052960e+003,5.688233e-003
1.054889e+003,5.608240e-003
1.056817e+003,5.660257e-003
1.058746e+003,5.720461e-003
1.060674e+003,5.823998e-003
1.062603e+003,5.860602e-003
1.064531e+003,5.869653e-003
1.066460e+003,5.823828e-003
1.068388e+003,5.835950e-003
1.070317e+003,5.902722e-003
1.072245e+003,6.049432e-003
1.074174e+003,6.164986e-003
1.076102e+003,6.390146e-003
1.078031e+003,6.540919e-003
1.079959e+003,6.653456e-003
1.081888e+003,6.669950e-003
1.083816e+003,6.691699e-003
1.085745e+003,6.644173e-003
1.087673e+003,6.614435e-003
1.089602e+003,6.555232e-003
1.091530e+003,6.549994e-003
1.093459e+003,6.470393e-003
1.095387e+003,6.352903e-003
1.097316e+003,6.253167e-003
1.099244e+003,6.173377e-003
1.101173e+003,6.037649e-003
1.103101e+003,5.933824e-003
1.105030e+003,5.807315e-003
1.106958e+003,5.741304e-003
1.108887e+003,5.617953e-003
1.110815e+003,5.572902e-003
1.112744e+003,5.508096e-003
1.114672e+003,5.483556e-003
1.116601e+003,5.429502e-003
1.118529e+003,5.395867e-003
1.120458e+003,5.282404e-003
1.122386e+003,5.225429e-003
1.124315e+003,5.125655e-003
1.126243e+003,5.056168e-003
1.128172e+003,5.029464e-003
1.130100e+003,5.104360e-003
1.132029e+003,5.115084e-003
1.133957e+003,5.198434e-003
1.135885e+003,5.284584e-003
1.137814e+003,5.405602e-003
1.139743e+003,5.538497e-003
1.141671e+003,5.713029e-003
1.143600e+003,5.837880e-003
1.145528e+003,6.063961e-003
1.147457e+003,6.355342e-003
1.149385e+003,6.731980e-003
1.151314e+003,7.150983e-003
1.153242e+003,7.647160e-003
1.155171e+003,8.027799e-003
1.157099e+003,8.372182e-003
1.159028e+003,8.570494e-003
1.160956e+003,8.691677e-003
1.162885e+003,8.670261e-003
1.164813e+003,8.561349e-003
1.166742e+003,8.251385e-003
1.168670e+003,7.952614e-003
1.170599e+003,7.580869e-003
1.172527e+003,7.212007e-003
1.174456e+003,6.836421e-003
1.176384e+003,6.590751e-003
1.178313e+003,6.240099e-003
1.180241e+003,5.937973e-003
1.182170e+003,5.677368e-003
1.184098e+003,5.573124e-003
1.186027e+003,5.505903e-003
1.187955e+003,5.530208e-003
1.189884e+003,5.503272e-003
1.191812e+003,5.518174e-003
1.193740e+003,5.529744e-003
1.195669e+003,5.644257e-003
1.197598e+003,5.749769e-003
1.199526e+003,5.886520e-003
1.201455e+003,6.045430e-003
1.203383e+003,6.283964e-003
1.205312e+003,6.512389e-003
1.207240e+003,6.827946e-003
1.209168e+003,7.101915e-003
1.211097e+003,7.401458e-003
1.213026e+003,7.668656e-003
1.214954e+003,7.979123e-003
1.216883e+003,8.235774e-003
1.218811e+003,8.538501e-003
1.220740e+003,8.804930e-003
1.222668e+003,9.055836e-003
1.224596e+003,9.231673e-003
1.226525e+003,9.461044e-003
1.228453e+003,9.633304e-003
1.230382e+003,9.832661e-003
1.232311e+003,1.000258e-002
1.234239e+003,1.017480e-002
1.236167e+003,1.023953e-002
1.238096e+003,1.028694e-002
1.240025e+003,1.018624e-002
1.241953e+003,1.003777e-002
1.243882e+003,9.761469e-003
1.245810e+003,9.508641e-003
1.247739e+003,9.172871e-003
1.249667e+003,8.892515e-003
1.251595e+003,8.579947e-003
1.253524e+003,8.382531e-003
1.255453e+003,8.225630e-003
1.257381e+003,8.159625e-003
1.259310e+003,8.042471e-003
1.261238e+003,7.928805e-003
1.263167e+003,7.691086e-003
1.265095e+003,7.472734e-003
1.267023e+003,7.211427e-003
1.268952e+003,7.066254e-003
1.270880e+003,6.913360e-003
1.272809e+003,6.920463e-003
1.274738e+003,6.931486e-003
1.276666e+003,7.001277e-003
1.278594e+003,6.999091e-003
1.280523e+003,7.117080e-003
1.282451e+003,7.245541e-003
1.284380e+003,7.386468e-003
1.286308e+003,7.499326e-003
1.288237e+003,7.757831e-003
1.290166e+003,8.055753e-003
1.292094e+003,8.420568e-003
1.294022e+003,8.747095e-003
1.295951e+003,9.162840e-003
1.297879e+003,9.465749e-003
1.299808e+003,9.722400e-003
1.301736e+003,9.794784e-003
1.303665e+003,9.831480e-003
1.305594e+003,9.741241e-003
1.307522e+003,9.623025e-003
1.309450e+003,9.343405e-003
1.311379e+003,9.045162e-003
1.313307e+003,8.602654e-003
1.315236e+003,8.252195e-003
1.317164e+003,7.814518e-003
1.319093e+003,7.457940e-003
1.321021e+003,7.078547e-003
1.322950e+003,6.838456e-003
1.324878e+003,6.606815e-003
1.326807e+003,6.513019e-003
1.328735e+003,6.408248e-003
1.330664e+003,6.517356e-003
1.332592e+003,6.811079e-003
1.334521e+003,7.326783e-003
1.336449e+003,7.826899e-003
1.338378e+003,8.513580e-003
1.340306e+003,9.211794e-003
1.342235e+003,9.821931e-003
1.344163e+003,1.029055e-002
1.346092e+003,1.096798e-002
1.348021e+003,1.162908e-002
1.349949e+003,1.230151e-002
1.351877e+003,1.259022e-002
1.353806e+003,1.264004e-002
1.355734e+003,1.245473e-002
1.357663e+003,1.254127e-002
1.359591e+003,1.286876e-002
1.361520e+003,1.355262e-002
1.363448e+003,1.469997e-002
1.365377e+003,1.602198e-002
1.367305e+003,1.692706e-002
1.369234e+003,1.742176e-002
1.371162e+003,1.724429e-002
1.373091e+003,1.746974e-002
1.375019e+003,1.939979e-002
1.376948e+003,2.105064e-002
1.378876e+003,1.942742e-002
1.380805e+003,1.513061e-002
1.382733e+003,1.092264e-002
1.384662e+003,8.395707e-003
1.386590e+003,6.765625e-003
1.388519e+003,6.022790e-003
1.390447e+003,5.610048e-003
1.392376e+003,5.487976e-003
1.394304e+003,5.131692e-003
1.396233e+003,5.146674e-003
1.398161e+003,5.050807e-003
1.400090e+003,5.352494e-003
1.402018e+003,5.371542e-003
1.403947e+003,5.503526e-003
1.405875e+003,5.427451e-003
1.407804e+003,5.706307e-003
1.409732e+003,5.763391e-003
1.411661e+003,6.163162e-003
1.413589e+003,6.347497e-003
1.415518e+003,6.693902e-003
1.417446e+003,6.688518e-003
1.419375e+003,7.429250e-003
1.421303e+003,7.922053e-003
1.423232e+003,8.897442e-003
1.425160e+003,1.030315e-002
1.427089e+003,1.228705e-002
1.429017e+003,1.460252e-002
1.430946e+003,1.831776e-002
1.432874e+003,2.138159e-002
1.434803e+003,2.426791e-002
1.436731e+003,2.730148e-002
1.438660e+003,3.042302e-002
1.440588e+003,3.227186e-002
1.442517e+003,3.484664e-002
1.444445e+003,3.682734e-002
1.446374e+003,3.949909e-002
1.448302e+003,4.332013e-002
1.450231e+003,4.939128e-002
1.452159e+003,5.808974e-002
1.454088e+003,6.895205e-002
1.456016e+003,7.902629e-002
1.457945e+003,1.018522e-001
1.459873e+003,1.411086e-001
1.461802e+003,1.834645e-001
1.463730e+003,1.890945e-001
1.465659e+003,1.524205e-001
1.467587e+003,1.401579e-001
1.469516e+003,1.390233e-001
1.471444e+003,1.560738e-001
1.473373e+003,1.324976e-001
1.475301e+003,7.128941e-002
1.477230e+003,3.212117e-002
1.479158e+003,2.068293e-002
1.481087e+003,1.494029e-002
1.483015e+003,1.238036e-002
1.484944e+003,1.022819e-002
1.486872e+003,9.310367e-003
1.488801e+003,7.393202e-003
1.490729e+003,7.258926e-003
1.492658e+003,6.505425e-003
1.494586e+003,6.443998e-003
1.496515e+003,5.369696e-003
1.498443e+003,5.430433e-003
1.500372e+003,4.900359e-003
1.502300e+003,5.033925e-003
1.504229e+003,4.421398e-003
1.506157e+003,3.989023e-003
1.508086e+003,2.801022e-003
1.510014e+003,3.716660e-003
1.511943e+003,3.581755e-003
1.513871e+003,3.878927e-003
1.515800e+003,3.443390e-003
1.517728e+003,3.643872e-003
1.519657e+003,3.287556e-003
1.521585e+003,3.401765e-003
1.523514e+003,3.016311e-003
1.525442e+003,3.294802e-003
1.527371e+003,3.122495e-003
1.529299e+003,3.424489e-003
1.531228e+003,3.181546e-003
1.533156e+003,3.206081e-003
1.535085e+003,3.083496e-003
1.537013e+003,3.325772e-003
1.538942e+003,2.901891e-003
1.540870e+003,2.828570e-003
1.542799e+003,2.415835e-003
1.544727e+003,2.782121e-003
1.546656e+003,2.802323e-003
1.548584e+003,2.928260e-003
1.550513e+003,2.790208e-003
1.552441e+003,2.912095e-003
1.554370e+003,2.672281e-003
1.556298e+003,2.744784e-003
1.558227e+003,1.875237e-003
1.560155e+003,2.147940e-003
1.562084e+003,2.394846e-003
1.564012e+003,2.619948e-003
1.565941e+003,2.499091e-003
1.567869e+003,2.515882e-003
1.569798e+003,2.350412e-003
1.571726e+003,2.591926e-003
1.573655e+003,2.485840e-003
1.575583e+003,2.484857e-003
1.577512e+003,2.409961e-003
1.579440e+003,2.605317e-003
1.581369e+003,2.545779e-003
1.583297e+003,2.649316e-003
1.585226e+003,2.628915e-003
1.587154e+003,2.654277e-003
1.589083e+003,2.579269e-003
1.591011e+003,2.708418e-003
1.592940e+003,2.600259e-003
1.594868e+003,2.622010e-003
1.596797e+003,2.614775e-003
1.598725e+003,2.695250e-003
1.600654e+003,2.568969e-003
1.602582e+003,2.613412e-003
1.604511e+003,2.522756e-003
1.606439e+003,2.547872e-003
1.608368e+003,2.478874e-003
1.610296e+003,2.613262e-003
1.612225e+003,2.581269e-003
1.614153e+003,2.588200e-003
1.616082e+003,2.335572e-003
1.618010e+003,2.463690e-003
1.619939e+003,2.474440e-003
1.621867e+003,2.484709e-003
1.623796e+003,2.499746e-003
1.625724e+003,2.726356e-003
1.627653e+003,2.624832e-003
1.629581e+003,2.832505e-003
1.631510e+003,2.974473e-003
1.633438e+003,3.130026e-003
1.635367e+003,2.800084e-003
1.637295e+003,2.879810e-003
1.639224e+003,3.082637e-003
1.641152e+003,3.289590e-003
1.643081e+003,3.189609e-003
1.645009e+003,3.048997e-003
1.646938e+003,2.678223e-003
1.648866e+003,2.996178e-003
1.650795e+003,2.875855e-003
1.652723e+003,2.501189e-003
1.654652e+003,2.599397e-003
1.656580e+003,2.917302e-003
1.658509e+003,2.848138e-003
1.660437e+003,2.849120e-003
1.662366e+003,2.719877e-003
1.664294e+003,2.708354e-003
1.666223e+003,2.455841e-003
1.668151e+003,2.279127e-003
1.670080e+003,2.001173e-003
1.672008e+003,2.039331e-003
1.673937e+003,1.760071e-003
1.675865e+003,1.856199e-003
1.677794e+003,1.998142e-003
1.679722e+003,1.980232e-003
1.681651e+003,1.638665e-003
1.683579e+003,1.354669e-003
1.685508e+003,1.167403e-003
1.687436e+003,1.280576e-003
1.689365e+003,1.293438e-003
1.691293e+003,1.473197e-003
1.693222e+003,1.387272e-003
1.695150e+003,1.295618e-003
1.697079e+003,1.058435e-003
1.699007e+003,9.950302e-004
1.700936e+003,9.636052e-004
1.702864e+003,1.353226e-003
1.704793e+003,1.335366e-003
1.706721e+003,1.567826e-003
1.708650e+003,1.675773e-003
1.710578e+003,1.926591e-003
1.712507e+003,2.080383e-003
1.714435e+003,2.096723e-003
1.716364e+003,1.732878e-003
1.718292e+003,2.144635e-003
1.720221e+003,2.609185e-003
1.722149e+003,2.894541e-003
1.724078e+003,2.892502e-003
1.726006e+003,2.904482e-003
1.727935e+003,2.812364e-003
1.729863e+003,2.872980e-003
1.731792e+003,2.753915e-003
1.733720e+003,2.663541e-003
1.735649e+003,3.190089e-003
1.737577e+003,3.688168e-003
1.739506e+003,4.132465e-003
1.741434e+003,4.761953e-003
1.743363e+003,5.216585e-003
1.745291e+003,5.686542e-003
1.747220e+003,5.715794e-003
1.749148e+003,5.604079e-003
1.751077e+003,4.870623e-003
1.753005e+003,4.223366e-003
1.754934e+003,3.567549e-003
1.756862e+003,2.671713e-003
1.758791e+003,1.904132e-003
1.760719e+003,1.352189e-003
1.762648e+003,6.884888e-004
1.764576e+003,5.690064e-004
1.766505e+003,3.585711e-004
1.768433e+003,2.267435e-004
1.770362e+003,2.072135e-005
1.772290e+003,-8.147128e-005
1.774219e+003,-1.763434e-004
1.776147e+003,-8.551439e-005
1.778076e+003,-5.667389e-005
1.780004e+003,-4.108157e-005
1.781933e+003,-1.998014e-004
1.783861e+003,-2.259950e-004
1.785790e+003,-2.683826e-004
1.787718e+003,-1.057737e-004
1.789646e+003,-2.549986e-004
1.791575e+003,-3.953667e-004
1.793504e+003,-4.873256e-004
1.795432e+003,-3.544969e-004
1.797361e+003,-4.395928e-004
1.799289e+003,-4.750021e-004
1.801218e+003,-5.601762e-004
1.803146e+003,-3.945804e-004
1.805074e+003,-3.651282e-004
1.807003e+003,-3.722751e-004
1.808932e+003,-5.667304e-004
1.810860e+003,-6.902337e-004
1.812789e+003,-8.779245e-004
1.814717e+003,-1.048824e-003
1.816646e+003,-1.259456e-003
1.818574e+003,-8.438866e-004
1.820502e+003,-7.943935e-004
1.822431e+003,-8.110160e-004
1.824360e+003,-8.919027e-004
1.826288e+003,-8.564487e-004
1.828217e+003,-1.235791e-003
1.830145e+003,-1.238954e-003
1.832073e+003,-1.210415e-003
1.834002e+003,-1.181944e-003
1.835931e+003,-1.344654e-003
1.837859e+003,-1.254973e-003
1.839788e+003,-1.336908e-003
1.841716e+003,-1.572632e-003
1.843645e+003,-2.159466e-003
1.845573e+003,-1.918432e-003
1.847501e+003,-1.756060e-003
1.849430e+003,-1.548443e-003
1.851359e+003,-1.474775e-003
1.853287e+003,-1.291445e-003
1.855216e+003,-1.445573e-003
1.857144e+003,-1.492199e-003
1.859073e+003,-1.782758e-003
1.861001e+003,-1.723558e-003
1.862929e+003,-1.702149e-003
1.864858e+003,-1.507550e-003
1.866787e+003,-1.695658e-003
1.868715e+003,-1.868328e-003
1.870644e+003,-1.931744e-003
1.872572e+003,-1.549389e-003
1.874500e+003,-1.608169e-003
1.876429e+003,-1.586089e-003
1.878357e+003,-1.879855e-003
1.880286e+003,-1.939027e-003
1.882215e+003,-2.107886e-003
1.884143e+003,-1.881125e-003
1.886072e+003,-1.817996e-003
1.888000e+003,-1.656366e-003
1.889928e+003,-1.680576e-003
1.891857e+003,-1.342008e-003
1.893785e+003,-1.452558e-003
1.895714e+003,-1.051485e-003
1.897643e+003,-9.917479e-004
1.899571e+003,-1.016714e-003
1.901500e+003,-1.010287e-003
1.903428e+003,-1.003868e-003
1.905356e+003,-9.974604e-004
1.907285e+003,-9.910618e-004
1.909213e+003,-9.846726e-004
1.911142e+003,-9.782923e-004
1.913071e+003,-9.719220e-004
1.914999e+003,-9.655609e-004
1.916927e+003,-9.592096e-004
1.918856e+003,-9.528676e-004
1.920784e+003,-9.465351e-004
1.922713e+003,-9.402123e-004
1.924641e+003,-9.338990e-004
1.926570e+003,-9.275941e-004
1.928499e+003,-9.212999e-004
1.930427e+003,-9.150150e-004
1.932355e+003,-9.087397e-004
1.934284e+003,-9.024735e-004
1.936212e+003,-8.962172e-004
1.938141e+003,-8.899698e-004
1.940070e+003,-8.837320e-004
1.941998e+003,-8.775041e-004
1.943927e+003,-8.712858e-004
1.945855e+003,-8.650770e-004
1.947783e+003,-8.588770e-004
1.949712e+003,-8.526866e-004
1.951640e+003,-8.465062e-004
1.953569e+003,-8.403352e-004
1.955498e+003,-8.341731e-004
1.957426e+003,-8.280212e-004
1.959354e+003,-8.218789e-004
1.961283e+003,-8.157456e-004
1.963211e+003,-8.096214e-004
1.965140e+003,-8.035074e-004
1.967068e+003,-7.974030e-004
1.968997e+003,-7.913080e-004
1.970926e+003,-7.852220e-004
1.972854e+003,-7.791455e-004
1.974782e+003,-7.730790e-004
1.976711e+003,-7.670218e-004
1.978639e+003,-7.609739e-004
1.980568e+003,-7.549357e-004
1.982496e+003,-7.489072e-004
1.984425e+003,-7.428873e-004
1.986354e+003,-7.368776e-004
1.988282e+003,-7.308774e-004
1.990210e+003,-7.248868e-004
1.992139e+003,-7.189051e-004
1.994067e+003,-7.129335e-004
1.995996e+003,-7.069716e-004
1.997924e+003,-7.010184e-004
1.999853e+003,-6.950747e-004
2.001781e+003,-6.891410e-004
2.003710e+003,-6.832167e-004
2.005638e+003,-6.773021e-004
2.007567e+003,-6.713965e-004
2.009495e+003,-6.655004e-004
2.011424e+003,-6.596141e-004
2.013352e+003,-6.537368e-004
2.015281e+003,-6.478697e-004
2.017209e+003,-6.420116e-004
2.019138e+003,-6.361636e-004
2.021066e+003,-6.303239e-004
2.022995e+003,-6.244946e-004
2.024923e+003,-6.186747e-004
2.026852e+003,-6.128645e-004
2.028781e+003,-6.070631e-004
2.030709e+003,-6.012719e-004
2.032637e+003,-5.954897e-004
2.034566e+003,-5.897172e-004
2.036494e+003,-5.839538e-004
2.038423e+003,-5.782004e-004
2.040351e+003,-5.724567e-004
2.042280e+003,-5.667219e-004
2.044208e+003,-5.609966e-004
2.046137e+003,-5.552811e-004
2.048065e+003,-5.495753e-004
2.049994e+003,-5.438788e-004
2.051922e+003,-5.381918e-004
2.053851e+003,-5.325133e-004
2.055779e+003,-5.268448e-004
2.057708e+003,-5.211865e-004
2.059636e+003,-5.155376e-004
2.061565e+003,-5.098979e-004
2.063493e+003,-5.042681e-004
2.065422e+003,-4.986477e-004
2.067350e+003,-4.930362e-004
2.069279e+003,-4.874335e-004
2.071207e+003,-4.818416e-004
2.073136e+003,-4.762592e-004
2.075064e+003,-4.706860e-004
2.076993e+003,-4.651226e-004
2.078921e+003,-4.595686e-004
2.080850e+003,-4.540235e-004
2.082778e+003,-4.484886e-004
2.084707e+003,-4.429618e-004
2.086635e+003,-4.374457e-004
2.088564e+003,-4.319393e-004
2.090492e+003,-4.264419e-004
2.092421e+003,-4.209541e-004
2.094349e+003,-4.154760e-004
2.096278e+003,-4.100071e-004
2.098206e+003,-4.045470e-004
2.100135e+003,-3.990973e-004
2.102063e+003,-3.936570e-004
2.103992e+003,-3.882260e-004
2.105920e+003,-3.828050e-004
2.107849e+003,-3.773931e-004
2.109777e+003,-3.719910e-004
2.111706e+003,-3.665983e-004
2.113634e+003,-3.612139e-004
2.115563e+003,-3.558396e-004
2.117491e+003,-3.504753e-004
2.119420e+003,-3.451208e-004
2.121348e+003,-3.397756e-004
2.123277e+003,-3.344398e-004
2.125205e+003,-3.291136e-004
2.127134e+003,-3.237962e-004
2.129062e+003,-3.184879e-004
2.130991e+003,-3.131900e-004
2.132919e+003,-3.079018e-004
2.134848e+003,-3.026230e-004
2.136776e+003,-2.973536e-004
2.138705e+003,-2.920930e-004
2.140633e+003,-2.868429e-004
2.142562e+003,-2.816010e-004
2.144490e+003,-2.763697e-004
2.146419e+003,-2.711476e-004
2.148347e+003,-2.659354e-004
2.150276e+003,-2.607319e-004
2.152204e+003,-2.555386e-004
2.154133e+003,-2.503544e-004
2.156061e+003,-2.451790e-004
2.157990e+003,-2.400142e-004
2.159918e+003,-2.348588e-004
2.161847e+003,-2.297128e-004
2.163775e+003,-2.245759e-004
2.165704e+003,-2.194492e-004
2.167632e+003,-2.143316e-004
2.169561e+003,-2.092235e-004
2.171489e+003,-2.041250e-004
2.173418e+003,-1.990348e-004
2.175346e+003,-1.939547e-004
2.177275e+003,-1.888848e-004
2.179203e+003,-1.838242e-004
2.181132e+003,-1.787732e-004
2.183060e+003,-1.737317e-004
2.184989e+003,-1.686995e-004
2.186917e+003,-1.636753e-004
2.188846e+003,-1.586624e-004
2.190774e+003,-1.536589e-004
2.192703e+003,-1.486647e-004
2.194631e+003,-1.436800e-004
2.196560e+003,-1.387049e-004
2.198488e+003,-1.337389e-004
2.200417e+003,-1.287814e-004
2.202345e+003,-1.238347e-004
2.204274e+003,-1.188975e-004
2.206202e+003,-1.139699e-004
2.208131e+003,-1.090518e-004
2.210059e+003,-1.041426e-004
2.211988e+003,-9.924360e-005
2.213916e+003,-9.435392e-005
2.215845e+003,-8.947356e-005
2.217773e+003,-8.460181e-005
2.219702e+003,-7.974054e-005
2.221630e+003,-7.488811e-005
2.223559e+003,-7.004570e-005
2.225487e+003,-6.521307e-005
2.227416e+003,-6.038998e-005
2.229344e+003,-5.557598e-005
2.231273e+003,-5.077035e-005
2.233201e+003,-4.597544e-005
2.235130e+003,-4.119030e-005
2.237058e+003,-3.641425e-005
2.238987e+003,-3.164774e-005
2.240915e+003,-2.689124e-005
2.242844e+003,-2.214359e-005
2.244772e+003,-1.740479e-005
2.246701e+003,-1.267600e-005
2.248629e+003,-7.956987e-006
2.250558e+003,-3.247522e-006
2.252486e+003,1.452398e-006
2.254415e+003,6.142771e-006
2.256343e+003,1.082383e-005
2.258272e+003,1.549558e-005
2.260200e+003,2.015778e-005
2.262129e+003,2.481113e-005
2.264057e+003,2.945401e-005
2.265986e+003,3.408734e-005
2.267914e+003,3.871135e-005
2.269843e+003,4.332629e-005
2.271771e+003,4.793145e-005
2.273700e+003,5.252706e-005
2.275628e+003,5.711382e-005
2.277557e+003,6.169057e-005
2.279485e+003,6.625778e-005
2.281414e+003,7.081614e-005
2.283342e+003,7.536355e-005
2.285271e+003,7.990235e-005
2.287199e+003,8.443138e-005
2.289128e+003,8.895202e-005
2.291056e+003,9.346218e-005
2.292985e+003,9.796326e-005
2.294913e+003,1.024543e-004
2.296842e+003,1.069359e-004
2.298770e+003,1.114081e-004
2.300699e+003,1.158710e-004
2.302627e+003,1.203250e-004
2.304556e+003,1.247693e-004
2.306484e+003,1.292035e-004
2.308413e+003,1.336283e-004
2.310341e+003,1.380432e-004
2.312270e+003,1.424488e-004
2.314198e+003,1.468454e-004
2.316127e+003,1.512324e-004
2.318055e+003,1.556096e-004
2.319984e+003,1.599782e-004
2.321912e+003,1.643365e-004
2.323841e+003,1.686856e-004
2.325769e+003,1.730246e-004
2.327698e+003,1.773550e-004
2.329626e+003,1.816754e-004
2.331555e+003,1.859860e-004
2.333483e+003,1.902885e-004
2.335412e+003,1.945801e-004
2.337340e+003,1.988625e-004
2.339269e+003,2.031354e-004
2.341197e+003,2.073995e-004
2.343126e+003,2.116531e-004
2.345054e+003,2.158978e-004
2.346983e+003,2.201335e-004
2.348911e+003,2.243591e-004
2.350840e+003,2.285750e-004
2.352768e+003,2.327817e-004
2.354697e+003,2.369788e-004
2.356625e+003,2.411660e-004
2.358554e+003,2.453441e-004
2.360482e+003,2.495123e-004
2.362411e+003,2.536713e-004
2.364339e+003,2.578225e-004
2.366268e+003,2.619626e-004
2.368196e+003,2.660928e-004
2.370125e+003,2.702137e-004
2.372053e+003,2.743253e-004
2.373982e+003,2.784275e-004
2.375910e+003,2.825204e-004
2.377839e+003,2.866045e-004
2.379767e+003,2.906781e-004
2.381696e+003,2.947419e-004
2.383624e+003,2.987965e-004
2.385553e+003,3.028419e-004
2.387481e+003,3.068778e-004
2.389410e+003,3.109039e-004
2.391338e+003,3.149216e-004
2.393267e+003,3.189286e-004
2.395195e+003,3.229263e-004
2.397124e+003,3.269142e-004
2.399052e+003,3.308936e-004
2.400981e+003,2.810406e-004
2.402909e+003,2.577759e-004
2.404838e+003,3.205449e-004
2.406766e+003,3.968526e-004
2.408695e+003,6.070028e-004
2.410623e+003,7.667078e-004
2.412552e+003,8.759822e-004
2.414480e+003,8.468493e-004
2.416409e+003,9.008304e-004
2.418337e+003,8.597546e-004
2.420266e+003,7.984089e-004
2.422194e+003,7.038622e-004
2.424123e+003,6.536529e-004
2.426051e+003,6.686919e-004
2.427979e+003,7.657697e-004
2.429908e+003,7.224956e-004
2.431837e+003,7.106820e-004
2.433765e+003,7.087155e-004
2.435694e+003,6.004125e-004
2.437622e+003,4.466455e-004
2.439551e+003,5.926939e-004
2.441479e+003,6.200657e-004
2.443407e+003,5.562508e-004
2.445336e+003,4.320985e-004
2.447265e+003,4.933102e-004
2.449193e+003,4.985977e-004
2.451122e+003,4.748809e-004
2.453050e+003,4.952371e-004
2.454979e+003,7.116699e-004
2.456907e+003,6.909815e-004
2.458836e+003,5.768163e-004
2.460764e+003,5.396998e-004
2.462693e+003,4.407112e-004
2.464621e+003,3.419798e-004
2.466550e+003,6.539640e-004
2.468478e+003,8.569276e-004
2.470406e+003,8.209951e-004
2.472335e+003,8.376162e-004
2.474264e+003,8.745813e-004
2.476192e+003,7.653562e-004
2.478121e+003,7.992585e-004
2.480049e+003,8.874768e-004
2.481978e+003,9.372844e-004
2.483906e+003,9.998884e-004
2.485835e+003,1.058783e-003
2.487763e+003,8.751657e-004
2.489692e+003,9.096088e-004
2.491620e+003,1.026721e-003
2.493549e+003,1.085381e-003
2.495477e+003,1.063527e-003
2.497406e+003,1.106012e-003
2.499334e+003,1.213741e-003
2.501263e+003,1.263225e-003
2.503191e+003,1.251986e-003
2.505120e+003,1.323899e-003
2.507048e+003,1.346625e-003
2.508977e+003,1.364287e-003
2.510905e+003,1.478216e-003
2.512833e+003,1.607879e-003
2.514762e+003,1.737414e-003
2.516691e+003,1.857691e-003
2.518619e+003,1.856839e-003
2.520548e+003,2.026144e-003
2.522476e+003,2.200765e-003
2.524405e+003,2.301444e-003
2.526333e+003,2.374011e-003
2.528261e+003,2.307673e-003
2.530190e+003,2.084618e-003
2.532119e+003,2.062892e-003
2.534047e+003,2.168018e-003
2.535976e+003,2.240542e-003
2.537904e+003,2.250465e-003
2.539833e+003,2.347596e-003
2.541761e+003,2.599718e-003
2.543689e+003,2.888461e-003
2.545618e+003,2.968688e-003
2.547547e+003,3.084690e-003
2.549475e+003,3.194753e-003
2.551404e+003,3.281769e-003
2.553332e+003,3.432834e-003
2.555260e+003,3.488730e-003
2.557189e+003,3.458261e-003
2.559117e+003,3.709972e-003
2.561046e+003,4.072041e-003
2.562975e+003,4.277004e-003
2.564903e+003,4.161762e-003
2.566832e+003,4.186589e-003
2.568760e+003,4.354299e-003
2.570688e+003,4.495341e-003
2.572617e+003,4.653343e-003
2.574546e+003,4.907841e-003
2.576474e+003,5.139368e-003
2.578403e+003,5.474001e-003
2.580331e+003,5.662524e-003
2.582260e+003,5.849537e-003
2.584188e+003,6.117153e-003
2.586116e+003,6.340534e-003
2.588045e+003,6.411768e-003
2.589974e+003,6.583873e-003
2.591902e+003,6.857987e-003
2.593831e+003,7.219577e-003
2.595759e+003,7.449458e-003
2.597688e+003,7.707005e-003
2.599616e+003,7.818384e-003
2.601544e+003,7.929923e-003
2.603473e+003,8.277455e-003
2.605402e+003,8.582932e-003
2.607330e+003,8.745441e-003
2.609259e+003,9.021828e-003
2.611187e+003,9.362548e-003
2.613115e+003,9.760704e-003
2.615044e+003,1.013195e-002
2.616972e+003,1.044600e-002
2.618901e+003,1.083782e-002
2.620830e+003,1.123208e-002
2.622758e+003,1.159121e-002
2.624687e+003,1.197599e-002
2.626615e+003,1.236224e-002
2.628543e+003,1.281481e-002
2.630472e+003,1.330543e-002
2.632400e+003,1.372754e-002
2.634329e+003,1.401319e-002
2.636258e+003,1.413874e-002
2.638186e+003,1.406880e-002
2.640115e+003,1.401722e-002
2.642043e+003,1.401818e-002
2.643971e+003,1.404304e-002
2.645900e+003,1.403686e-002
2.647828e+003,1.407340e-002
2.649757e+003,1.417275e-002
2.651686e+003,1.439207e-002
2.653614e+003,1.459949e-002
2.655542e+003,1.479007e-002
2.657471e+003,1.486569e-002
2.659399e+003,1.483718e-002
2.661328e+003,1.470145e-002
2.663256e+003,1.455756e-002
2.665185e+003,1.440574e-002
2.667114e+003,1.425119e-002
2.669042e+003,1.411330e-002
2.670970e+003,1.400351e-002
2.672899e+003,1.385705e-002
2.674827e+003,1.370634e-002
2.676756e+003,1.354713e-002
2.678685e+003,1.342390e-002
2.680613e+003,1.331238e-002
2.682542e+003,1.325481e-002
2.684470e+003,1.313641e-002
2.686398e+003,1.296817e-002
2.688327e+003,1.290748e-002
2.690255e+003,1.285998e-002
2.692184e+003,1.272265e-002
2.694113e+003,1.258132e-002
2.696041e+003,1.253979e-002
2.697969e+003,1.261166e-002
2.699898e+003,1.271438e-002
2.701826e+003,1.289351e-002
2.703755e+003,1.309652e-002
2.705683e+003,1.322144e-002
2.707612e+003,1.336528e-002
2.709541e+003,1.351270e-002
2.711469e+003,1.368348e-002
2.713397e+003,1.386419e-002
2.715326e+003,1.404661e-002
2.717254e+003,1.426488e-002
2.719183e+003,1.444796e-002
2.721111e+003,1.472711e-002
2.723040e+003,1.508031e-002
2.724969e+003,1.536205e-002
2.726897e+003,1.565922e-002
2.728825e+003,1.591778e-002
2.730754e+003,1.605767e-002
2.732682e+003,1.621157e-002
2.734611e+003,1.638162e-002
2.736539e+003,1.662738e-002
2.738468e+003,1.676881e-002
2.740396e+003,1.683171e-002
2.742325e+003,1.682515e-002
2.744253e+003,1.675557e-002
2.746182e+003,1.672058e-002
2.748110e+003,1.675751e-002
2.750039e+003,1.677369e-002
2.751967e+003,1.685706e-002
2.753896e+003,1.708268e-002
2.755824e+003,1.737686e-002
2.757753e+003,1.769058e-002
2.759681e+003,1.809819e-002
2.761610e+003,1.848645e-002
2.763538e+003,1.887282e-002
2.765467e+003,1.935241e-002
2.767395e+003,1.985546e-002
2.769324e+003,2.035715e-002
2.771252e+003,2.102067e-002
2.773181e+003,2.170074e-002
2.775109e+003,2.245183e-002
2.777038e+003,2.337485e-002
2.778966e+003,2.434374e-002
2.780895e+003,2.532443e-002
2.782823e+003,2.647477e-002
2.784752e+003,2.782250e-002
2.786680e+003,2.923892e-002
2.788609e+003,3.073544e-002
2.790537e+003,3.231727e-002
2.792466e+003,3.396895e-002
2.794394e+003,3.568009e-002
2.796323e+003,3.746562e-002
2.798251e+003,3.938317e-002
2.800180e+003,4.137687e-002
2.802108e+003,4.345370e-002
2.804037e+003,4.564541e-002
2.805965e+003,4.798143e-002
2.807894e+003,5.067233e-002
2.809822e+003,5.374837e-002
2.811751e+003,5.711270e-002
2.813679e+003,6.084048e-002
2.815608e+003,6.521641e-002
2.817536e+003,7.034907e-002
2.819465e+003,7.630993e-002
2.821393e+003,8.330583e-002
2.823322e+003,9.185528e-002
2.825250e+003,1.023974e-001
2.827179e+003,1.157191e-001
2.829107e+003,1.328947e-001
2.831036e+003,1.557302e-001
2.832964e+003,1.869078e-001
2.834893e+003,2.311555e-001
2.836821e+003,2.944934e-001
2.838750e+003,3.863411e-001
2.840678e+003,5.219662e-001
2.842607e+003,7.204171e-001
2.844535e+003,9.890851e-001
2.846464e+003,1.257463e+000
2.848392e+003,1.303186e+000
2.850321e+003,1.069713e+000
2.852249e+003,7.960439e-001
2.854178e+003,5.979706e-001
2.856106e+003,4.630508e-001
2.858035e+003,3.679437e-001
2.859963e+003,3.000058e-001
2.861892e+003,2.522746e-001
2.863820e+003,2.203646e-001
2.865749e+003,2.012617e-001
2.867677e+003,1.921609e-001
2.869606e+003,1.898259e-001
2.871534e+003,1.911875e-001
2.873463e+003,1.952344e-001
2.875391e+003,2.035960e-001
2.877320e+003,2.177345e-001
2.879248e+003,2.375799e-001
2.881177e+003,2.621748e-001
2.883105e+003,2.905978e-001
2.885034e+003,3.222948e-001
2.886962e+003,3.566289e-001
2.888891e+003,3.928277e-001
2.890819e+003,4.298055e-001
2.892748e+003,4.668023e-001
2.894676e+003,5.036265e-001
2.896605e+003,5.411251e-001
2.898533e+003,5.807479e-001
2.900462e+003,6.250067e-001
2.902390e+003,6.784112e-001
2.904319e+003,7.472997e-001
2.906247e+003,8.403418e-001
2.908176e+003,9.671070e-001
2.910104e+003,1.133148e+000
2.912033e+003,1.324286e+000
2.913961e+003,1.475579e+000
2.915890e+003,1.489006e+000
2.917818e+003,1.350018e+000
2.919747e+003,1.150843e+000
2.921675e+003,9.639210e-001
2.923604e+003,8.091947e-001
2.925532e+003,6.846008e-001
2.927461e+003,5.826487e-001
2.929389e+003,4.969356e-001
2.931318e+003,4.234745e-001
2.933246e+003,3.601250e-001
2.935175e+003,3.057321e-001
2.937103e+003,2.591975e-001
2.939032e+003,2.197256e-001
2.940960e+003,1.867192e-001
2.942889e+003,1.599013e-001
2.944817e+003,1.394130e-001
2.946746e+003,1.250517e-001
2.948674e+003,1.161547e-001
2.950603e+003,1.113555e-001
2.952531e+003,1.084748e-001
2.954460e+003,1.055444e-001
2.956388e+003,1.016228e-001
2.958317e+003,9.644389e-002
2.960245e+003,9.012526e-002
2.962174e+003,8.276188e-002
2.964102e+003,7.470728e-002
2.966031e+003,6.636687e-002
2.967959e+003,5.833156e-002
2.969888e+003,5.098560e-002
2.971816e+003,4.453533e-002
2.973745e+003,3.907524e-002
2.975673e+003,3.465955e-002
2.977602e+003,3.087865e-002
2.979530e+003,2.776380e-002
2.981459e+003,2.526254e-002
2.983387e+003,2.323280e-002
2.985316e+003,2.146269e-002
2.987244e+003,1.996950e-002
2.989173e+003,1.877601e-002
2.991101e+003,1.776841e-002
2.993030e+003,1.680595e-002
2.994958e+003,1.600316e-002
2.996887e+003,1.540747e-002
2.998815e+003,1.498688e-002
3.000744e+003,1.448011e-002
3.002672e+003,1.391857e-002
3.004601e+003,1.349313e-002
3.006529e+003,1.308131e-002
3.008458e+003,1.261099e-002
3.010386e+003,1.218772e-002
3.012315e+003,1.181366e-002
3.014243e+003,1.139948e-002
3.016172e+003,1.103546e-002
3.018100e+003,1.076802e-002
3.020029e+003,1.044064e-002
3.021957e+003,1.015759e-002
3.023886e+003,9.907148e-003
3.025814e+003,9.646391e-003
3.027743e+003,9.403699e-003
3.029671e+003,9.118524e-003
3.031600e+003,8.797815e-003
3.033528e+003,8.460017e-003
3.035457e+003,8.130291e-003
3.037385e+003,7.930499e-003
3.039314e+003,7.676689e-003
3.041242e+003,7.366855e-003
3.043171e+003,7.065239e-003
3.045099e+003,6.730014e-003
3.047028e+003,6.497802e-003
3.048956e+003,6.324423e-003
3.050885e+003,6.012511e-003
3.052813e+003,5.724029e-003
3.054742e+003,5.522664e-003
3.056670e+003,5.376699e-003
3.058599e+003,5.322678e-003
3.060527e+003,5.225969e-003
3.062456e+003,5.027712e-003
3.064384e+003,4.935509e-003
3.066313e+003,4.795081e-003
3.068241e+003,4.645064e-003
3.070170e+003,4.553985e-003
3.072098e+003,4.579670e-003
3.074027e+003,4.539824e-003
3.075955e+003,4.347595e-003
3.077884e+003,4.169932e-003
3.079812e+003,4.147930e-003
3.081741e+003,4.131758e-003
3.083669e+003,3.926373e-003
3.085598e+003,3.687720e-003
3.087526e+003,3.497813e-003
3.089455e+003,3.301096e-003
3.091383e+003,3.087459e-003
3.093312e+003,2.766356e-003
3.095240e+003,2.469057e-003
3.097169e+003,2.225102e-003
3.099097e+003,2.044886e-003
3.101026e+003,1.878202e-003
3.102954e+003,1.773020e-003
3.104883e+003,1.636899e-003
3.106811e+003,1.443925e-003
3.108740e+003,1.310142e-003
3.110668e+003,1.222596e-003
3.112597e+003,1.165925e-003
3.114525e+003,1.121207e-003
3.116454e+003,1.074150e-003
3.118382e+003,8.716439e-004
3.120311e+003,6.484562e-004
3.122239e+003,6.502708e-004
3.124168e+003,8.529676e-004
3.126096e+003,9.094272e-004
3.128025e+003,7.828167e-004
3.129953e+003,7.313685e-004
3.131882e+003,6.333683e-004
3.133810e+003,5.964655e-004
3.135739e+003,6.163865e-004
3.137667e+003,6.210827e-004
3.139596e+003,5.508685e-004
3.141524e+003,5.225912e-004
3.143453e+003,5.767061e-004
3.145381e+003,5.779197e-004
3.147310e+003,5.958895e-004
3.149238e+003,5.872580e-004
3.151167e+003,4.982869e-004
3.153095e+003,4.296666e-004
3.155024e+003,4.264703e-004
3.156952e+003,4.760027e-004
3.158881e+003,5.290625e-004
3.160809e+003,4.938291e-004
3.162738e+003,5.262238e-004
3.164666e+003,6.412268e-004
3.166594e+003,6.189463e-004
3.168523e+003,5.050013e-004
3.170452e+003,4.854528e-004
3.172380e+003,5.643759e-004
3.174309e+003,4.803934e-004
3.176237e+003,5.231472e-004
3.178166e+003,6.656945e-004
3.180094e+003,6.961222e-004
3.182022e+003,6.752163e-004
3.183951e+003,6.335126e-004
3.185880e+003,6.486941e-004
3.187808e+003,6.745020e-004
3.189737e+003,7.032030e-004
3.191665e+003,7.506344e-004
3.193594e+003,6.735371e-004
3.195522e+003,6.579277e-004
3.197450e+003,6.584716e-004
3.199379e+003,6.425083e-004
3.201308e+003,5.656825e-004
3.203236e+003,5.481429e-004
3.205165e+003,6.689387e-004
3.207093e+003,6.390493e-004
3.209021e+003,5.911784e-004
3.210950e+003,6.751260e-004
3.212878e+003,6.753323e-004
3.214807e+003,5.956050e-004
3.216736e+003,5.535739e-004
3.218664e+003,6.331853e-004
3.220593e+003,7.183603e-004
3.222521e+003,6.848951e-004
3.224449e+003,5.953629e-004
3.226378e+003,6.566001e-004
3.228307e+003,7.227459e-004
3.230235e+003,7.274649e-004
3.232164e+003,8.399957e-004
3.234092e+003,8.408003e-004
3.236021e+003,7.902160e-004
3.237949e+003,7.537981e-004
3.239877e+003,8.084681e-004
3.241806e+003,8.450700e-004
3.243735e+003,7.154192e-004
3.245663e+003,7.052179e-004
3.247592e+003,8.302471e-004
3.249520e+003,9.119394e-004
3.251448e+003,1.019712e-003
3.253377e+003,1.106170e-003
3.255305e+003,1.130944e-003
3.257234e+003,1.170278e-003
3.259163e+003,1.186974e-003
3.261091e+003,1.235396e-003
3.263020e+003,1.229976e-003
3.264948e+003,1.289782e-003
3.266876e+003,1.305378e-003
3.268805e+003,1.399044e-003
3.270733e+003,1.401428e-003
3.272662e+003,1.397378e-003
3.274591e+003,1.530198e-003
3.276519e+003,1.532868e-003
3.278448e+003,1.456696e-003
3.280376e+003,1.505426e-003
3.282304e+003,1.454504e-003
3.284233e+003,1.433928e-003
3.286161e+003,1.603454e-003
3.288090e+003,1.609656e-003
3.290019e+003,1.579368e-003
3.291947e+003,1.615054e-003
3.293875e+003,1.641015e-003
3.295804e+003,1.717507e-003
3.297732e+003,1.698726e-003
3.299661e+003,1.717625e-003
3.301589e+003,1.660209e-003
3.303518e+003,1.646743e-003
3.305447e+003,1.666511e-003
3.307375e+003,1.637379e-003
3.309303e+003,1.552760e-003
3.311232e+003,1.595658e-003
3.313160e+003,1.651629e-003
3.315089e+003,1.734279e-003
3.317018e+003,1.754698e-003
3.318946e+003,1.712441e-003
3.320875e+003,1.660617e-003
3.322803e+003,1.720091e-003
3.324731e+003,1.888746e-003
3.326660e+003,1.939890e-003
3.328588e+003,1.860658e-003
3.330517e+003,1.888197e-003
3.332446e+003,1.963513e-003
3.334374e+003,1.893920e-003
3.336302e+003,1.986994e-003
3.338231e+003,2.120562e-003
3.340159e+003,2.104013e-003
3.342088e+003,2.091006e-003
3.344016e+003,2.062936e-003
3.345945e+003,1.990005e-003
3.347874e+003,1.999431e-003
3.349802e+003,1.948141e-003
3.351730e+003,1.896565e-003
3.353659e+003,1.945052e-003
3.355587e+003,2.000639e-003
3.357516e+003,1.958835e-003
3.359444e+003,1.918210e-003
3.361373e+003,1.918307e-003
3.363302e+003,1.839838e-003
3.365230e+003,1.827323e-003
3.367158e+003,1.879751e-003
3.369087e+003,1.857694e-003
3.371015e+003,1.888175e-003
3.372944e+003,1.979946e-003
3.374872e+003,2.017165e-003
3.376801e+003,1.992752e-003
3.378729e+003,1.960652e-003
3.380658e+003,1.921752e-003
3.382586e+003,1.825320e-003
3.384515e+003,1.767911e-003
3.386443e+003,1.834556e-003
3.388372e+003,1.808919e-003
3.390300e+003,1.671752e-003
3.392229e+003,1.576932e-003
3.394157e+003,1.643708e-003
3.396086e+003,1.691097e-003
3.398014e+003,1.635735e-003
3.399943e+003,1.584613e-003
3.401871e+003,1.574686e-003
3.403800e+003,1.609539e-003
3.405728e+003,1.654982e-003
3.407657e+003,1.563546e-003
3.409585e+003,1.491659e-003
3.411514e+003,1.523231e-003
3.413442e+003,1.533684e-003
3.415371e+003,1.483152e-003
3.417299e+003,1.401598e-003
3.419228e+003,1.320519e-003
3.421156e+003,1.325163e-003
3.423085e+003,1.378388e-003
3.425013e+003,1.405656e-003
3.426942e+003,1.375640e-003
3.428870e+003,1.273398e-003
3.430799e+003,1.291154e-003
3.432727e+003,1.373766e-003
3.434656e+003,1.371797e-003
3.436584e+003,1.301020e-003
3.438513e+003,1.253412e-003
3.440441e+003,1.335256e-003
3.442370e+003,1.350908e-003
3.444298e+003,1.277762e-003
3.446227e+003,1.153221e-003
3.448155e+003,1.064725e-003
3.450084e+003,1.083344e-003
3.452012e+003,1.140041e-003
3.453941e+003,1.188518e-003
3.455869e+003,1.109840e-003
3.457798e+003,9.975601e-004
3.459726e+003,9.479602e-004
3.461655e+003,9.277011e-004
3.463583e+003,8.698101e-004
3.465512e+003,8.827196e-004
3.467440e+003,8.955235e-004
3.469369e+003,8.715950e-004
3.471297e+003,7.608146e-004
3.473226e+003,8.075694e-004
3.475154e+003,8.204621e-004
3.477083e+003,6.777351e-004
3.479011e+003,4.585176e-004
3.480940e+003,4.519848e-004
3.482868e+003,5.365969e-004
3.484797e+003,5.346211e-004
3.486725e+003,4.072511e-004
3.488654e+003,3.796383e-004
3.490582e+003,4.491559e-004
3.492511e+003,4.115286e-004
3.494439e+003,3.621075e-004
3.496368e+003,3.341646e-004
3.498296e+003,1.717824e-004
3.500225e+003,-1.570024e-005
3.502153e+003,-3.562355e-005
3.504082e+003,1.550969e-004
3.506010e+003,2.195132e-004
3.507939e+003,7.962808e-007
3.509867e+003,-8.401554e-005
3.511796e+003,1.004944e-005
3.513724e+003,-4.865834e-005
3.515653e+003,-1.411345e-004
3.517581e+003,-1.213085e-004
3.519510e+003,-9.537162e-005
3.521438e+003,-1.713862e-004
3.523367e+003,-3.250013e-004
3.525295e+003,-4.547201e-004
3.527224e+003,-6.560544e-004
3.529152e+003,-5.957182e-004
3.531081e+003,-3.911224e-004
3.533009e+003,-3.511445e-004
3.534938e+003,-5.870033e-004
3.536866e+003,-6.566774e-004
3.538795e+003,-5.370677e-004
3.540723e+003,-7.065944e-004
3.542652e+003,-1.054973e-003
3.544580e+003,-1.254396e-003
3.546509e+003,-1.075088e-003
3.548437e+003,-8.276766e-004
3.550366e+003,-8.486123e-004
3.552294e+003,-9.559724e-004
3.554223e+003,-9.110165e-004
3.556151e+003,-1.011429e-003
3.558080e+003,-1.165568e-003
3.560008e+003,-1.218492e-003
3.561937e+003,-1.238177e-003
3.563865e+003,-1.549501e-003
3.565794e+003,-2.194731e-003
3.567722e+003,-2.048911e-003
3.569651e+003,-1.475902e-003
3.571579e+003,-1.124154e-003
3.573508e+003,-9.323526e-004
3.575436e+003,-1.088778e-003
3.577365e+003,-1.399707e-003
3.579293e+003,-1.393646e-003
3.581222e+003,-1.216268e-003
3.583150e+003,-1.218091e-003
3.585079e+003,-1.675815e-003
3.587007e+003,-2.328767e-003
3.588936e+003,-1.653118e-003
3.590864e+003,-1.052313e-003
3.592793e+003,-7.114229e-004
3.594721e+003,-3.602784e-004
3.596650e+003,2.569053e-005
3.598578e+003,1.016776e-004
3.600507e+003,2.412945e-004
3.602435e+003,6.036386e-004
3.604364e+003,7.972652e-004
3.606292e+003,4.412942e-004
3.608221e+003,-1.381976e-004
3.610149e+003,-4.446190e-004
3.612078e+003,-6.876006e-004
3.614006e+003,-4.920349e-004
3.615935e+003,-7.107509e-004
3.617863e+003,-1.524292e-003
3.619792e+003,-1.813005e-003
3.621720e+003,-1.194873e-003
3.623649e+003,-6.770263e-004
3.625577e+003,-6.918944e-004
3.627506e+003,-1.094404e-003
3.629434e+003,-1.229792e-003
3.631363e+003,-9.949878e-004
3.633291e+003,-8.164891e-004
3.635220e+003,-2.915761e-004
3.637148e+003,-1.662024e-004
3.639077e+003,-4.459494e-004
3.641005e+003,-6.193067e-004
3.642934e+003,-6.964402e-004
3.644862e+003,-9.881123e-004
3.646791e+003,-2.064280e-003
3.648719e+003,-3.369901e-003
3.650648e+003,-2.396051e-003
3.652576e+003,-1.170581e-003
3.654505e+003,-6.506047e-004
3.656433e+003,-5.003386e-004
3.658362e+003,-6.304891e-004
3.660290e+003,-8.958718e-004
3.662219e+003,-1.102266e-003
3.664147e+003,-1.089273e-003
3.666076e+003,-1.451121e-003
3.668004e+003,-2.345250e-003
3.669933e+003,-2.327663e-003
3.671861e+003,-1.625923e-003
3.673790e+003,-2.019253e-003
3.675718e+003,-2.400929e-003
3.677647e+003,-2.118935e-003
3.679575e+003,-1.978563e-003
3.681504e+003,-1.421867e-003
3.683432e+003,-9.839181e-004
3.685361e+003,-9.839283e-004
3.687289e+003,-1.543308e-003
3.689218e+003,-2.392988e-003
3.691146e+003,-2.246086e-003
3.693075e+003,-1.563532e-003
3.695003e+003,-9.830249e-004
3.696932e+003,-6.954730e-004
3.698860e+003,-8.904887e-004
3.700789e+003,-1.356254e-003
3.702717e+003,-1.477338e-003
3.704646e+003,-1.071058e-003
3.706574e+003,-8.176151e-004
3.708503e+003,-1.230296e-003
3.710431e+003,-2.034944e-003
3.712360e+003,-2.122210e-003
3.714288e+003,-1.597115e-003
3.716217e+003,-1.256191e-003
3.718145e+003,-1.183744e-003
3.720074e+003,-1.326010e-003
3.722002e+003,-1.766111e-003
3.723931e+003,-2.094710e-003
3.725859e+003,-2.190761e-003
3.727788e+003,-1.501945e-003
3.729716e+003,-1.052711e-003
3.731645e+003,-1.222576e-003
3.733573e+003,-2.210635e-003
3.735502e+003,-2.871293e-003
3.737430e+003,-2.192641e-003
3.739359e+003,-1.672379e-003
3.741287e+003,-1.618901e-003
3.743216e+003,-1.681569e-003
3.745144e+003,-1.329700e-003
3.747073e+003,-1.479080e-003
3.749001e+003,-2.216021e-003
3.750930e+003,-2.484445e-003
3.752858e+003,-1.499055e-003
3.754787e+003,-1.034169e-003
3.756715e+003,-8.408194e-004
3.758644e+003,-5.447576e-004
3.760572e+003,-3.679311e-004
3.762501e+003,-5.177865e-004
3.764429e+003,-5.602483e-004
3.766358e+003,-5.303966e-004
3.768286e+003,-9.816336e-004
3.770215e+003,-1.201211e-003
3.772143e+003,-7.537724e-004
3.774072e+003,-3.752531e-004
3.776000e+003,-2.350807e-004
3.777929e+003,-1.972998e-004
3.779857e+003,-1.038397e-004
3.781786e+003,-8.056499e-005
3.783714e+003,-2.473043e-004
3.785643e+003,-3.878521e-004
3.787571e+003,-2.991082e-004
3.789500e+003,-4.350338e-004
3.791428e+003,-5.804282e-004
3.793357e+003,-5.927132e-004
3.795285e+003,-3.461819e-004
3.797214e+003,-4.318347e-004
3.799142e+003,-7.514702e-004
3.801071e+003,-6.459234e-004
3.802999e+003,-5.844561e-004
3.804927e+003,-7.630112e-004
3.806856e+003,-7.621385e-004
3.808785e+003,-2.338896e-004
3.810713e+003,1.666602e-005
3.812642e+003,1.056679e-005
3.814570e+003,1.808396e-004
3.816499e+003,-4.881900e-005
3.818427e+003,-5.304683e-004
3.820355e+003,-1.215443e-003
3.822284e+003,-1.076376e-003
3.824213e+003,-5.242135e-004
3.826141e+003,-3.723660e-004
3.828070e+003,-1.747059e-004
3.829998e+003,2.445281e-005
3.831927e+003,-2.305396e-005
3.833855e+003,-5.043112e-005
3.835783e+003,-3.051320e-004
3.837712e+003,-9.950316e-004
3.839641e+003,-1.244063e-003
3.841569e+003,-9.989385e-004
3.843498e+003,-7.377891e-004
3.845426e+003,-1.216820e-004
3.847354e+003,3.543822e-004
3.849283e+003,5.630702e-004
3.851211e+003,1.041600e-004
3.853140e+003,-1.770541e-003
3.855069e+003,-1.786249e-003
3.856997e+003,-8.842498e-004
3.858926e+003,-1.718812e-004
3.860854e+003,3.424790e-004
3.862782e+003,3.880197e-004
3.864711e+003,2.704412e-004
3.866640e+003,1.027668e-004
3.868568e+003,-2.980521e-004
3.870497e+003,-5.042860e-004
3.872425e+003,-2.955440e-004
3.874354e+003,-3.661774e-005
3.876282e+003,3.307145e-004
3.878210e+003,7.805740e-004
3.880139e+003,7.850155e-004
3.882068e+003,3.559105e-004
3.883996e+003,5.497504e-005
3.885925e+003,4.200488e-004
3.887853e+003,7.333392e-004
3.889781e+003,3.877366e-004
3.891710e+003,1.284704e-004
3.893638e+003,5.401243e-004
3.895567e+003,8.321684e-004
3.897496e+003,7.859655e-004
3.899424e+003,6.963043e-004
3.901353e+003,4.437659e-004
3.903281e+003,1.283642e-005
3.905209e+003,1.692604e-004
3.907138e+003,5.419971e-004
3.909066e+003,9.284802e-004
3.910995e+003,1.332908e-003
3.912924e+003,1.518467e-003
3.914852e+003,1.118081e-003
3.916781e+003,4.780954e-004
3.918709e+003,2.778685e-004
3.920637e+003,3.820043e-004
3.922566e+003,4.489869e-004
3.924494e+003,6.859573e-004
3.926423e+003,1.094935e-003
3.928352e+003,1.135806e-003
3.930280e+003,7.904368e-004
3.932208e+003,6.126808e-004
3.934137e+003,6.761719e-004
3.936065e+003,7.322459e-004
3.937994e+003,7.732790e-004
3.939922e+003,7.706136e-004
3.941851e+003,5.012173e-004
3.943780e+003,4.651546e-004
3.945708e+003,4.883641e-004
3.947636e+003,3.973907e-004
3.949565e+003,5.369568e-004
3.951493e+003,6.375490e-004
3.953422e+003,6.224029e-004
3.955351e+003,7.508248e-004
3.957279e+003,9.655347e-004
3.959208e+003,9.848373e-004
3.961136e+003,7.990673e-004
3.963064e+003,7.723235e-004
3.964993e+003,8.087344e-004
3.966921e+003,7.411018e-004
3.968850e+003,7.627103e-004
3.970779e+003,8.003535e-004
3.972707e+003,7.581702e-004
3.974635e+003,6.797714e-004
3.976564e+003,8.429652e-004
3.978492e+003,1.029016e-003
3.980421e+003,1.036088e-003
3.982349e+003,9.227293e-004
3.984278e+003,9.358563e-004
3.986207e+003,9.307889e-004
3.988135e+003,9.299675e-004
3.990063e+003,8.606296e-004
3.991992e+003,8.503189e-004
3.993920e+003,6.707590e-004
3.995849e+003,6.535482e-004
3.997777e+003,8.497024e-004
3.999706e+003,8.909646e-004
4.001635e+003,0.000000e+000
