3.991992e+002,0.000000e+000
4.011277e+002,0.000000e+000
4.030562e+002,0.000000e+000
4.049846e+002,0.000000e+000
4.069131e+002,0.000000e+000
4.088416e+002,0.000000e+000
4.107701e+002,0.000000e+000
4.126986e+002,0.000000e+000
4.146271e+002,0.000000e+000
4.165556e+002,0.000000e+000
4.184841e+002,0.000000e+000
4.204126e+002,0.000000e+000
4.223411e+002,0.000000e+000
4.242697e+002,0.000000e+000
4.261982e+002,0.000000e+000
4.281266e+002,0.000000e+000
4.300551e+002,0.000000e+000
4.319836e+002,0.000000e+000
4.339121e+002,0.000000e+000
4.358406e+002,0.000000e+000
4.377691e+002,0.000000e+000
4.396976e+002,0.000000e+000
4.416261e+002,0.000000e+000
4.435546e+002,0.000000e+000
4.454831e+002,0.000000e+000
4.474116e+002,0.000000e+000
4.493401e+002,0.000000e+000
4.512686e+002,0.000000e+000
4.531971e+002,0.000000e+000
4.551256e+002,0.000000e+000
4.570541e+002,0.000000e+000
4.589826e+002,0.000000e+000
4.609111e+002,0.000000e+000
4.628396e+002,0.000000e+000
4.647681e+002,0.000000e+000
4.666966e+002,0.000000e+000
4.686251e+002,0.000000e+000
4.705536e+002,0.000000e+000
4.724821e+002,0.000000e+000
4.744106e+002,0.000000e+000
4.763391e+002,0.000000e+000
4.782676e+002,0.000000e+000
4.801961e+002,0.000000e+000
4.821246e+002,0.000000e+000
4.840531e+002,0.000000e+000
4.859816e+002,0.000000e+000
4.879101e+002,0.000000e+000
4.898386e+002,0.000000e+000
4.917671e+002,0.000000e+000
4.936956e+002,0.000000e+000
4.956241e+002,0.000000e+000
4.975526e+002,0.000000e+000
4.994811e+002,0.000000e+000
5.014096e+002,0.000000e+000
5.033381e+002,0.000000e+000
5.052666e+002,0.000000e+000
5.071951e+002,0.000000e+000
5.091236e+002,0.000000e+000
5.110521e+002,0.000000e+000
5.129806e+002,0.000000e+000
5.149091e+002,0.000000e+000
5.168376e+002,0.000000e+000
5.187661e+002,0.000000e+000
5.206946e+002,0.000000e+000
5.226230e+002,0.000000e+000
5.245516e+002,-1.716670e-004
5.264800e+002,-3.019306e-004
5.284086e+002,-1.976471e-004
5.303370e+002,-1.188843e-004
5.322656e+002,-2.417713e-005
5.341940e+002,-5.649682e-005
5.361226e+002,-8.978462e-005
5.380510e+002,-1.465566e-004
5.399796e+002,-1.363782e-004
5.419081e+002,-1.055887e-004
5.438365e+002,-1.089671e-004
5.457650e+002,-1.822631e-004
5.476935e+002,-1.992639e-004
5.496221e+002,-1.472295e-004
5.515505e+002,-7.622642e-005
5.534790e+002,-1.440849e-005
5.554075e+002,8.347351e-005
5.573361e+002,7.810816e-005
5.592645e+002,-2.401788e-005
5.611931e+002,-4.222011e-005
5.631215e+002,3.030617e-005
5.650500e+002,4.316075e-005
5.669785e+002,7.802388e-005
5.689070e+002,-1.298729e-005
5.708355e+002,-1.449930e-004
5.727640e+002,-8.836249e-005
5.746925e+002,-3.926316e-005
5.766210e+002,-1.917891e-004
5.785495e+002,-2.226057e-004
5.804780e+002,-3.017634e-004
5.824065e+002,-2.550837e-004
5.843350e+002,-1.834813e-004
5.862635e+002,-2.093744e-004
5.881920e+002,-2.315720e-004
5.901205e+002,-1.252866e-004
5.920490e+002,-8.641742e-005
5.939775e+002,-8.722208e-005
5.959060e+002,-1.354944e-004
5.978345e+002,-1.889369e-004
5.997630e+002,-2.323501e-004
6.016915e+002,-2.280348e-004
6.036200e+002,-1.422255e-004
6.055485e+002,-5.033193e-005
6.074770e+002,-6.095786e-005
6.094055e+002,-7.922389e-005
6.113340e+002,-1.734728e-004
6.132625e+002,-1.831064e-004
6.151910e+002,-2.017724e-004
6.171195e+002,-2.000425e-004
6.190480e+002,-2.889931e-004
6.209765e+002,-2.894700e-004
6.229050e+002,-1.572715e-004
6.248335e+002,1.689466e-005
6.267620e+002,1.440477e-005
6.286905e+002,1.491187e-005
6.306190e+002,7.638568e-005
6.325475e+002,1.019640e-004
6.344760e+002,1.099245e-004
6.364045e+002,2.531158e-004
6.383330e+002,3.271708e-004
6.402615e+002,4.009712e-004
6.421899e+002,4.424425e-004
6.441185e+002,4.099524e-004
6.460470e+002,3.234553e-004
6.479755e+002,3.829203e-004
6.499039e+002,3.522858e-004
6.518325e+002,3.695828e-004
6.537610e+002,3.791354e-004
6.556895e+002,5.050637e-004
6.576179e+002,6.051930e-004
6.595464e+002,6.337082e-004
6.614750e+002,6.421832e-004
6.634034e+002,6.691245e-004
6.653319e+002,6.032488e-004
6.672604e+002,7.468858e-004
6.691890e+002,9.024683e-004
6.711174e+002,9.114086e-004
6.730460e+002,8.583465e-004
6.749745e+002,9.862985e-004
6.769030e+002,1.054178e-003
6.788314e+002,1.146755e-003
6.807599e+002,1.308328e-003
6.826885e+002,1.557121e-003
6.846169e+002,1.646469e-003
6.865454e+002,1.793822e-003
6.884739e+002,2.014329e-003
6.904025e+002,2.300018e-003
6.923309e+002,2.574391e-003
6.942594e+002,2.965768e-003
6.961879e+002,3.370306e-003
6.981165e+002,4.163700e-003
7.000449e+002,5.201430e-003
7.019734e+002,6.437636e-003
7.039019e+002,7.941394e-003
7.058304e+002,1.007947e-002
7.077589e+002,1.314087e-002
7.096874e+002,1.786854e-002
7.116159e+002,2.590818e-002
7.135444e+002,4.214151e-002
7.154729e+002,6.991766e-002
7.174014e+002,1.009512e-001
7.193299e+002,1.106461e-001
7.212584e+002,8.388757e-002
7.231869e+002,5.725457e-002
7.251154e+002,4.798979e-002
7.270439e+002,5.265834e-002
7.289724e+002,6.705225e-002
7.309009e+002,6.230115e-002
7.328294e+002,3.593476e-002
7.347579e+002,1.890794e-002
7.366864e+002,1.267435e-002
7.386149e+002,9.949259e-003
7.405434e+002,8.451836e-003
7.424719e+002,7.479924e-003
7.444004e+002,6.619914e-003
7.463289e+002,6.025178e-003
7.482574e+002,5.544835e-003
7.501859e+002,5.142349e-003
7.521144e+002,4.796489e-003
7.540428e+002,4.537283e-003
7.559714e+002,4.261618e-003
7.578999e+002,4.106969e-003
7.598284e+002,4.060441e-003
7.617568e+002,4.005094e-003
7.636854e+002,3.827742e-003
7.656139e+002,3.737423e-003
7.675424e+002,3.748494e-003
7.694709e+002,3.673494e-003
7.713994e+002,3.559000e-003
7.733279e+002,3.506670e-003
7.752563e+002,3.448926e-003
7.771849e+002,3.334779e-003
7.791134e+002,3.211008e-003
7.810419e+002,3.055878e-003
7.829703e+002,2.903007e-003
7.848989e+002,2.793698e-003
7.868274e+002,2.707578e-003
7.887559e+002,2.702142e-003
7.906843e+002,2.767152e-003
7.926129e+002,2.763308e-003
7.945414e+002,2.762794e-003
7.964698e+002,2.782616e-003
7.983983e+002,2.700754e-003
8.003268e+002,2.629708e-003
8.022554e+002,2.683469e-003
8.041838e+002,2.711438e-003
8.061123e+002,2.636029e-003
8.080408e+002,2.529844e-003
8.099694e+002,2.456560e-003
8.118978e+002,2.376655e-003
8.138263e+002,2.302533e-003
8.157548e+002,2.178255e-003
8.176833e+002,2.100487e-003
8.196118e+002,2.087785e-003
8.215403e+002,2.126737e-003
8.234689e+002,2.062981e-003
8.253973e+002,1.969477e-003
8.273258e+002,1.907466e-003
8.292543e+002,1.941044e-003
8.311829e+002,1.911030e-003
8.331113e+002,1.817517e-003
8.350398e+002,1.729243e-003
8.369683e+002,1.759662e-003
8.388969e+002,1.795890e-003
8.408253e+002,1.840306e-003
8.427538e+002,1.887444e-003
8.446823e+002,1.923529e-003
8.466108e+002,1.869968e-003
8.485393e+002,1.887477e-003
8.504678e+002,1.903210e-003
8.523963e+002,1.908611e-003
8.543248e+002,1.911868e-003
8.562533e+002,1.907222e-003
8.581818e+002,1.869977e-003
8.601103e+002,1.880245e-003
8.620388e+002,1.944519e-003
8.639673e+002,2.069114e-003
8.658958e+002,2.064591e-003
8.678243e+002,2.028480e-003
8.697528e+002,2.046065e-003
8.716813e+002,2.180362e-003
8.736098e+002,2.192736e-003
8.755383e+002,2.262197e-003
8.774668e+002,2.332516e-003
8.793953e+002,2.471292e-003
8.813238e+002,2.684357e-003
8.832523e+002,2.876195e-003
8.851808e+002,3.031158e-003
8.871093e+002,3.157781e-003
8.890378e+002,3.187767e-003
8.909663e+002,3.150408e-003
8.928948e+002,3.002748e-003
8.948232e+002,2.880937e-003
8.967518e+002,2.741810e-003
8.986803e+002,2.691614e-003
9.006088e+002,2.614189e-003
9.025372e+002,2.672244e-003
9.044658e+002,2.795007e-003
9.063943e+002,3.024380e-003
9.083228e+002,3.143683e-003
9.102512e+002,3.018669e-003
9.121797e+002,2.747200e-003
9.141083e+002,2.587201e-003
9.160367e+002,2.458422e-003
9.179653e+002,2.400587e-003
9.198937e+002,2.329175e-003
9.218223e+002,2.348911e-003
9.237507e+002,2.351093e-003
9.256793e+002,2.356392e-003
9.276077e+002,2.354778e-003
9.295363e+002,2.369411e-003
9.314647e+002,2.414484e-003
9.333932e+002,2.464037e-003
9.353217e+002,2.382067e-003
9.372502e+002,2.353364e-003
9.391787e+002,2.370603e-003
9.411072e+002,2.397047e-003
9.430358e+002,2.362307e-003
9.449642e+002,2.278592e-003
9.468928e+002,2.251603e-003
9.488212e+002,2.289942e-003
9.507498e+002,2.283268e-003
9.526782e+002,2.343080e-003
9.546068e+002,2.359736e-003
9.565352e+002,2.423902e-003
9.584637e+002,2.478549e-003
9.603922e+002,2.562191e-003
9.623207e+002,2.635635e-003
9.642492e+002,2.724149e-003
9.661777e+002,2.737959e-003
9.681062e+002,2.744304e-003
9.700347e+002,2.721919e-003
9.719632e+002,2.667883e-003
9.738917e+002,2.559661e-003
9.758202e+002,2.563150e-003
9.777487e+002,2.528273e-003
9.796772e+002,2.577420e-003
9.816057e+002,2.620009e-003
9.835342e+002,2.667679e-003
9.854627e+002,2.672066e-003
9.873912e+002,2.723114e-003
9.893197e+002,2.784586e-003
9.912482e+002,2.894755e-003
9.931767e+002,2.912583e-003
9.951052e+002,2.925571e-003
9.970337e+002,2.923790e-003
9.989622e+002,3.008271e-003
1.000891e+003,3.051715e-003
1.002819e+003,3.098965e-003
1.004748e+003,3.120141e-003
1.006676e+003,3.209351e-003
1.008605e+003,3.289699e-003
1.010533e+003,3.397185e-003
1.012462e+003,3.434042e-003
1.014390e+003,3.496414e-003
1.016319e+003,3.549566e-003
1.018247e+003,3.659705e-003
1.020176e+003,3.738591e-003
1.022104e+003,3.770738e-003
1.024033e+003,3.697744e-003
1.025961e+003,3.702833e-003
1.027890e+003,3.737847e-003
1.029818e+003,3.817230e-003
1.031747e+003,3.817705e-003
1.033675e+003,3.879169e-003
1.035604e+003,3.932611e-003
1.037532e+003,4.007354e-003
1.039461e+003,4.023158e-003
1.041389e+003,4.104129e-003
1.043318e+003,4.152506e-003
1.045246e+003,4.191087e-003
1.047175e+003,4.295779e-003
1.049103e+003,4.473630e-003
1.051032e+003,4.520868e-003
1.052960e+003,4.532160e-003
1.054889e+003,4.510617e-003
1.056817e+003,4.598871e-003
1.058746e+003,4.708153e-003
1.060674e+003,4.883667e-003
1.062603e+003,4.975268e-003
1.064531e+003,5.077245e-003
1.066460e+003,5.022178e-003
1.068388e+003,5.009733e-003
1.070317e+003,5.064445e-003
1.072245e+003,5.212488e-003
1.074174e+003,5.303449e-003
1.076102e+003,5.475211e-003
1.078031e+003,5.548591e-003
1.079959e+003,5.557039e-003
1.081888e+003,5.484148e-003
1.083816e+003,5.454721e-003
1.085745e+003,5.332913e-003
1.087673e+003,5.202868e-003
1.089602e+003,5.071423e-003
1.091530e+003,5.008166e-003
1.093459e+003,4.877939e-003
1.095387e+003,4.744416e-003
1.097316e+003,4.592437e-003
1.099244e+003,4.573888e-003
1.101173e+003,4.495007e-003
1.103101e+003,4.385807e-003
1.105030e+003,4.254800e-003
1.106958e+003,4.227160e-003
1.108887e+003,4.121796e-003
1.110815e+003,4.071041e-003
1.112744e+003,4.002338e-003
1.114672e+003,3.963765e-003
1.116601e+003,3.892310e-003
1.118529e+003,3.908974e-003
1.120458e+003,3.846480e-003
1.122386e+003,3.803550e-003
1.124315e+003,3.801593e-003
1.126243e+003,3.912575e-003
1.128172e+003,3.979918e-003
1.130100e+003,4.054851e-003
1.132029e+003,3.985003e-003
1.133957e+003,3.956848e-003
1.135885e+003,3.897768e-003
1.137814e+003,3.838272e-003
1.139743e+003,3.779132e-003
1.141671e+003,3.838130e-003
1.143600e+003,3.845183e-003
1.145528e+003,3.939819e-003
1.147457e+003,4.028689e-003
1.149385e+003,4.209289e-003
1.151314e+003,4.383191e-003
1.153242e+003,4.594280e-003
1.155171e+003,4.710160e-003
1.157099e+003,4.788732e-003
1.159028e+003,4.802373e-003
1.160956e+003,4.860707e-003
1.162885e+003,4.819936e-003
1.164813e+003,4.757866e-003
1.166742e+003,4.629686e-003
1.168670e+003,4.541578e-003
1.170599e+003,4.336900e-003
1.172527e+003,4.173646e-003
1.174456e+003,4.054663e-003
1.176384e+003,4.082165e-003
1.178313e+003,3.970375e-003
1.180241e+003,3.842529e-003
1.182170e+003,3.734423e-003
1.184098e+003,3.743443e-003
1.186027e+003,3.765116e-003
1.187955e+003,3.856311e-003
1.189884e+003,3.880524e-003
1.191812e+003,3.953706e-003
1.193740e+003,3.993624e-003
1.195669e+003,4.136432e-003
1.197598e+003,4.219611e-003
1.199526e+003,4.390731e-003
1.201455e+003,4.510955e-003
1.203383e+003,4.654886e-003
1.205312e+003,4.807054e-003
1.207240e+003,5.002115e-003
1.209168e+003,5.129764e-003
1.211097e+003,5.333095e-003
1.213026e+003,5.516149e-003
1.214954e+003,5.732570e-003
1.216883e+003,5.891549e-003
1.218811e+003,6.077711e-003
1.220740e+003,6.162832e-003
1.222668e+003,6.335845e-003
1.224596e+003,6.492179e-003
1.226525e+003,6.632304e-003
1.228453e+003,6.730648e-003
1.230382e+003,6.887041e-003
1.232311e+003,6.972635e-003
1.234239e+003,7.088113e-003
1.236167e+003,7.109494e-003
1.238096e+003,7.139725e-003
1.240025e+003,7.058409e-003
1.241953e+003,7.006189e-003
1.243882e+003,6.897184e-003
1.245810e+003,6.864284e-003
1.247739e+003,6.803189e-003
1.249667e+003,6.764471e-003
1.251595e+003,6.631112e-003
1.253524e+003,6.634970e-003
1.255453e+003,6.692572e-003
1.257381e+003,6.846054e-003
1.259310e+003,6.908525e-003
1.261238e+003,6.936109e-003
1.263167e+003,6.759358e-003
1.265095e+003,6.640449e-003
1.267023e+003,6.539177e-003
1.268952e+003,6.568522e-003
1.270880e+003,6.560266e-003
1.272809e+003,6.562634e-003
1.274738e+003,6.500252e-003
1.276666e+003,6.607230e-003
1.278594e+003,6.702505e-003
1.280523e+003,6.888861e-003
1.282451e+003,7.020407e-003
1.284380e+003,7.215412e-003
1.286308e+003,7.403853e-003
1.288237e+003,7.757950e-003
1.290166e+003,8.020079e-003
1.292094e+003,8.387264e-003
1.294022e+003,8.727906e-003
1.295951e+003,9.190703e-003
1.297879e+003,9.478894e-003
1.299808e+003,9.734740e-003
1.301736e+003,9.828949e-003
1.303665e+003,9.862365e-003
1.305594e+003,9.751646e-003
1.307522e+003,9.687137e-003
1.309450e+003,9.422900e-003
1.311379e+003,9.188360e-003
1.313307e+003,8.807762e-003
1.315236e+003,8.398760e-003
1.317164e+003,7.994039e-003
1.319093e+003,7.678505e-003
1.321021e+003,7.200304e-003
1.322950e+003,6.892661e-003
1.324878e+003,6.639969e-003
1.326807e+003,6.590409e-003
1.328735e+003,6.541712e-003
1.330664e+003,6.690988e-003
1.332592e+003,6.894351e-003
1.334521e+003,7.422456e-003
1.336449e+003,8.160064e-003
1.338378e+003,9.223303e-003
1.340306e+003,9.869302e-003
1.342235e+003,1.012426e-002
1.344163e+003,1.045760e-002
1.346092e+003,1.109569e-002
1.348021e+003,1.173314e-002
1.349949e+003,1.242151e-002
1.351877e+003,1.274667e-002
1.353806e+003,1.284393e-002
1.355734e+003,1.266503e-002
1.357663e+003,1.274026e-002
1.359591e+003,1.312892e-002
1.361520e+003,1.416668e-002
1.363448e+003,1.538183e-002
1.365377e+003,1.640733e-002
1.367305e+003,1.731938e-002
1.369234e+003,1.783621e-002
1.371162e+003,1.757542e-002
1.373091e+003,1.806082e-002
1.375019e+003,2.007226e-002
1.376948e+003,2.148299e-002
1.378876e+003,1.971460e-002
1.380805e+003,1.522411e-002
1.382733e+003,1.092899e-002
1.384662e+003,8.588092e-003
1.386590e+003,7.349613e-003
1.388519e+003,6.536049e-003
1.390447e+003,5.866494e-003
1.392376e+003,5.802277e-003
1.394304e+003,5.850105e-003
1.396233e+003,5.983463e-003
1.398161e+003,5.794411e-003
1.400090e+003,5.770229e-003
1.402018e+003,5.494915e-003
1.403947e+003,5.849050e-003
1.405875e+003,5.873878e-003
1.407804e+003,6.038359e-003
1.409732e+003,6.129254e-003
1.411661e+003,6.445120e-003
1.413589e+003,6.392802e-003
1.415518e+003,6.816385e-003
1.417446e+003,7.187223e-003
1.419375e+003,8.100521e-003
1.421303e+003,8.243760e-003
1.423232e+003,9.364583e-003
1.425160e+003,1.068226e-002
1.427089e+003,1.255268e-002
1.429017e+003,1.508550e-002
1.430946e+003,1.883136e-002
1.432874e+003,2.177218e-002
1.434803e+003,2.487528e-002
1.436731e+003,2.826820e-002
1.438660e+003,3.105478e-002
1.440588e+003,3.265845e-002
1.442517e+003,3.522630e-002
1.444445e+003,3.722648e-002
1.446374e+003,4.023149e-002
1.448302e+003,4.422922e-002
1.450231e+003,5.020341e-002
1.452159e+003,5.901600e-002
1.454088e+003,7.045828e-002
1.456016e+003,8.184807e-002
1.457945e+003,1.054095e-001
1.459873e+003,1.449380e-001
1.461802e+003,1.890727e-001
1.463730e+003,1.951524e-001
1.465659e+003,1.586044e-001
1.467587e+003,1.477857e-001
1.469516e+003,1.500487e-001
1.471444e+003,1.719746e-001
1.473373e+003,1.455360e-001
1.475301e+003,7.833569e-002
1.477230e+003,3.585986e-002
1.479158e+003,2.313350e-002
1.481087e+003,1.693457e-002
1.483015e+003,1.392343e-002
1.484944e+003,1.158195e-002
1.486872e+003,1.117687e-002
1.488801e+003,1.004881e-002
1.490729e+003,9.560109e-003
1.492658e+003,7.941890e-003
1.494586e+003,7.971475e-003
1.496515e+003,7.400460e-003
1.498443e+003,7.355526e-003
1.500372e+003,6.394805e-003
1.502300e+003,6.262163e-003
1.504229e+003,5.786367e-003
1.506157e+003,7.273546e-003
1.508086e+003,6.848791e-003
1.510014e+003,6.377115e-003
1.511943e+003,5.417239e-003
1.513871e+003,5.403400e-003
1.515800e+003,5.312119e-003
1.517728e+003,5.509456e-003
1.519657e+003,5.190591e-003
1.521585e+003,6.035816e-003
1.523514e+003,5.306166e-003
1.525442e+003,5.449438e-003
1.527371e+003,4.871574e-003
1.529299e+003,4.595266e-003
1.531228e+003,4.325072e-003
1.533156e+003,4.844978e-003
1.535085e+003,4.240033e-003
1.537013e+003,4.291626e-003
1.538942e+003,4.736957e-003
1.540870e+003,6.086898e-003
1.542799e+003,5.294671e-003
1.544727e+003,4.985628e-003
1.546656e+003,3.973690e-003
1.548584e+003,4.032112e-003
1.550513e+003,3.890799e-003
1.552441e+003,3.848113e-003
1.554370e+003,3.776326e-003
1.556298e+003,4.095228e-003
1.558227e+003,4.918626e-003
1.560155e+003,4.906009e-003
1.562084e+003,3.674169e-003
1.564012e+003,3.545627e-003
1.565941e+003,3.293286e-003
1.567869e+003,3.519429e-003
1.569798e+003,3.570964e-003
1.571726e+003,3.279096e-003
1.573655e+003,3.142406e-003
1.575583e+003,3.751489e-003
1.577512e+003,3.613010e-003
1.579440e+003,3.267899e-003
1.581369e+003,3.011497e-003
1.583297e+003,3.020094e-003
1.585226e+003,2.924327e-003
1.587154e+003,2.989110e-003
1.589083e+003,2.910913e-003
1.591011e+003,2.990864e-003
1.592940e+003,2.974746e-003
1.594868e+003,3.090834e-003
1.596797e+003,2.915978e-003
1.598725e+003,2.871451e-003
1.600654e+003,2.806355e-003
1.602582e+003,2.878523e-003
1.604511e+003,2.715653e-003
1.606439e+003,2.902743e-003
1.608368e+003,2.960631e-003
1.610296e+003,2.897654e-003
1.612225e+003,2.688321e-003
1.614153e+003,2.862583e-003
1.616082e+003,3.186463e-003
1.618010e+003,3.231737e-003
1.619939e+003,2.932746e-003
1.621867e+003,3.231798e-003
1.623796e+003,3.351828e-003
1.625724e+003,3.166965e-003
1.627653e+003,3.064301e-003
1.629581e+003,2.988551e-003
1.631510e+003,2.786932e-003
1.633438e+003,2.975726e-003
1.635367e+003,3.685392e-003
1.637295e+003,3.933568e-003
1.639224e+003,3.382464e-003
1.641152e+003,3.183904e-003
1.643081e+003,3.100442e-003
1.645009e+003,3.543049e-003
1.646938e+003,3.973897e-003
1.648866e+003,3.366999e-003
1.650795e+003,3.165188e-003
1.652723e+003,4.453856e-003
1.654652e+003,3.822690e-003
1.656580e+003,2.981607e-003
1.658509e+003,2.484368e-003
1.660437e+003,2.503229e-003
1.662366e+003,2.605677e-003
1.664294e+003,2.423642e-003
1.666223e+003,2.236569e-003
1.668151e+003,2.643993e-003
1.670080e+003,2.804952e-003
1.672008e+003,2.544379e-003
1.673937e+003,2.382845e-003
1.675865e+003,2.374262e-003
1.677794e+003,2.061544e-003
1.679722e+003,2.242083e-003
1.681651e+003,2.264803e-003
1.683579e+003,2.816198e-003
1.685508e+003,2.430212e-003
1.687436e+003,2.231523e-003
1.689365e+003,2.030067e-003
1.691293e+003,1.742238e-003
1.693222e+003,1.491548e-003
1.695150e+003,1.962727e-003
1.697079e+003,2.303315e-003
1.699007e+003,2.523756e-003
1.700936e+003,2.590012e-003
1.702864e+003,2.410926e-003
1.704793e+003,2.449598e-003
1.706721e+003,2.488788e-003
1.708650e+003,2.224172e-003
1.710578e+003,2.230410e-003
1.712507e+003,2.319569e-003
1.714435e+003,2.968432e-003
1.716364e+003,3.716557e-003
1.718292e+003,4.075005e-003
1.720221e+003,3.334954e-003
1.722149e+003,2.992403e-003
1.724078e+003,2.490124e-003
1.726006e+003,1.824891e-003
1.727935e+003,1.298303e-003
1.729863e+003,1.222961e-003
1.731792e+003,1.071671e-003
1.733720e+003,1.013115e-003
1.735649e+003,-4.094653e-004
1.737577e+003,-1.012975e-003
1.739506e+003,-1.679290e-003
1.741434e+003,-2.244357e-003
1.743363e+003,-2.566352e-003
1.745291e+003,-2.534462e-003
1.747220e+003,-2.104314e-003
1.749148e+003,-1.295950e-003
1.751077e+003,-9.301044e-004
1.753005e+003,-8.416455e-004
1.754934e+003,-7.607993e-004
1.756862e+003,-2.920926e-004
1.758791e+003,-2.458449e-004
1.760719e+003,2.334639e-005
1.762648e+003,1.105703e-004
1.764576e+003,7.545575e-005
1.766505e+003,1.261141e-004
1.768433e+003,3.164373e-004
1.770362e+003,4.520081e-004
1.772290e+003,8.162130e-004
1.774219e+003,4.478879e-004
1.776147e+003,2.319813e-004
1.778076e+003,1.028236e-004
1.780004e+003,2.575610e-004
1.781933e+003,1.075175e-004
1.783861e+003,1.246985e-004
1.785790e+003,-4.143082e-005
1.787718e+003,-8.142740e-005
1.789646e+003,-2.732687e-005
1.791575e+003,3.905892e-004
1.793504e+003,2.512839e-004
1.795432e+003,1.762379e-004
1.797361e+003,-1.767464e-005
1.799289e+003,1.335014e-004
1.801218e+003,1.598652e-004
1.803146e+003,-6.878749e-006
1.805074e+003,-3.154930e-004
1.807003e+003,-3.519692e-004
1.808932e+003,-3.721267e-004
1.810860e+003,-2.728552e-004
1.812789e+003,-5.035643e-004
1.814717e+003,-7.527918e-004
1.816646e+003,-9.232033e-004
1.818574e+003,-6.254762e-004
1.820502e+003,-5.772989e-004
1.822431e+003,-4.238058e-004
1.824360e+003,-4.187729e-004
1.826288e+003,-4.998501e-004
1.828217e+003,-5.042236e-004
1.830145e+003,-2.869256e-004
1.832073e+003,-7.425118e-004
1.834002e+003,-8.994024e-004
1.835931e+003,-9.099245e-004
1.837859e+003,-7.136781e-004
1.839788e+003,-9.539686e-004
1.841716e+003,-8.835718e-004
1.843645e+003,-7.470082e-004
1.845573e+003,-5.150270e-004
1.847501e+003,-7.893406e-004
1.849430e+003,-9.873137e-004
1.851359e+003,-1.114555e-003
1.853287e+003,-1.026601e-003
1.855216e+003,-1.221634e-003
1.857144e+003,-1.062836e-003
1.859073e+003,-1.177935e-003
1.861001e+003,-1.032451e-003
1.862929e+003,-1.161585e-003
1.864858e+003,-1.146479e-003
1.866787e+003,-1.022074e-003
1.868715e+003,-5.273744e-004
1.870644e+003,-8.621272e-004
1.872572e+003,-1.027988e-003
1.874500e+003,-1.144541e-003
1.876429e+003,-9.359960e-004
1.878357e+003,-1.066528e-003
1.880286e+003,-1.085563e-003
1.882215e+003,-1.267063e-003
1.884143e+003,-9.896494e-004
1.886072e+003,-9.325147e-004
1.888000e+003,-6.897897e-004
1.889928e+003,-5.470198e-004
1.891857e+003,-9.428337e-005
1.893785e+003,-2.097525e-005
1.895714e+003,1.104604e-004
1.897643e+003,-6.426871e-005
1.899571e+003,-7.188134e-005
1.901500e+003,-7.004477e-005
1.903428e+003,-6.821938e-005
1.905356e+003,-6.640330e-005
1.907285e+003,-6.459840e-005
1.909213e+003,-6.279908e-005
1.911142e+003,-6.101467e-005
1.913071e+003,-5.923584e-005
1.914999e+003,-5.746819e-005
1.916927e+003,-5.570799e-005
1.918856e+003,-5.396083e-005
1.920784e+003,-5.222298e-005
1.922713e+003,-5.049445e-005
1.924641e+003,-4.877709e-005
1.926570e+003,-4.706904e-005
1.928499e+003,-4.536845e-005
1.930427e+003,-4.367903e-005
1.932355e+003,-4.199892e-005
1.934284e+003,-4.032999e-005
1.936212e+003,-3.867038e-005
1.938141e+003,-3.702007e-005
1.940070e+003,-3.537908e-005
1.941998e+003,-3.374927e-005
1.943927e+003,-3.212504e-005
1.945855e+003,-3.051385e-005
1.947783e+003,-2.891570e-005
1.949712e+003,-2.732128e-005
1.951640e+003,-2.573989e-005
1.953569e+003,-2.416782e-005
1.955498e+003,-2.260506e-005
1.957426e+003,-2.105348e-005
1.959354e+003,-1.951121e-005
1.961283e+003,-1.797639e-005
1.963211e+003,-1.645461e-005
1.965140e+003,-1.494214e-005
1.967068e+003,-1.343898e-005
1.968997e+003,-1.194514e-005
1.970926e+003,-1.046062e-005
1.972854e+003,-8.985400e-006
1.974782e+003,-7.521361e-006
1.976711e+003,-6.064773e-006
1.978639e+003,-4.621223e-006
1.980568e+003,-3.186986e-006
1.982496e+003,-1.758337e-006
1.984425e+003,-3.427267e-007
1.986354e+003,1.063570e-006
1.988282e+003,2.458692e-006
1.990210e+003,3.846362e-006
1.992139e+003,5.220994e-006
1.994067e+003,6.586313e-006
1.995996e+003,7.944182e-006
1.997924e+003,9.290874e-006
1.999853e+003,1.062825e-005
2.001781e+003,1.195632e-005
2.003710e+003,1.327507e-005
2.005638e+003,1.458637e-005
2.007567e+003,1.588091e-005
2.009495e+003,1.717173e-005
2.011424e+003,1.844950e-005
2.013352e+003,1.971610e-005
2.015281e+003,2.097711e-005
2.017209e+003,2.222694e-005
2.019138e+003,2.346747e-005
2.021066e+003,2.469681e-005
2.022995e+003,2.591684e-005
2.024923e+003,2.712943e-005
2.026852e+003,2.832897e-005
2.028781e+003,2.952106e-005
2.030709e+003,3.070198e-005
2.032637e+003,3.187358e-005
2.034566e+003,3.303401e-005
2.036494e+003,3.418513e-005
2.038423e+003,3.532879e-005
2.040351e+003,3.645942e-005
2.042280e+003,3.758259e-005
2.044208e+003,3.869459e-005
2.046137e+003,3.979914e-005
2.048065e+003,4.089251e-005
2.049994e+003,4.197657e-005
2.051922e+003,4.304945e-005
2.053851e+003,4.410930e-005
2.055779e+003,4.516542e-005
2.057708e+003,4.621223e-005
2.059636e+003,4.724599e-005
2.061565e+003,4.827045e-005
2.063493e+003,4.928559e-005
2.065422e+003,5.029142e-005
2.067350e+003,5.128980e-005
2.069279e+003,5.227141e-005
2.071207e+003,5.324744e-005
2.073136e+003,5.421415e-005
2.075064e+003,5.516969e-005
2.076993e+003,5.611591e-005
2.078921e+003,5.705468e-005
2.080850e+003,5.798228e-005
2.082778e+003,5.889870e-005
2.084707e+003,5.980581e-005
2.086635e+003,6.070361e-005
2.088564e+003,6.159209e-005
2.090492e+003,6.246753e-005
2.092421e+003,6.333552e-005
2.094349e+003,6.419607e-005
2.096278e+003,6.504729e-005
2.098206e+003,6.588176e-005
2.100135e+003,6.671064e-005
2.102063e+003,6.753393e-005
2.103992e+003,6.834418e-005
2.105920e+003,6.914325e-005
2.107849e+003,6.993487e-005
2.109777e+003,7.071532e-005
2.111706e+003,7.148646e-005
2.113634e+003,7.224642e-005
2.115563e+003,7.299706e-005
2.117491e+003,7.373653e-005
2.119420e+003,7.446855e-005
2.121348e+003,7.519126e-005
2.123277e+003,7.590465e-005
2.125205e+003,7.660687e-005
2.127134e+003,7.729977e-005
2.129062e+003,7.797964e-005
2.130991e+003,7.865578e-005
2.132919e+003,7.931516e-005
2.134848e+003,7.996894e-005
2.136776e+003,8.061342e-005
2.138705e+003,8.124858e-005
2.140633e+003,8.187443e-005
2.142562e+003,8.248538e-005
2.144490e+003,8.309074e-005
2.146419e+003,8.368492e-005
2.148347e+003,8.427165e-005
2.150276e+003,8.484721e-005
2.152204e+003,8.541346e-005
2.154133e+003,8.596852e-005
2.156061e+003,8.651242e-005
2.157990e+003,8.704886e-005
2.159918e+003,8.757412e-005
2.161847e+003,8.809008e-005
2.163775e+003,8.859858e-005
2.165704e+003,8.909777e-005
2.167632e+003,8.958578e-005
2.169561e+003,9.006262e-005
2.171489e+003,9.053014e-005
2.173418e+003,9.098463e-005
2.175346e+003,9.143353e-005
2.177275e+003,9.187311e-005
2.179203e+003,9.230152e-005
2.181132e+003,9.271875e-005
2.183060e+003,9.313039e-005
2.184989e+003,9.352900e-005
2.186917e+003,9.391643e-005
2.188846e+003,9.429641e-005
2.190774e+003,9.467080e-005
2.192703e+003,9.503029e-005
2.194631e+003,9.538047e-005
2.196560e+003,9.572133e-005
2.198488e+003,9.605289e-005
2.200417e+003,9.637140e-005
2.202345e+003,9.668246e-005
2.204274e+003,9.698234e-005
2.206202e+003,9.727478e-005
2.208131e+003,9.755790e-005
2.210059e+003,9.783171e-005
2.211988e+003,9.809434e-005
2.213916e+003,9.834766e-005
2.215845e+003,9.858795e-005
2.217773e+003,9.882264e-005
2.219702e+003,9.904429e-005
2.221630e+003,9.925663e-005
2.223559e+003,9.946153e-005
2.225487e+003,9.965710e-005
2.227416e+003,9.983964e-005
2.229344e+003,1.000147e-004
2.231273e+003,1.001786e-004
2.233201e+003,1.003351e-004
2.235130e+003,1.004804e-004
2.237058e+003,1.006164e-004
2.238987e+003,1.007430e-004
2.240915e+003,1.008604e-004
2.242844e+003,1.009647e-004
2.244772e+003,1.010578e-004
2.246701e+003,1.011454e-004
2.248629e+003,1.012236e-004
2.250558e+003,1.012906e-004
2.252486e+003,1.013465e-004
2.254415e+003,1.013950e-004
2.256343e+003,1.014341e-004
2.258272e+003,1.014620e-004
2.260200e+003,1.014788e-004
2.262129e+003,1.014844e-004
2.264057e+003,1.014862e-004
2.265986e+003,1.014750e-004
2.267914e+003,1.014546e-004
2.269843e+003,1.014229e-004
2.271771e+003,1.013819e-004
2.273700e+003,1.013335e-004
2.275628e+003,1.012720e-004
2.277557e+003,1.012012e-004
2.279485e+003,1.011230e-004
2.281414e+003,1.010355e-004
2.283342e+003,1.009349e-004
2.285271e+003,1.008268e-004
2.287199e+003,1.007076e-004
2.289128e+003,1.005773e-004
2.291056e+003,1.004394e-004
2.292985e+003,1.002923e-004
2.294913e+003,1.001339e-004
2.296842e+003,9.996630e-005
2.298770e+003,9.978935e-005
2.300699e+003,9.960122e-005
2.302627e+003,9.940192e-005
2.304556e+003,9.919703e-005
2.306484e+003,9.897910e-005
2.308413e+003,9.875558e-005
2.310341e+003,9.851903e-005
2.312270e+003,9.827316e-005
2.314198e+003,9.801984e-005
2.316127e+003,9.775534e-005
2.318055e+003,9.748153e-005
2.319984e+003,9.719469e-005
2.321912e+003,9.690225e-005
2.323841e+003,9.659491e-005
2.325769e+003,9.627827e-005
2.327698e+003,9.595416e-005
2.329626e+003,9.562448e-005
2.331555e+003,9.528175e-005
2.333483e+003,9.492598e-005
2.335412e+003,9.456277e-005
2.337340e+003,9.419210e-005
2.339269e+003,9.380840e-005
2.341197e+003,9.341538e-005
2.343126e+003,9.301491e-005
2.345054e+003,9.260140e-005
2.346983e+003,9.217858e-005
2.348911e+003,9.174645e-005
2.350840e+003,9.130500e-005
2.352768e+003,9.085424e-005
2.354697e+003,9.039603e-005
2.356625e+003,8.992665e-005
2.358554e+003,8.944608e-005
2.360482e+003,8.895621e-005
2.362411e+003,8.845702e-005
2.364339e+003,8.794665e-005
2.366268e+003,8.742511e-005
2.368196e+003,8.689612e-005
2.370125e+003,8.635595e-005
2.372053e+003,8.581020e-005
2.373982e+003,8.525141e-005
2.375910e+003,8.468330e-005
2.377839e+003,8.410402e-005
2.379767e+003,8.351728e-005
2.381696e+003,8.292124e-005
2.383624e+003,8.231215e-005
2.385553e+003,8.169375e-005
2.387481e+003,8.106977e-005
2.389410e+003,8.043274e-005
2.391338e+003,7.978268e-005
2.393267e+003,7.912703e-005
2.395195e+003,7.846393e-005
2.397124e+003,7.778779e-005
2.399052e+003,7.710233e-005
2.400981e+003,9.260327e-005
2.402909e+003,8.716062e-005
2.404838e+003,1.363382e-004
2.406766e+003,3.881585e-004
2.408695e+003,7.220525e-004
2.410623e+003,8.355621e-004
2.412552e+003,9.135231e-004
2.414480e+003,8.449629e-004
2.416409e+003,7.369053e-004
2.418337e+003,6.807595e-004
2.420266e+003,6.870441e-004
2.422194e+003,7.446334e-004
2.424123e+003,7.152259e-004
2.426051e+003,5.139075e-004
2.427979e+003,4.581232e-004
2.429908e+003,4.408211e-004
2.431837e+003,5.635861e-004
2.433765e+003,5.745739e-004
2.435694e+003,5.094260e-004
2.437622e+003,4.453547e-004
2.439551e+003,5.598161e-004
2.441479e+003,5.690809e-004
2.443407e+003,6.327853e-004
2.445336e+003,7.097181e-004
2.447265e+003,8.303020e-004
2.449193e+003,7.187650e-004
2.451122e+003,7.197615e-004
2.453050e+003,7.994436e-004
2.454979e+003,8.459911e-004
2.456907e+003,7.868521e-004
2.458836e+003,8.108635e-004
2.460764e+003,7.736366e-004
2.462693e+003,7.834919e-004
2.464621e+003,7.504728e-004
2.466550e+003,8.452609e-004
2.468478e+003,8.717850e-004
2.470406e+003,9.445287e-004
2.472335e+003,1.009868e-003
2.474264e+003,1.066830e-003
2.476192e+003,1.074208e-003
2.478121e+003,1.157910e-003
2.480049e+003,1.198255e-003
2.481978e+003,1.277369e-003
2.483906e+003,1.238214e-003
2.485835e+003,1.280554e-003
2.487763e+003,1.213808e-003
2.489692e+003,1.255859e-003
2.491620e+003,1.346583e-003
2.493549e+003,1.354583e-003
2.495477e+003,1.321489e-003
2.497406e+003,1.391534e-003
2.499334e+003,1.423592e-003
2.501263e+003,1.483373e-003
2.503191e+003,1.603281e-003
2.505120e+003,1.716651e-003
2.507048e+003,1.655396e-003
2.508977e+003,1.638221e-003
2.510905e+003,1.709515e-003
2.512833e+003,1.756595e-003
2.514762e+003,1.824591e-003
2.516691e+003,1.896679e-003
2.518619e+003,1.955668e-003
2.520548e+003,2.093336e-003
2.522476e+003,2.201654e-003
2.524405e+003,2.302378e-003
2.526333e+003,2.474932e-003
2.528261e+003,2.655482e-003
2.530190e+003,2.625396e-003
2.532119e+003,2.530459e-003
2.534047e+003,2.510231e-003
2.535976e+003,2.640314e-003
2.537904e+003,2.525825e-003
2.539833e+003,2.575383e-003
2.541761e+003,2.816400e-003
2.543689e+003,3.009763e-003
2.545618e+003,3.151879e-003
2.547547e+003,3.253348e-003
2.549475e+003,3.350830e-003
2.551404e+003,3.599439e-003
2.553332e+003,3.771959e-003
2.555260e+003,3.885582e-003
2.557189e+003,3.828764e-003
2.559117e+003,3.901584e-003
2.561046e+003,4.041798e-003
2.562975e+003,4.154548e-003
2.564903e+003,4.377907e-003
2.566832e+003,4.570730e-003
2.568760e+003,4.688077e-003
2.570688e+003,4.766716e-003
2.572617e+003,4.742591e-003
2.574546e+003,4.932361e-003
2.576474e+003,5.167034e-003
2.578403e+003,5.411729e-003
2.580331e+003,5.593380e-003
2.582260e+003,5.718194e-003
2.584188e+003,5.939335e-003
2.586116e+003,6.161848e-003
2.588045e+003,6.493930e-003
2.589974e+003,6.760737e-003
2.591902e+003,6.923709e-003
2.593831e+003,7.116804e-003
2.595759e+003,7.377854e-003
2.597688e+003,7.546525e-003
2.599616e+003,7.656742e-003
2.601544e+003,7.878130e-003
2.603473e+003,8.082248e-003
2.605402e+003,8.179123e-003
2.607330e+003,8.419709e-003
2.609259e+003,8.819714e-003
2.611187e+003,9.202989e-003
2.613115e+003,9.605091e-003
2.615044e+003,9.847688e-003
2.616972e+003,1.013958e-002
2.618901e+003,1.057003e-002
2.620830e+003,1.094892e-002
2.622758e+003,1.123394e-002
2.624687e+003,1.163034e-002
2.626615e+003,1.217169e-002
2.628543e+003,1.269508e-002
2.630472e+003,1.311358e-002
2.632400e+003,1.343561e-002
2.634329e+003,1.363968e-002
2.636258e+003,1.375902e-002
2.638186e+003,1.368001e-002
2.640115e+003,1.362583e-002
2.642043e+003,1.367423e-002
2.643971e+003,1.362599e-002
2.645900e+003,1.356026e-002
2.647828e+003,1.362053e-002
2.649757e+003,1.375733e-002
2.651686e+003,1.384955e-002
2.653614e+003,1.392696e-002
2.655542e+003,1.404940e-002
2.657471e+003,1.413991e-002
2.659399e+003,1.416570e-002
2.661328e+003,1.406837e-002
2.663256e+003,1.384776e-002
2.665185e+003,1.361082e-002
2.667114e+003,1.347579e-002
2.669042e+003,1.332207e-002
2.670970e+003,1.313267e-002
2.672899e+003,1.293795e-002
2.674827e+003,1.272976e-002
2.676756e+003,1.257439e-002
2.678685e+003,1.244374e-002
2.680613e+003,1.231352e-002
2.682542e+003,1.215191e-002
2.684470e+003,1.203576e-002
2.686398e+003,1.194831e-002
2.688327e+003,1.180164e-002
2.690255e+003,1.165115e-002
2.692184e+003,1.153860e-002
2.694113e+003,1.151983e-002
2.696041e+003,1.155805e-002
2.697969e+003,1.151632e-002
2.699898e+003,1.151842e-002
2.701826e+003,1.167171e-002
2.703755e+003,1.184527e-002
2.705683e+003,1.203861e-002
2.707612e+003,1.221464e-002
2.709541e+003,1.238686e-002
2.711469e+003,1.253727e-002
2.713397e+003,1.276300e-002
2.715326e+003,1.296591e-002
2.717254e+003,1.313004e-002
2.719183e+003,1.331442e-002
2.721111e+003,1.350218e-002
2.723040e+003,1.376779e-002
2.724969e+003,1.414366e-002
2.726897e+003,1.450855e-002
2.728825e+003,1.477132e-002
2.730754e+003,1.496530e-002
2.732682e+003,1.513933e-002
2.734611e+003,1.528997e-002
2.736539e+003,1.538059e-002
2.738468e+003,1.539410e-002
2.740396e+003,1.545922e-002
2.742325e+003,1.552630e-002
2.744253e+003,1.553592e-002
2.746182e+003,1.547575e-002
2.748110e+003,1.540529e-002
2.750039e+003,1.543524e-002
2.751967e+003,1.556013e-002
2.753896e+003,1.576053e-002
2.755824e+003,1.599110e-002
2.757753e+003,1.626902e-002
2.759681e+003,1.665558e-002
2.761610e+003,1.705346e-002
2.763538e+003,1.750260e-002
2.765467e+003,1.796031e-002
2.767395e+003,1.838728e-002
2.769324e+003,1.890093e-002
2.771252e+003,1.952357e-002
2.773181e+003,2.026875e-002
2.775109e+003,2.107418e-002
2.777038e+003,2.191160e-002
2.778966e+003,2.283543e-002
2.780895e+003,2.389703e-002
2.782823e+003,2.507811e-002
2.784752e+003,2.640862e-002
2.786680e+003,2.786068e-002
2.788609e+003,2.932539e-002
2.790537e+003,3.090056e-002
2.792466e+003,3.270954e-002
2.794394e+003,3.448357e-002
2.796323e+003,3.622521e-002
2.798251e+003,3.805634e-002
2.800180e+003,3.998135e-002
2.802108e+003,4.205480e-002
2.804037e+003,4.432389e-002
2.805965e+003,4.679706e-002
2.807894e+003,4.948273e-002
2.809822e+003,5.244663e-002
2.811751e+003,5.579149e-002
2.813679e+003,5.964669e-002
2.815608e+003,6.410664e-002
2.817536e+003,6.926421e-002
2.819465e+003,7.533335e-002
2.821393e+003,8.253854e-002
2.823322e+003,9.121796e-002
2.825250e+003,1.019275e-001
2.827179e+003,1.156400e-001
2.829107e+003,1.334614e-001
2.831036e+003,1.571951e-001
2.832964e+003,1.899754e-001
2.834893e+003,2.366232e-001
2.836821e+003,3.036321e-001
2.838750e+003,4.014154e-001
2.840678e+003,5.472550e-001
2.842607e+003,7.640565e-001
2.844535e+003,1.065837e+000
2.846464e+003,1.383670e+000
2.848392e+003,1.449480e+000
2.850321e+003,1.172903e+000
2.852249e+003,8.537074e-001
2.854178e+003,6.314204e-001
2.856106e+003,4.848431e-001
2.858035e+003,3.834299e-001
2.859963e+003,3.116837e-001
2.861892e+003,2.617254e-001
2.863820e+003,2.283693e-001
2.865749e+003,2.082485e-001
2.867677e+003,1.985871e-001
2.869606e+003,1.959796e-001
2.871534e+003,1.972773e-001
2.873463e+003,2.018973e-001
2.875391e+003,2.113617e-001
2.877320e+003,2.270243e-001
2.879248e+003,2.487707e-001
2.881177e+003,2.756023e-001
2.883105e+003,3.065248e-001
2.885034e+003,3.410005e-001
2.886962e+003,3.784843e-001
2.888891e+003,4.180725e-001
2.890819e+003,4.586250e-001
2.892748e+003,4.994096e-001
2.894676e+003,5.402418e-001
2.896605e+003,5.819673e-001
2.898533e+003,6.262963e-001
2.900462e+003,6.763153e-001
2.902390e+003,7.368941e-001
2.904319e+003,8.153791e-001
2.906247e+003,9.216885e-001
2.908176e+003,1.066724e+000
2.910104e+003,1.253210e+000
2.912033e+003,1.453398e+000
2.913961e+003,1.587870e+000
2.915890e+003,1.572180e+000
2.917818e+003,1.413419e+000
2.919747e+003,1.199634e+000
2.921675e+003,9.985313e-001
2.923604e+003,8.323300e-001
2.925532e+003,7.003345e-001
2.927461e+003,5.939177e-001
2.929389e+003,5.052559e-001
2.931318e+003,4.299645e-001
2.933246e+003,3.654817e-001
2.935175e+003,3.100992e-001
2.937103e+003,2.627178e-001
2.939032e+003,2.224429e-001
2.940960e+003,1.887290e-001
2.942889e+003,1.613176e-001
2.944817e+003,1.402100e-001
2.946746e+003,1.252105e-001
2.948674e+003,1.156895e-001
2.950603e+003,1.103805e-001
2.952531e+003,1.070421e-001
2.954460e+003,1.037273e-001
2.956388e+003,9.965249e-002
2.958317e+003,9.451130e-002
2.960245e+003,8.836307e-002
2.962174e+003,8.140839e-002
2.964102e+003,7.381510e-002
2.966031e+003,6.588473e-002
2.967959e+003,5.826715e-002
2.969888e+003,5.135784e-002
2.971816e+003,4.526116e-002
2.973745e+003,4.005792e-002
2.975673e+003,3.573640e-002
2.977602e+003,3.211339e-002
2.979530e+003,2.909583e-002
2.981459e+003,2.667909e-002
2.983387e+003,2.468465e-002
2.985316e+003,2.293387e-002
2.987244e+003,2.140951e-002
2.989173e+003,2.007979e-002
2.991101e+003,1.888626e-002
2.993030e+003,1.783567e-002
2.994958e+003,1.692787e-002
2.996887e+003,1.606329e-002
2.998815e+003,1.529023e-002
3.000744e+003,1.454627e-002
3.002672e+003,1.390229e-002
3.004601e+003,1.333467e-002
3.006529e+003,1.284376e-002
3.008458e+003,1.241085e-002
3.010386e+003,1.216917e-002
3.012315e+003,1.202586e-002
3.014243e+003,1.183503e-002
3.016172e+003,1.160017e-002
3.018100e+003,1.142669e-002
3.020029e+003,1.127675e-002
3.021957e+003,1.103770e-002
3.023886e+003,1.089700e-002
3.025814e+003,1.076176e-002
3.027743e+003,1.050381e-002
3.029671e+003,1.032005e-002
3.031600e+003,1.002678e-002
3.033528e+003,9.624530e-003
3.035457e+003,9.321172e-003
3.037385e+003,9.029558e-003
3.039314e+003,8.667158e-003
3.041242e+003,8.280532e-003
3.043171e+003,7.993944e-003
3.045099e+003,7.822886e-003
3.047028e+003,7.516494e-003
3.048956e+003,7.227130e-003
3.050885e+003,6.995598e-003
3.052813e+003,6.819895e-003
3.054742e+003,6.634453e-003
3.056670e+003,6.454254e-003
3.058599e+003,6.197194e-003
3.060527e+003,5.962530e-003
3.062456e+003,5.688092e-003
3.064384e+003,5.592456e-003
3.066313e+003,5.576892e-003
3.068241e+003,5.378496e-003
3.070170e+003,5.174786e-003
3.072098e+003,5.104937e-003
3.074027e+003,5.036684e-003
3.075955e+003,4.916107e-003
3.077884e+003,4.752910e-003
3.079812e+003,4.609313e-003
3.081741e+003,4.515870e-003
3.083669e+003,4.351141e-003
3.085598e+003,4.178308e-003
3.087526e+003,4.011184e-003
3.089455e+003,3.781209e-003
3.091383e+003,3.581978e-003
3.093312e+003,3.375189e-003
3.095240e+003,3.176905e-003
3.097169e+003,2.888111e-003
3.099097e+003,2.564652e-003
3.101026e+003,2.357954e-003
3.102954e+003,2.199395e-003
3.104883e+003,1.991350e-003
3.106811e+003,1.827961e-003
3.108740e+003,1.749396e-003
3.110668e+003,1.698745e-003
3.112597e+003,1.513517e-003
3.114525e+003,1.391234e-003
3.116454e+003,1.322299e-003
3.118382e+003,1.294479e-003
3.120311e+003,1.130106e-003
3.122239e+003,1.040652e-003
3.124168e+003,1.094246e-003
3.126096e+003,1.040291e-003
3.128025e+003,8.735396e-004
3.129953e+003,7.566623e-004
3.131882e+003,8.232594e-004
3.133810e+003,8.396171e-004
3.135739e+003,6.382316e-004
3.137667e+003,5.945601e-004
3.139596e+003,5.813204e-004
3.141524e+003,5.841292e-004
3.143453e+003,5.910099e-004
3.145381e+003,5.768202e-004
3.147310e+003,5.038194e-004
3.149238e+003,5.627424e-004
3.151167e+003,6.226599e-004
3.153095e+003,5.980320e-004
3.155024e+003,5.154572e-004
3.156952e+003,3.666654e-004
3.158881e+003,3.648289e-004
3.160809e+003,4.905723e-004
3.162738e+003,4.486702e-004
3.164666e+003,3.288686e-004
3.166594e+003,3.381558e-004
3.168523e+003,3.638789e-004
3.170452e+003,2.990067e-004
3.172380e+003,3.374517e-004
3.174309e+003,4.148893e-004
3.176237e+003,3.629774e-004
3.178166e+003,4.120246e-004
3.180094e+003,4.305467e-004
3.182022e+003,3.740080e-004
3.183951e+003,4.054159e-004
3.185880e+003,4.450046e-004
3.187808e+003,4.055910e-004
3.189737e+003,3.186353e-004
3.191665e+003,3.157705e-004
3.193594e+003,2.503619e-004
3.195522e+003,2.386495e-004
3.197450e+003,2.545603e-004
3.199379e+003,2.381727e-004
3.201308e+003,1.743138e-004
3.203236e+003,1.162812e-004
3.205165e+003,1.322404e-004
3.207093e+003,1.431406e-004
3.209021e+003,2.342276e-004
3.210950e+003,2.454035e-004
3.212878e+003,2.196729e-004
3.214807e+003,1.269914e-004
3.216736e+003,1.158305e-004
3.218664e+003,1.478866e-004
3.220593e+003,5.864725e-005
3.222521e+003,-5.041063e-005
3.224449e+003,-2.989173e-005
3.226378e+003,1.800805e-005
3.228307e+003,3.995374e-005
3.230235e+003,-1.314282e-005
3.232164e+003,-3.293157e-005
3.234092e+003,8.017942e-005
3.236021e+003,1.192726e-004
3.237949e+003,5.811825e-005
3.239877e+003,1.114979e-005
3.241806e+003,1.100749e-004
3.243735e+003,2.134293e-004
3.245663e+003,1.183376e-004
3.247592e+003,-3.635511e-005
3.249520e+003,-8.642673e-007
3.251448e+003,-2.756715e-007
3.253377e+003,4.285201e-005
3.255305e+003,1.319684e-004
3.257234e+003,1.493953e-004
3.259163e+003,7.347763e-005
3.261091e+003,8.782372e-005
3.263020e+003,2.561137e-005
3.264948e+003,5.145743e-005
3.266876e+003,1.055673e-004
3.268805e+003,8.408725e-005
3.270733e+003,1.030192e-004
3.272662e+003,2.149902e-004
3.274591e+003,3.044158e-004
3.276519e+003,2.514832e-004
3.278448e+003,2.484769e-004
3.280376e+003,2.326146e-004
3.282304e+003,1.765639e-004
3.284233e+003,9.971485e-005
3.286161e+003,4.256517e-005
3.288090e+003,7.602945e-005
3.290019e+003,7.853657e-005
3.291947e+003,7.827580e-005
3.293875e+003,5.231425e-005
3.295804e+003,3.282726e-005
3.297732e+003,1.449138e-005
3.299661e+003,1.206659e-004
3.301589e+003,1.397580e-004
3.303518e+003,6.893650e-005
3.305447e+003,-5.494803e-006
3.307375e+003,7.392839e-005
3.309303e+003,1.623444e-004
3.311232e+003,1.036823e-004
3.313160e+003,1.046881e-004
3.315089e+003,1.056977e-004
3.317018e+003,8.608773e-005
3.318946e+003,8.794293e-005
3.320875e+003,1.252741e-004
3.322803e+003,1.110099e-004
3.324731e+003,6.100163e-005
3.326660e+003,3.849342e-005
3.328588e+003,-1.712516e-005
3.330517e+003,-2.191961e-005
3.332446e+003,-4.074350e-005
3.334374e+003,7.608905e-005
3.336302e+003,2.612285e-004
3.338231e+003,3.045686e-004
3.340159e+003,2.702959e-004
3.342088e+003,1.997463e-004
3.344016e+003,1.296401e-004
3.345945e+003,1.276024e-004
3.347874e+003,8.198246e-005
3.349802e+003,2.958998e-005
3.351730e+003,8.585677e-005
3.353659e+003,1.405627e-004
3.355587e+003,1.622997e-004
3.357516e+003,1.203604e-004
3.359444e+003,7.380173e-005
3.361373e+003,1.277439e-004
3.363302e+003,1.098774e-004
3.365230e+003,9.548292e-005
3.367158e+003,1.326278e-004
3.369087e+003,1.968592e-004
3.371015e+003,1.926273e-004
3.372944e+003,5.842745e-005
3.374872e+003,-2.603978e-006
3.376801e+003,5.458668e-005
3.378729e+003,4.620478e-005
3.380658e+003,2.051517e-005
3.382586e+003,2.195314e-005
3.384515e+003,-3.654510e-005
3.386443e+003,-1.882911e-004
3.388372e+003,-1.881868e-004
3.390300e+003,-7.909164e-005
3.392229e+003,-6.377324e-005
3.394157e+003,-1.669973e-004
3.396086e+003,-1.510531e-004
3.398014e+003,-2.372824e-004
3.399943e+003,-3.766567e-004
3.401871e+003,-3.054254e-004
3.403800e+003,-2.713576e-004
3.405728e+003,-3.142022e-004
3.407657e+003,-3.476068e-004
3.409585e+003,-4.129522e-004
3.411514e+003,-4.168637e-004
3.413442e+003,-4.036538e-004
3.415371e+003,-3.573745e-004
3.417299e+003,-3.070720e-004
3.419228e+003,-1.787730e-004
3.421156e+003,-1.970790e-004
3.423085e+003,-2.733693e-004
3.425013e+003,-3.251322e-004
3.426942e+003,-4.258715e-004
3.428870e+003,-4.807711e-004
3.430799e+003,-4.322343e-004
3.432727e+003,-4.504286e-004
3.434656e+003,-4.341751e-004
3.436584e+003,-4.360415e-004
3.438513e+003,-4.630648e-004
3.440441e+003,-3.913380e-004
3.442370e+003,-2.564490e-004
3.444298e+003,-2.800822e-004
3.446227e+003,-4.902110e-005
3.448155e+003,-8.607656e-005
3.450084e+003,-3.491417e-004
3.452012e+003,-4.854091e-004
3.453941e+003,-5.667098e-004
3.455869e+003,-6.628670e-004
3.457798e+003,-7.927008e-004
3.459726e+003,-7.214621e-004
3.461655e+003,-6.292984e-004
3.463583e+003,-6.724596e-004
3.465512e+003,-7.338449e-004
3.467440e+003,-7.499568e-004
3.469369e+003,-8.041486e-004
3.471297e+003,-7.988587e-004
3.473226e+003,-7.608570e-004
3.475154e+003,-8.845478e-004
3.477083e+003,-1.015570e-003
3.479011e+003,-9.606332e-004
3.480940e+003,-7.532053e-004
3.482868e+003,-7.339008e-004
3.484797e+003,-8.377507e-004
3.486725e+003,-8.252449e-004
3.488654e+003,-8.027963e-004
3.490582e+003,-9.587072e-004
3.492511e+003,-9.944066e-004
3.494439e+003,-9.869523e-004
3.496368e+003,-1.091164e-003
3.498296e+003,-1.099378e-003
3.500225e+003,-9.325929e-004
3.502153e+003,-5.315058e-004
3.504082e+003,-5.076639e-004
3.506010e+003,-8.915737e-004
3.507939e+003,-8.992553e-004
3.509867e+003,-8.286797e-004
3.511796e+003,-1.016825e-003
3.513724e+003,-1.167297e-003
3.515653e+003,-1.286190e-003
3.517581e+003,-1.327578e-003
3.519510e+003,-1.394980e-003
3.521438e+003,-1.179870e-003
3.523367e+003,-8.892231e-004
3.525295e+003,-8.967333e-004
3.527224e+003,-6.737299e-004
3.529152e+003,-7.414445e-004
3.531081e+003,-1.102727e-003
3.533009e+003,-1.368761e-003
3.534938e+003,-1.303922e-003
3.536866e+003,-1.267165e-003
3.538795e+003,-1.529586e-003
3.540723e+003,-1.638174e-003
3.542652e+003,-1.316246e-003
3.544580e+003,-7.519200e-004
3.546509e+003,-6.134883e-004
3.548437e+003,-1.041885e-003
3.550366e+003,-1.109771e-003
3.552294e+003,-9.209812e-004
3.554223e+003,-1.140028e-003
3.556151e+003,-1.269408e-003
3.558080e+003,-1.272615e-003
3.560008e+003,-1.485255e-003
3.561937e+003,-1.621004e-003
3.563865e+003,-1.104284e-003
3.565794e+003,3.000796e-004
3.567722e+003,7.510744e-004
3.569651e+003,-4.853830e-004
3.571579e+003,-1.242928e-003
3.573508e+003,-1.484945e-003
3.575436e+003,-1.386710e-003
3.577365e+003,-1.269486e-003
3.579293e+003,-1.283847e-003
3.581222e+003,-1.402419e-003
3.583150e+003,-1.400400e-003
3.585079e+003,-9.015091e-004
3.587007e+003,2.662316e-004
3.588936e+003,-4.403293e-006
3.590864e+003,-5.263351e-004
3.592793e+003,-2.654418e-004
3.594721e+003,1.492463e-004
3.596650e+003,6.749816e-004
3.598578e+003,1.457185e-003
3.600507e+003,1.797568e-003
3.602435e+003,1.570377e-003
3.604364e+003,1.305111e-003
3.606292e+003,1.559388e-003
3.608221e+003,1.829427e-003
3.610149e+003,1.339898e-003
3.612078e+003,1.558881e-003
3.614006e+003,1.507070e-003
3.615935e+003,8.078255e-004
3.617863e+003,1.252554e-003
3.619792e+003,1.713380e-003
3.621720e+003,6.458424e-004
3.623649e+003,-2.890341e-004
3.625577e+003,-6.160028e-004
3.627506e+003,1.937337e-004
3.629434e+003,1.643933e-003
3.631363e+003,1.022179e-003
3.633291e+003,6.145127e-004
3.635220e+003,2.119355e-004
3.637148e+003,4.348531e-005
3.639077e+003,5.841255e-005
3.641005e+003,1.016706e-004
3.642934e+003,-4.155487e-004
3.644862e+003,-4.981086e-004
3.646791e+003,7.181056e-004
3.648719e+003,2.549235e-003
3.650648e+003,2.485365e-003
3.652576e+003,6.027780e-004
3.654505e+003,-3.096461e-005
3.656433e+003,-6.695092e-005
3.658362e+003,-2.881996e-004
3.660290e+003,-4.784763e-004
3.662219e+003,-7.073618e-004
3.664147e+003,-1.154382e-003
3.666076e+003,-1.452949e-003
3.668004e+003,-7.991642e-004
3.669933e+003,5.622730e-004
3.671861e+003,1.021288e-004
3.673790e+003,7.613972e-004
3.675718e+003,2.568413e-003
3.677647e+003,1.463782e-003
3.679575e+003,5.195923e-004
3.681504e+003,-3.277287e-004
3.683432e+003,-9.404421e-004
3.685361e+003,-1.284327e-003
3.687289e+003,-6.561764e-004
3.689218e+003,1.022644e-003
3.691146e+003,1.169778e-003
3.693075e+003,2.656579e-004
3.695003e+003,-1.627952e-004
3.696932e+003,-4.837029e-004
3.698860e+003,-7.148162e-004
3.700789e+003,-3.447011e-004
3.702717e+003,-3.045946e-004
3.704646e+003,-6.149597e-004
3.706574e+003,-5.179420e-004
3.708503e+003,-2.207235e-005
3.710431e+003,1.238741e-003
3.712360e+003,1.644358e-003
3.714288e+003,5.074181e-004
3.716217e+003,-2.441145e-004
3.718145e+003,-1.801886e-004
3.720074e+003,1.300573e-004
3.722002e+003,6.143972e-004
3.723931e+003,6.443821e-004
3.725859e+003,7.416680e-004
3.727788e+003,1.901016e-004
3.729716e+003,-3.048219e-004
3.731645e+003,-1.287535e-004
3.733573e+003,1.542531e-003
3.735502e+003,3.571820e-003
3.737430e+003,2.270415e-003
3.739359e+003,9.682141e-004
3.741287e+003,2.706125e-004
3.743216e+003,6.806590e-004
3.745144e+003,1.903839e-003
3.747073e+003,1.668956e-003
3.749001e+003,2.098721e-003
3.750930e+003,3.352273e-003
3.752858e+003,2.052553e-003
3.754787e+003,1.009751e-003
3.756715e+003,6.758794e-004
3.758644e+003,5.661286e-004
3.760572e+003,2.566352e-004
3.762501e+003,-3.589876e-004
3.764429e+003,-2.137460e-004
3.766358e+003,-1.723245e-004
3.768286e+003,2.660155e-004
3.770215e+003,8.012466e-004
3.772143e+003,9.130687e-005
3.774072e+003,-5.545020e-004
3.776000e+003,-7.059351e-004
3.777929e+003,-3.001839e-004
3.779857e+003,-3.110245e-005
3.781786e+003,-1.651496e-004
3.783714e+003,2.743788e-004
3.785643e+003,5.803369e-004
3.787571e+003,2.020374e-004
3.789500e+003,-1.611039e-004
3.791428e+003,-1.278706e-004
3.793357e+003,-5.025379e-004
3.795285e+003,-4.160963e-004
3.797214e+003,2.703071e-005
3.799142e+003,3.313087e-004
3.801071e+003,1.769204e-003
3.802999e+003,1.326755e-003
3.804927e+003,1.023889e-003
3.806856e+003,1.850244e-003
3.808785e+003,9.827055e-004
3.810713e+003,2.158880e-004
3.812642e+003,-3.880262e-005
3.814570e+003,4.008338e-004
3.816499e+003,9.745546e-004
3.818427e+003,1.195595e-003
3.820355e+003,2.712712e-003
3.822284e+003,2.761729e-003
3.824213e+003,1.689486e-003
3.826141e+003,1.314636e-003
3.828070e+003,5.918220e-004
3.829998e+003,1.501106e-004
3.831927e+003,3.470331e-004
3.833855e+003,5.608387e-004
3.835783e+003,1.220960e-003
3.837712e+003,2.617974e-003
3.839641e+003,3.037367e-003
3.841569e+003,2.331164e-003
3.843498e+003,1.728281e-003
3.845426e+003,7.930510e-004
3.847354e+003,1.709983e-004
3.849283e+003,4.627928e-005
3.851211e+003,7.386953e-004
3.853140e+003,3.392130e-003
3.855069e+003,3.390420e-003
3.856997e+003,2.091590e-003
3.858926e+003,8.727908e-004
3.860854e+003,7.516108e-004
3.862782e+003,1.205936e-003
3.864711e+003,1.676641e-003
3.866640e+003,7.893406e-004
3.868568e+003,1.351535e-003
3.870497e+003,2.662454e-003
3.872425e+003,2.463229e-003
3.874354e+003,2.200451e-003
3.876282e+003,1.113862e-003
3.878210e+003,6.225966e-004
3.880139e+003,1.196787e-003
3.882068e+003,1.171503e-003
3.883996e+003,1.434587e-003
3.885925e+003,1.795448e-003
3.887853e+003,9.881854e-004
3.889781e+003,1.143660e-003
3.891710e+003,1.694880e-003
3.893638e+003,1.010146e-003
3.895567e+003,2.446920e-004
3.897496e+003,2.936348e-004
3.899424e+003,7.959194e-004
3.901353e+003,1.476176e-003
3.903281e+003,2.574489e-003
3.905209e+003,2.621196e-003
3.907138e+003,1.495104e-003
3.909066e+003,6.604195e-004
3.910995e+003,2.518110e-004
3.912924e+003,-9.382144e-005
3.914852e+003,2.608784e-004
3.916781e+003,8.466765e-004
3.918709e+003,7.402375e-004
3.920637e+003,6.394200e-004
3.922566e+003,8.843951e-004
3.924494e+003,1.054656e-003
3.926423e+003,5.442984e-004
3.928352e+003,4.621632e-004
3.930280e+003,7.749312e-004
3.932208e+003,1.063064e-003
3.934137e+003,6.379299e-004
3.936065e+003,2.155378e-004
3.937994e+003,9.339303e-006
3.939922e+003,-8.644536e-005
3.941851e+003,4.621781e-004
3.943780e+003,5.638264e-004
3.945708e+003,3.052689e-004
3.947636e+003,4.818141e-004
3.949565e+003,3.826581e-004
3.951493e+003,-1.240149e-005
3.953422e+003,-2.379678e-004
3.955351e+003,-2.233498e-004
3.957279e+003,-1.817867e-004
3.959208e+003,-1.862459e-004
3.961136e+003,-1.723692e-005
3.963064e+003,-9.267032e-005
3.964993e+003,-1.710169e-004
3.966921e+003,-1.307391e-004
3.968850e+003,-1.443326e-004
3.970779e+003,-1.533069e-004
3.972707e+003,-9.454787e-005
3.974635e+003,-9.423122e-005
3.976564e+003,-9.868667e-005
3.978492e+003,-1.040548e-004
3.980421e+003,-1.918823e-004
3.982349e+003,-1.616664e-004
3.984278e+003,-1.458935e-004
3.986207e+003,-1.686215e-004
3.988135e+003,-1.335666e-004
3.990063e+003,-7.183850e-005
3.991992e+003,-8.990243e-005
3.993920e+003,-7.859245e-005
3.995849e+003,-2.570637e-004
3.997777e+003,-3.873520e-004
3.999706e+003,-3.954917e-004
4.001635e+003,0.000000e+000
