3.991992e+002,0.000000e+000
4.011277e+002,0.000000e+000
4.030562e+002,0.000000e+000
4.049846e+002,0.000000e+000
4.069131e+002,0.000000e+000
4.088416e+002,0.000000e+000
4.107701e+002,0.000000e+000
4.126986e+002,0.000000e+000
4.146271e+002,0.000000e+000
4.165556e+002,0.000000e+000
4.184841e+002,0.000000e+000
4.204126e+002,0.000000e+000
4.223411e+002,0.000000e+000
4.242697e+002,0.000000e+000
4.261982e+002,0.000000e+000
4.281266e+002,0.000000e+000
4.300551e+002,0.000000e+000
4.319836e+002,0.000000e+000
4.339121e+002,0.000000e+000
4.358406e+002,0.000000e+000
4.377691e+002,0.000000e+000
4.396976e+002,0.000000e+000
4.416261e+002,0.000000e+000
4.435546e+002,0.000000e+000
4.454831e+002,0.000000e+000
4.474116e+002,0.000000e+000
4.493401e+002,0.000000e+000
4.512686e+002,0.000000e+000
4.531971e+002,0.000000e+000
4.551256e+002,0.000000e+000
4.570541e+002,0.000000e+000
4.589826e+002,0.000000e+000
4.609111e+002,0.000000e+000
4.628396e+002,0.000000e+000
4.647681e+002,0.000000e+000
4.666966e+002,0.000000e+000
4.686251e+002,0.000000e+000
4.705536e+002,0.000000e+000
4.724821e+002,0.000000e+000
4.744106e+002,0.000000e+000
4.763391e+002,0.000000e+000
4.782676e+002,0.000000e+000
4.801961e+002,0.000000e+000
4.821246e+002,0.000000e+000
4.840531e+002,0.000000e+000
4.859816e+002,0.000000e+000
4.879101e+002,0.000000e+000
4.898386e+002,0.000000e+000
4.917671e+002,0.000000e+000
4.936956e+002,0.000000e+000
4.956241e+002,0.000000e+000
4.975526e+002,0.000000e+000
4.994811e+002,0.000000e+000
5.014096e+002,0.000000e+000
5.033381e+002,0.000000e+000
5.052666e+002,0.000000e+000
5.071951e+002,0.000000e+000
5.091236e+002,0.000000e+000
5.110521e+002,0.000000e+000
5.129806e+002,0.000000e+000
5.149091e+002,0.000000e+000
5.168376e+002,0.000000e+000
5.187661e+002,0.000000e+000
5.206946e+002,0.000000e+000
5.226230e+002,0.000000e+000
5.245516e+002,-1.121284e-004
5.264800e+002,-1.056213e-005
5.284086e+002,1.049330e-004
5.303370e+002,6.400328e-005
5.322656e+002,1.163185e-004
5.341940e+002,5.545001e-005
5.361226e+002,-6.807316e-005
5.380510e+002,-5.766097e-005
5.399796e+002,6.147008e-005
5.419081e+002,5.050655e-005
5.438365e+002,-1.971517e-005
5.457650e+002,-5.219132e-006
5.476935e+002,1.047654e-004
5.496221e+002,1.033107e-004
5.515505e+002,9.573903e-005
5.534790e+002,8.845329e-005
5.554075e+002,1.495257e-004
5.573361e+002,1.065312e-004
5.592645e+002,6.612577e-005
5.611931e+002,5.151611e-005
5.631215e+002,3.011897e-005
5.650500e+002,3.293250e-005
5.669785e+002,6.169453e-005
5.689070e+002,-7.079635e-005
5.708355e+002,-1.385044e-004
5.727640e+002,-1.531290e-004
5.746925e+002,-1.546508e-004
5.766210e+002,-1.172377e-004
5.785495e+002,-1.099221e-004
5.804780e+002,-1.614913e-004
5.824065e+002,-1.614066e-004
5.843350e+002,-1.702160e-004
5.862635e+002,-1.619803e-004
5.881920e+002,-2.402924e-004
5.901205e+002,-1.386823e-004
5.920490e+002,-3.873929e-005
5.939775e+002,-7.412862e-005
5.959060e+002,-1.373822e-004
5.978345e+002,-1.276573e-004
5.997630e+002,-8.972082e-005
6.016915e+002,-6.861705e-005
6.036200e+002,-1.537781e-004
6.055485e+002,-1.139678e-004
6.074770e+002,-7.267017e-005
6.094055e+002,-1.112092e-005
6.113340e+002,-6.360374e-005
6.132625e+002,-1.145136e-004
6.151910e+002,-1.875246e-004
6.171195e+002,-2.085026e-004
6.190480e+002,-1.651114e-004
6.209765e+002,-3.639888e-005
6.229050e+002,2.122764e-005
6.248335e+002,1.232065e-004
6.267620e+002,1.960304e-004
6.286905e+002,2.046758e-004
6.306190e+002,1.415443e-004
6.325475e+002,2.374519e-004
6.344760e+002,3.401740e-004
6.364045e+002,4.204893e-004
6.383330e+002,4.433319e-004
6.402615e+002,4.878510e-004
6.421899e+002,5.126502e-004
6.441185e+002,5.522072e-004
6.460470e+002,5.289502e-004
6.479755e+002,5.492084e-004
6.499039e+002,4.689330e-004
6.518325e+002,5.712509e-004
6.537610e+002,5.829493e-004
6.556895e+002,6.339811e-004
6.576179e+002,6.708819e-004
6.595464e+002,7.308917e-004
6.614750e+002,7.468732e-004
6.634034e+002,7.273713e-004
6.653319e+002,6.850716e-004
6.672604e+002,8.361209e-004
6.691890e+002,9.204596e-004
6.711174e+002,9.731175e-004
6.730460e+002,1.076443e-003
6.749745e+002,1.217868e-003
6.769030e+002,1.243962e-003
6.788314e+002,1.406450e-003
6.807599e+002,1.489630e-003
6.826885e+002,1.610475e-003
6.846169e+002,1.717383e-003
6.865454e+002,1.908822e-003
6.884739e+002,2.050748e-003
6.904025e+002,2.319207e-003
6.923309e+002,2.632942e-003
6.942594e+002,3.025128e-003
6.961879e+002,3.429960e-003
6.981165e+002,4.177354e-003
7.000449e+002,5.123887e-003
7.019734e+002,6.325375e-003
7.039019e+002,7.817646e-003
7.058304e+002,9.954248e-003
7.077589e+002,1.286655e-002
7.096874e+002,1.735483e-002
7.116159e+002,2.471433e-002
7.135444e+002,3.895535e-002
7.154729e+002,6.427822e-002
7.174014e+002,9.654260e-002
7.193299e+002,1.094199e-001
7.212584e+002,8.351901e-002
7.231869e+002,5.680928e-002
7.251154e+002,4.716760e-002
7.270439e+002,5.123970e-002
7.289724e+002,6.424464e-002
7.309009e+002,5.887430e-002
7.328294e+002,3.371148e-002
7.347579e+002,1.777328e-002
7.366864e+002,1.203261e-002
7.386149e+002,9.499284e-003
7.405434e+002,7.897785e-003
7.424719e+002,6.927755e-003
7.444004e+002,6.188454e-003
7.463289e+002,5.665598e-003
7.482574e+002,5.151769e-003
7.501859e+002,4.746251e-003
7.521144e+002,4.363893e-003
7.540428e+002,4.142044e-003
7.559714e+002,3.970323e-003
7.578999e+002,3.814783e-003
7.598284e+002,3.674053e-003
7.617568e+002,3.595166e-003
7.636854e+002,3.546948e-003
7.656139e+002,3.488509e-003
7.675424e+002,3.437379e-003
7.694709e+002,3.364094e-003
7.713994e+002,3.273752e-003
7.733279e+002,3.178416e-003
7.752563e+002,3.083626e-003
7.771849e+002,2.997428e-003
7.791134e+002,2.917562e-003
7.810419e+002,2.815727e-003
7.829703e+002,2.694642e-003
7.848989e+002,2.585622e-003
7.868274e+002,2.560416e-003
7.887559e+002,2.497364e-003
7.906843e+002,2.424087e-003
7.926129e+002,2.413809e-003
7.945414e+002,2.444126e-003
7.964698e+002,2.490604e-003
7.983983e+002,2.458612e-003
8.003268e+002,2.401115e-003
8.022554e+002,2.313104e-003
8.041838e+002,2.269380e-003
8.061123e+002,2.303395e-003
8.080408e+002,2.312744e-003
8.099694e+002,2.327818e-003
8.118978e+002,2.307544e-003
8.138263e+002,2.271298e-003
8.157548e+002,2.234660e-003
8.176833e+002,2.132332e-003
8.196118e+002,2.021750e-003
8.215403e+002,1.936756e-003
8.234689e+002,1.799868e-003
8.253973e+002,1.699461e-003
8.273258e+002,1.527958e-003
8.292543e+002,1.384811e-003
8.311829e+002,1.310607e-003
8.331113e+002,1.289347e-003
8.350398e+002,1.217086e-003
8.369683e+002,1.170335e-003
8.388969e+002,1.161080e-003
8.408253e+002,1.199067e-003
8.427538e+002,1.163976e-003
8.446823e+002,1.164585e-003
8.466108e+002,1.182860e-003
8.485393e+002,1.220189e-003
8.504678e+002,1.241060e-003
8.523963e+002,1.267521e-003
8.543248e+002,1.223309e-003
8.562533e+002,1.216255e-003
8.581818e+002,1.245655e-003
8.601103e+002,1.299817e-003
8.620388e+002,1.392245e-003
8.639673e+002,1.496514e-003
8.658958e+002,1.580842e-003
8.678243e+002,1.623331e-003
8.697528e+002,1.608677e-003
8.716813e+002,1.702195e-003
8.736098e+002,1.774663e-003
8.755383e+002,1.802569e-003
8.774668e+002,1.862481e-003
8.793953e+002,2.022522e-003
8.813238e+002,2.205096e-003
8.832523e+002,2.456846e-003
8.851808e+002,2.640465e-003
8.871093e+002,2.760278e-003
8.890378e+002,2.721837e-003
8.909663e+002,2.577566e-003
8.928948e+002,2.423340e-003
8.948232e+002,2.340918e-003
8.967518e+002,2.261644e-003
8.986803e+002,2.189023e-003
9.006088e+002,2.105838e-003
9.025372e+002,2.077471e-003
9.044658e+002,2.215881e-003
9.063943e+002,2.496716e-003
9.083228e+002,2.603255e-003
9.102512e+002,2.422011e-003
9.121797e+002,2.104290e-003
9.141083e+002,1.877021e-003
9.160367e+002,1.722910e-003
9.179653e+002,1.749139e-003
9.198937e+002,1.711246e-003
9.218223e+002,1.702847e-003
9.237507e+002,1.697540e-003
9.256793e+002,1.730116e-003
9.276077e+002,1.761671e-003
9.295363e+002,1.775507e-003
9.314647e+002,1.761638e-003
9.333932e+002,1.867043e-003
9.353217e+002,1.933007e-003
9.372502e+002,1.941202e-003
9.391787e+002,1.928356e-003
9.411072e+002,1.943056e-003
9.430358e+002,1.956234e-003
9.449642e+002,2.001107e-003
9.468928e+002,1.994509e-003
9.488212e+002,2.034027e-003
9.507498e+002,2.094429e-003
9.526782e+002,2.182191e-003
9.546068e+002,2.217680e-003
9.565352e+002,2.301807e-003
9.584637e+002,2.375370e-003
9.603922e+002,2.513535e-003
9.623207e+002,2.631417e-003
9.642492e+002,2.705576e-003
9.661777e+002,2.750466e-003
9.681062e+002,2.770266e-003
9.700347e+002,2.729138e-003
9.719632e+002,2.709372e-003
9.738917e+002,2.676098e-003
9.758202e+002,2.688171e-003
9.777487e+002,2.675388e-003
9.796772e+002,2.686867e-003
9.816057e+002,2.704395e-003
9.835342e+002,2.782583e-003
9.854627e+002,2.832998e-003
9.873912e+002,2.971711e-003
9.893197e+002,3.157949e-003
9.912482e+002,3.329435e-003
9.931767e+002,3.477039e-003
9.951052e+002,3.671953e-003
9.970337e+002,3.816409e-003
9.989622e+002,3.962729e-003
1.000891e+003,4.137145e-003
1.002819e+003,4.406627e-003
1.004748e+003,4.618708e-003
1.006676e+003,4.852371e-003
1.008605e+003,5.046327e-003
1.010533e+003,5.308954e-003
1.012462e+003,5.517097e-003
1.014390e+003,5.728887e-003
1.016319e+003,5.914861e-003
1.018247e+003,6.159246e-003
1.020176e+003,6.346243e-003
1.022104e+003,6.502675e-003
1.024033e+003,6.605547e-003
1.025961e+003,6.768990e-003
1.027890e+003,6.893693e-003
1.029818e+003,7.029647e-003
1.031747e+003,7.098421e-003
1.033675e+003,7.115705e-003
1.035604e+003,7.087631e-003
1.037532e+003,7.104561e-003
1.039461e+003,7.058863e-003
1.041389e+003,7.060673e-003
1.043318e+003,7.003801e-003
1.045246e+003,6.993366e-003
1.047175e+003,7.051693e-003
1.049103e+003,7.270023e-003
1.051032e+003,7.375082e-003
1.052960e+003,7.399354e-003
1.054889e+003,7.440463e-003
1.056817e+003,7.623255e-003
1.058746e+003,7.767364e-003
1.060674e+003,7.968608e-003
1.062603e+003,8.076116e-003
1.064531e+003,8.118780e-003
1.066460e+003,8.113256e-003
1.068388e+003,8.164976e-003
1.070317e+003,8.247744e-003
1.072245e+003,8.395530e-003
1.074174e+003,8.523824e-003
1.076102e+003,8.741925e-003
1.078031e+003,8.894041e-003
1.079959e+003,8.972913e-003
1.081888e+003,8.911524e-003
1.083816e+003,8.893773e-003
1.085745e+003,8.794885e-003
1.087673e+003,8.685261e-003
1.089602e+003,8.481303e-003
1.091530e+003,8.296043e-003
1.093459e+003,8.075943e-003
1.095387e+003,7.907506e-003
1.097316e+003,7.708373e-003
1.099244e+003,7.545693e-003
1.101173e+003,7.308716e-003
1.103101e+003,7.124493e-003
1.105030e+003,6.988147e-003
1.106958e+003,6.887510e-003
1.108887e+003,6.693158e-003
1.110815e+003,6.529536e-003
1.112744e+003,6.354328e-003
1.114672e+003,6.231630e-003
1.116601e+003,6.097125e-003
1.118529e+003,6.020706e-003
1.120458e+003,5.910216e-003
1.122386e+003,5.853418e-003
1.124315e+003,5.772091e-003
1.126243e+003,5.793074e-003
1.128172e+003,5.806305e-003
1.130100e+003,5.786767e-003
1.132029e+003,5.702749e-003
1.133957e+003,5.666479e-003
1.135885e+003,5.615748e-003
1.137814e+003,5.705297e-003
1.139743e+003,5.814072e-003
1.141671e+003,5.988961e-003
1.143600e+003,6.127732e-003
1.145528e+003,6.308738e-003
1.147457e+003,6.513288e-003
1.149385e+003,6.778333e-003
1.151314e+003,7.022364e-003
1.153242e+003,7.277712e-003
1.155171e+003,7.468985e-003
1.157099e+003,7.604249e-003
1.159028e+003,7.585948e-003
1.160956e+003,7.553272e-003
1.162885e+003,7.376440e-003
1.164813e+003,7.137606e-003
1.166742e+003,6.812012e-003
1.168670e+003,6.536162e-003
1.170599e+003,6.180756e-003
1.172527e+003,5.875358e-003
1.174456e+003,5.562402e-003
1.176384e+003,5.397700e-003
1.178313e+003,5.172895e-003
1.180241e+003,4.924271e-003
1.182170e+003,4.744230e-003
1.184098e+003,4.668007e-003
1.186027e+003,4.581220e-003
1.187955e+003,4.588902e-003
1.189884e+003,4.591279e-003
1.191812e+003,4.635749e-003
1.193740e+003,4.641201e-003
1.195669e+003,4.742777e-003
1.197598e+003,4.841810e-003
1.199526e+003,5.002800e-003
1.201455e+003,5.129598e-003
1.203383e+003,5.343154e-003
1.205312e+003,5.548345e-003
1.207240e+003,5.809115e-003
1.209168e+003,6.045697e-003
1.211097e+003,6.351495e-003
1.213026e+003,6.594453e-003
1.214954e+003,6.828198e-003
1.216883e+003,7.024636e-003
1.218811e+003,7.314963e-003
1.220740e+003,7.523805e-003
1.222668e+003,7.732671e-003
1.224596e+003,7.899957e-003
1.226525e+003,8.078035e-003
1.228453e+003,8.171756e-003
1.230382e+003,8.324113e-003
1.232311e+003,8.461935e-003
1.234239e+003,8.612294e-003
1.236167e+003,8.643527e-003
1.238096e+003,8.709595e-003
1.240025e+003,8.683959e-003
1.241953e+003,8.652776e-003
1.243882e+003,8.504745e-003
1.245810e+003,8.349931e-003
1.247739e+003,8.110354e-003
1.249667e+003,7.936895e-003
1.251595e+003,7.781073e-003
1.253524e+003,7.716022e-003
1.255453e+003,7.604631e-003
1.257381e+003,7.575920e-003
1.259310e+003,7.481208e-003
1.261238e+003,7.427197e-003
1.263167e+003,7.280713e-003
1.265095e+003,7.193612e-003
1.267023e+003,7.061299e-003
1.268952e+003,6.977675e-003
1.270880e+003,6.911267e-003
1.272809e+003,6.958501e-003
1.274738e+003,6.959621e-003
1.276666e+003,7.047469e-003
1.278594e+003,7.095858e-003
1.280523e+003,7.205140e-003
1.282451e+003,7.328479e-003
1.284380e+003,7.567266e-003
1.286308e+003,7.731151e-003
1.288237e+003,7.995730e-003
1.290166e+003,8.275526e-003
1.292094e+003,8.655813e-003
1.294022e+003,9.040458e-003
1.295951e+003,9.488886e-003
1.297879e+003,9.806423e-003
1.299808e+003,1.009602e-002
1.301736e+003,1.022474e-002
1.303665e+003,1.032118e-002
1.305594e+003,1.024587e-002
1.307522e+003,1.018517e-002
1.309450e+003,9.950669e-003
1.311379e+003,9.630289e-003
1.313307e+003,9.160826e-003
1.315236e+003,8.781616e-003
1.317164e+003,8.371212e-003
1.319093e+003,8.063614e-003
1.321021e+003,7.663120e-003
1.322950e+003,7.391362e-003
1.324878e+003,7.145735e-003
1.326807e+003,7.100716e-003
1.328735e+003,7.063059e-003
1.330664e+003,7.203633e-003
1.332592e+003,7.426977e-003
1.334521e+003,7.906944e-003
1.336449e+003,8.496562e-003
1.338378e+003,9.302037e-003
1.340306e+003,9.986455e-003
1.342235e+003,1.048003e-002
1.344163e+003,1.086701e-002
1.346092e+003,1.151229e-002
1.348021e+003,1.219023e-002
1.349949e+003,1.287790e-002
1.351877e+003,1.318843e-002
1.353806e+003,1.326316e-002
1.355734e+003,1.309961e-002
1.357663e+003,1.320162e-002
1.359591e+003,1.357189e-002
1.361520e+003,1.441072e-002
1.363448e+003,1.561605e-002
1.365377e+003,1.685324e-002
1.367305e+003,1.778578e-002
1.369234e+003,1.828688e-002
1.371162e+003,1.808363e-002
1.373091e+003,1.838131e-002
1.375019e+003,2.033000e-002
1.376948e+003,2.188602e-002
1.378876e+003,2.023544e-002
1.380805e+003,1.590113e-002
1.382733e+003,1.166406e-002
1.384662e+003,9.188449e-003
1.386590e+003,7.672509e-003
1.388519e+003,6.893145e-003
1.390447e+003,6.371018e-003
1.392376e+003,6.228030e-003
1.394304e+003,6.004671e-003
1.396233e+003,6.078642e-003
1.398161e+003,5.945547e-003
1.400090e+003,6.151669e-003
1.402018e+003,6.036341e-003
1.403947e+003,6.198870e-003
1.405875e+003,6.239759e-003
1.407804e+003,6.537268e-003
1.409732e+003,6.585216e-003
1.411661e+003,6.939212e-003
1.413589e+003,7.008750e-003
1.415518e+003,7.327214e-003
1.417446e+003,7.436229e-003
1.419375e+003,8.374879e-003
1.421303e+003,8.816281e-003
1.423232e+003,9.866564e-003
1.425160e+003,1.129324e-002
1.427089e+003,1.321002e-002
1.429017e+003,1.560031e-002
1.430946e+003,1.937547e-002
1.432874e+003,2.241181e-002
1.434803e+003,2.530670e-002
1.436731e+003,2.850756e-002
1.438660e+003,3.153806e-002
1.440588e+003,3.326657e-002
1.442517e+003,3.575929e-002
1.444445e+003,3.770635e-002
1.446374e+003,4.049652e-002
1.448302e+003,4.443027e-002
1.450231e+003,5.048301e-002
1.452159e+003,5.930272e-002
1.454088e+003,7.044304e-002
1.456016e+003,8.108215e-002
1.457945e+003,1.044514e-001
1.459873e+003,1.439612e-001
1.461802e+003,1.868929e-001
1.463730e+003,1.931228e-001
1.465659e+003,1.569032e-001
1.467587e+003,1.444289e-001
1.469516e+003,1.430475e-001
1.471444e+003,1.592388e-001
1.473373e+003,1.341386e-001
1.475301e+003,7.268856e-002
1.477230e+003,3.321367e-002
1.479158e+003,2.145743e-002
1.481087e+003,1.563150e-002
1.483015e+003,1.293556e-002
1.484944e+003,1.071504e-002
1.486872e+003,9.981347e-003
1.488801e+003,8.383811e-003
1.490729e+003,8.099079e-003
1.492658e+003,7.005412e-003
1.494586e+003,6.983168e-003
1.496515e+003,6.131679e-003
1.498443e+003,6.142184e-003
1.500372e+003,5.428474e-003
1.502300e+003,5.400037e-003
1.504229e+003,4.839897e-003
1.506157e+003,5.287202e-003
1.508086e+003,4.406530e-003
1.510014e+003,4.657855e-003
1.511943e+003,4.244134e-003
1.513871e+003,4.356522e-003
1.515800e+003,3.956586e-003
1.517728e+003,4.246999e-003
1.519657e+003,3.860250e-003
1.521585e+003,4.232913e-003
1.523514e+003,3.693113e-003
1.525442e+003,3.826989e-003
1.527371e+003,3.601070e-003
1.529299e+003,3.756797e-003
1.531228e+003,3.463317e-003
1.533156e+003,3.689190e-003
1.535085e+003,3.425453e-003
1.537013e+003,3.423385e-003
1.538942e+003,3.197964e-003
1.540870e+003,3.782317e-003
1.542799e+003,3.302339e-003
1.544727e+003,3.477011e-003
1.546656e+003,3.202086e-003
1.548584e+003,3.241539e-003
1.550513e+003,3.037024e-003
1.552441e+003,3.056621e-003
1.554370e+003,2.856553e-003
1.556298e+003,2.958162e-003
1.558227e+003,2.726709e-003
1.560155e+003,3.217028e-003
1.562084e+003,2.776546e-003
1.564012e+003,2.833245e-003
1.565941e+003,2.685880e-003
1.567869e+003,2.712606e-003
1.569798e+003,2.673954e-003
1.571726e+003,2.767824e-003
1.573655e+003,2.630560e-003
1.575583e+003,2.841052e-003
1.577512e+003,2.759198e-003
1.579440e+003,2.805222e-003
1.581369e+003,2.742689e-003
1.583297e+003,2.847869e-003
1.585226e+003,2.783529e-003
1.587154e+003,2.862452e-003
1.589083e+003,2.833866e-003
1.591011e+003,2.923332e-003
1.592940e+003,2.835879e-003
1.594868e+003,2.895163e-003
1.596797e+003,2.830163e-003
1.598725e+003,2.910139e-003
1.600654e+003,2.824605e-003
1.602582e+003,2.858961e-003
1.604511e+003,2.785606e-003
1.606439e+003,2.886677e-003
1.608368e+003,2.859442e-003
1.610296e+003,2.982849e-003
1.612225e+003,2.959581e-003
1.614153e+003,3.014911e-003
1.616082e+003,2.990171e-003
1.618010e+003,3.173290e-003
1.619939e+003,3.072370e-003
1.621867e+003,3.191961e-003
1.623796e+003,3.276408e-003
1.625724e+003,3.385445e-003
1.627653e+003,3.334293e-003
1.629581e+003,3.474033e-003
1.631510e+003,3.437549e-003
1.633438e+003,3.542677e-003
1.635367e+003,3.650596e-003
1.637295e+003,3.922129e-003
1.639224e+003,3.819592e-003
1.641152e+003,3.923792e-003
1.643081e+003,3.822958e-003
1.645009e+003,3.829878e-003
1.646938e+003,3.793491e-003
1.648866e+003,3.780393e-003
1.650795e+003,3.527803e-003
1.652723e+003,3.780749e-003
1.654652e+003,3.530513e-003
1.656580e+003,3.404282e-003
1.658509e+003,3.168212e-003
1.660437e+003,3.145343e-003
1.662366e+003,3.105931e-003
1.664294e+003,3.053462e-003
1.666223e+003,2.794230e-003
1.668151e+003,2.821945e-003
1.670080e+003,2.762601e-003
1.672008e+003,2.669038e-003
1.673937e+003,2.422741e-003
1.675865e+003,2.450701e-003
1.677794e+003,2.219915e-003
1.679722e+003,2.198007e-003
1.681651e+003,2.016962e-003
1.683579e+003,2.166029e-003
1.685508e+003,1.985781e-003
1.687436e+003,1.818899e-003
1.689365e+003,1.612715e-003
1.691293e+003,1.568470e-003
1.693222e+003,1.336228e-003
1.695150e+003,1.308762e-003
1.697079e+003,1.276810e-003
1.699007e+003,1.435921e-003
1.700936e+003,1.511335e-003
1.702864e+003,1.460858e-003
1.704793e+003,1.316678e-003
1.706721e+003,1.449883e-003
1.708650e+003,1.361281e-003
1.710578e+003,1.468662e-003
1.712507e+003,1.467802e-003
1.714435e+003,1.630206e-003
1.716364e+003,1.758058e-003
1.718292e+003,2.159197e-003
1.720221e+003,2.114404e-003
1.722149e+003,2.143793e-003
1.724078e+003,2.016742e-003
1.726006e+003,1.916826e-003
1.727935e+003,1.743417e-003
1.729863e+003,1.688007e-003
1.731792e+003,1.556884e-003
1.733720e+003,1.738075e-003
1.735649e+003,1.585864e-003
1.737577e+003,1.484208e-003
1.739506e+003,1.390889e-003
1.741434e+003,1.388770e-003
1.743363e+003,1.207117e-003
1.745291e+003,1.133237e-003
1.747220e+003,9.143203e-004
1.749148e+003,9.296536e-004
1.751077e+003,7.520169e-004
1.753005e+003,6.728657e-004
1.754934e+003,4.262589e-004
1.756862e+003,3.985614e-004
1.758791e+003,2.996996e-004
1.760719e+003,2.274327e-004
1.762648e+003,3.933534e-005
1.764576e+003,4.766881e-005
1.766505e+003,-5.708262e-005
1.768433e+003,1.303852e-007
1.770362e+003,-1.609325e-004
1.772290e+003,-1.540482e-004
1.774219e+003,-2.754480e-004
1.776147e+003,-2.885982e-004
1.778076e+003,-3.202409e-004
1.780004e+003,-2.020970e-004
1.781933e+003,-3.372319e-004
1.783861e+003,-3.398769e-004
1.785790e+003,-3.842823e-004
1.787718e+003,-3.865808e-004
1.789646e+003,-5.083568e-004
1.791575e+003,-3.781579e-004
1.793504e+003,-4.690811e-004
1.795432e+003,-4.407428e-004
1.797361e+003,-5.317591e-004
1.799289e+003,-5.114749e-004
1.801218e+003,-5.435087e-004
1.803146e+003,-4.789568e-004
1.805074e+003,-5.357601e-004
1.807003e+003,-5.702004e-004
1.808932e+003,-6.899983e-004
1.810860e+003,-6.634966e-004
1.812789e+003,-8.003749e-004
1.814717e+003,-9.941421e-004
1.816646e+003,-1.200385e-003
1.818574e+003,-8.679442e-004
1.820502e+003,-7.557459e-004
1.822431e+003,-6.541386e-004
1.824360e+003,-7.804111e-004
1.826288e+003,-8.249171e-004
1.828217e+003,-8.736216e-004
1.830145e+003,-7.490553e-004
1.832073e+003,-1.016170e-003
1.834002e+003,-1.018818e-003
1.835931e+003,-1.124024e-003
1.837859e+003,-9.651780e-004
1.839788e+003,-1.153048e-003
1.841716e+003,-1.218345e-003
1.843645e+003,-1.293711e-003
1.845573e+003,-1.142547e-003
1.847501e+003,-1.249850e-003
1.849430e+003,-1.091238e-003
1.851359e+003,-1.178727e-003
1.853287e+003,-1.073230e-003
1.855216e+003,-1.196977e-003
1.857144e+003,-1.172692e-003
1.859073e+003,-1.257252e-003
1.861001e+003,-1.255870e-003
1.862929e+003,-1.374226e-003
1.864858e+003,-1.225132e-003
1.866787e+003,-1.254108e-003
1.868715e+003,-8.899346e-004
1.870644e+003,-1.153413e-003
1.872572e+003,-1.157600e-003
1.874500e+003,-1.358002e-003
1.876429e+003,-1.294706e-003
1.878357e+003,-1.237586e-003
1.880286e+003,-1.067344e-003
1.882215e+003,-1.143087e-003
1.884143e+003,-8.817203e-004
1.886072e+003,-8.612163e-004
1.888000e+003,-6.331429e-004
1.889928e+003,-5.660430e-004
1.891857e+003,-2.382360e-004
1.893785e+003,-1.439936e-004
1.895714e+003,1.856685e-005
1.897643e+003,-2.590939e-004
1.899571e+003,-8.861348e-005
1.901500e+003,-8.534268e-005
1.903428e+003,-8.207560e-005
1.905356e+003,-7.882342e-005
1.907285e+003,-7.558241e-005
1.909213e+003,-7.235631e-005
1.911142e+003,-6.913766e-005
1.913071e+003,-6.593019e-005
1.914999e+003,-6.274134e-005
1.916927e+003,-5.955622e-005
1.918856e+003,-5.638599e-005
1.920784e+003,-5.322322e-005
1.922713e+003,-5.007535e-005
1.924641e+003,-4.693866e-005
1.926570e+003,-4.381314e-005
1.928499e+003,-4.069880e-005
1.930427e+003,-3.759563e-005
1.932355e+003,-3.450736e-005
1.934284e+003,-3.142655e-005
1.936212e+003,-2.836064e-005
1.938141e+003,-2.530590e-005
1.940070e+003,-2.225488e-005
1.941998e+003,-1.922622e-005
1.943927e+003,-1.620129e-005
1.945855e+003,-1.319498e-005
1.947783e+003,-1.019239e-005
1.949712e+003,-7.208437e-006
1.951640e+003,-4.231930e-006
1.953569e+003,-1.266599e-006
1.955498e+003,1.687557e-006
1.957426e+003,4.630536e-006
1.959354e+003,7.554889e-006
1.961283e+003,1.047179e-005
1.963211e+003,1.338497e-005
1.965140e+003,1.627952e-005
1.967068e+003,1.916289e-005
1.968997e+003,2.203509e-005
1.970926e+003,2.489984e-005
1.972854e+003,2.774969e-005
1.974782e+003,3.058463e-005
1.976711e+003,3.341213e-005
1.978639e+003,3.622845e-005
1.980568e+003,3.902614e-005
1.982496e+003,4.182011e-005
1.984425e+003,4.460290e-005
1.986354e+003,4.737079e-005
1.988282e+003,5.013123e-005
1.990210e+003,5.287677e-005
1.992139e+003,5.561113e-005
1.994067e+003,5.833060e-005
1.995996e+003,6.104261e-005
1.997924e+003,6.374344e-005
1.999853e+003,6.643310e-005
2.001781e+003,6.911159e-005
2.003710e+003,7.177889e-005
2.005638e+003,7.443130e-005
2.007567e+003,7.707626e-005
2.009495e+003,7.970631e-005
2.011424e+003,8.232519e-005
2.013352e+003,8.493289e-005
2.015281e+003,8.753315e-005
2.017209e+003,9.011477e-005
2.019138e+003,9.268895e-005
2.021066e+003,9.525195e-005
2.022995e+003,9.780377e-005
2.024923e+003,1.003407e-004
2.026852e+003,1.028664e-004
2.028781e+003,1.053847e-004
2.030709e+003,1.078919e-004
2.032637e+003,1.103841e-004
2.034566e+003,1.128651e-004
2.036494e+003,1.153387e-004
2.038423e+003,1.177937e-004
2.040351e+003,1.202449e-004
2.042280e+003,1.226813e-004
2.044208e+003,1.251027e-004
2.046137e+003,1.275167e-004
2.048065e+003,1.299158e-004
2.049994e+003,1.323037e-004
2.051922e+003,1.346804e-004
2.053851e+003,1.370572e-004
2.055779e+003,1.394078e-004
2.057708e+003,1.417547e-004
2.059636e+003,1.440868e-004
2.061565e+003,1.464002e-004
2.063493e+003,1.487136e-004
2.065422e+003,1.510121e-004
2.067350e+003,1.532957e-004
2.069279e+003,1.555756e-004
2.071207e+003,1.578405e-004
2.073136e+003,1.600906e-004
2.075064e+003,1.623295e-004
2.076993e+003,1.645610e-004
2.078921e+003,1.667775e-004
2.080850e+003,1.689829e-004
2.082778e+003,1.711734e-004
2.084707e+003,1.733638e-004
2.086635e+003,1.755320e-004
2.088564e+003,1.776926e-004
2.090492e+003,1.798421e-004
2.092421e+003,1.819804e-004
2.094349e+003,1.841001e-004
2.096278e+003,1.862161e-004
2.098206e+003,1.883246e-004
2.100135e+003,1.904145e-004
2.102063e+003,1.924932e-004
2.103992e+003,1.945607e-004
2.105920e+003,1.966134e-004
2.107849e+003,1.986623e-004
2.109777e+003,2.006963e-004
2.111706e+003,2.027154e-004
2.113634e+003,2.047308e-004
2.115563e+003,2.067313e-004
2.117491e+003,2.087168e-004
2.119420e+003,2.106875e-004
2.121348e+003,2.126582e-004
2.123277e+003,2.146102e-004
2.125205e+003,2.165511e-004
2.127134e+003,2.184771e-004
2.129062e+003,2.203993e-004
2.130991e+003,2.223104e-004
2.132919e+003,2.242066e-004
2.134848e+003,2.260916e-004
2.136776e+003,2.279617e-004
2.138705e+003,2.298169e-004
2.140633e+003,2.316684e-004
2.142562e+003,2.335161e-004
2.144490e+003,2.353378e-004
2.146419e+003,2.371557e-004
2.148347e+003,2.389587e-004
2.150276e+003,2.407469e-004
2.152204e+003,2.425313e-004
2.154133e+003,2.443008e-004
2.156061e+003,2.460591e-004
2.157990e+003,2.478063e-004
2.159918e+003,2.495423e-004
2.161847e+003,2.512634e-004
2.163775e+003,2.529733e-004
2.165704e+003,2.546757e-004
2.167632e+003,2.563633e-004
2.169561e+003,2.580360e-004
2.171489e+003,2.597049e-004
2.173418e+003,2.613626e-004
2.175346e+003,2.630055e-004
2.177275e+003,2.646372e-004
2.179203e+003,2.662614e-004
2.181132e+003,2.678670e-004
2.183060e+003,2.694577e-004
2.184989e+003,2.710447e-004
2.186917e+003,2.726242e-004
2.188846e+003,2.741888e-004
2.190774e+003,2.757348e-004
2.192703e+003,2.772771e-004
2.194631e+003,2.788007e-004
2.196560e+003,2.803169e-004
2.198488e+003,2.818294e-004
2.200417e+003,2.833232e-004
2.202345e+003,2.848059e-004
2.204274e+003,2.862774e-004
2.206202e+003,2.877377e-004
2.208131e+003,2.891794e-004
2.210059e+003,2.906173e-004
2.211988e+003,2.920441e-004
2.213916e+003,2.934486e-004
2.215845e+003,2.948530e-004
2.217773e+003,2.962463e-004
2.219702e+003,2.976246e-004
2.221630e+003,2.989955e-004
2.223559e+003,3.003515e-004
2.225487e+003,3.016926e-004
2.227416e+003,3.030263e-004
2.229344e+003,3.043413e-004
2.231273e+003,3.056563e-004
2.233201e+003,3.069602e-004
2.235130e+003,3.082454e-004
2.237058e+003,3.095157e-004
2.238987e+003,3.107823e-004
2.240915e+003,3.120303e-004
2.242844e+003,3.132746e-004
2.244772e+003,3.145039e-004
2.246701e+003,3.157258e-004
2.248629e+003,3.169328e-004
2.250558e+003,3.181212e-004
2.252486e+003,3.193058e-004
2.254415e+003,3.204793e-004
2.256343e+003,3.216416e-004
2.258272e+003,3.227815e-004
2.260200e+003,3.239252e-004
2.262129e+003,3.250502e-004
2.264057e+003,3.261678e-004
2.265986e+003,3.272705e-004
2.267914e+003,3.283583e-004
2.269843e+003,3.294349e-004
2.271771e+003,3.305040e-004
2.273700e+003,3.315620e-004
2.275628e+003,3.326088e-004
2.277557e+003,3.336482e-004
2.279485e+003,3.346689e-004
2.281414e+003,3.356822e-004
2.283342e+003,3.366731e-004
2.285271e+003,3.376640e-004
2.287199e+003,3.386438e-004
2.289128e+003,3.396086e-004
2.291056e+003,3.405660e-004
2.292985e+003,3.415085e-004
2.294913e+003,3.424361e-004
2.296842e+003,3.433526e-004
2.298770e+003,3.442578e-004
2.300699e+003,3.451593e-004
2.302627e+003,3.460459e-004
2.304556e+003,3.469177e-004
2.306484e+003,3.477782e-004
2.308413e+003,3.486238e-004
2.310341e+003,3.494695e-004
2.312270e+003,3.502965e-004
2.314198e+003,3.511123e-004
2.316127e+003,3.519095e-004
2.318055e+003,3.526993e-004
2.319984e+003,3.534853e-004
2.321912e+003,3.542602e-004
2.323841e+003,3.550127e-004
2.325769e+003,3.557615e-004
2.327698e+003,3.564991e-004
2.329626e+003,3.572218e-004
2.331555e+003,3.579259e-004
2.333483e+003,3.586374e-004
2.335412e+003,3.593266e-004
2.337340e+003,3.600009e-004
2.339269e+003,3.606677e-004
2.341197e+003,3.613196e-004
2.343126e+003,3.619641e-004
2.345054e+003,3.625974e-004
2.346983e+003,3.632233e-004
2.348911e+003,3.638305e-004
2.350840e+003,3.644265e-004
2.352768e+003,3.650114e-004
2.354697e+003,3.655888e-004
2.356625e+003,3.661476e-004
2.358554e+003,3.666990e-004
2.360482e+003,3.672391e-004
2.362411e+003,3.677644e-004
2.364339e+003,3.682859e-004
2.366268e+003,3.687926e-004
2.368196e+003,3.692843e-004
2.370125e+003,3.697686e-004
2.372053e+003,3.702343e-004
2.373982e+003,3.706962e-004
2.375910e+003,3.711432e-004
2.377839e+003,3.715903e-004
2.379767e+003,3.720149e-004
2.381696e+003,3.724210e-004
2.383624e+003,3.728233e-004
2.385553e+003,3.732108e-004
2.387481e+003,3.735907e-004
2.389410e+003,3.739595e-004
2.391338e+003,3.743209e-004
2.393267e+003,3.746599e-004
2.395195e+003,3.749952e-004
2.397124e+003,3.753118e-004
2.399052e+003,3.756285e-004
2.400981e+003,4.583783e-004
2.402909e+003,5.269647e-004
2.404838e+003,6.163828e-004
2.406766e+003,6.948635e-004
2.408695e+003,8.065887e-004
2.410623e+003,8.841008e-004
2.412552e+003,9.264722e-004
2.414480e+003,9.504110e-004
2.416409e+003,1.026288e-003
2.418337e+003,9.416938e-004
2.420266e+003,9.903423e-004
2.422194e+003,9.232014e-004
2.424123e+003,8.491352e-004
2.426051e+003,8.491389e-004
2.427979e+003,8.718446e-004
2.429908e+003,8.266605e-004
2.431837e+003,7.921755e-004
2.433765e+003,7.364005e-004
2.435694e+003,8.141398e-004
2.437622e+003,8.280911e-004
2.439551e+003,9.096488e-004
2.441479e+003,1.039371e-003
2.443407e+003,1.112252e-003
2.445336e+003,1.022354e-003
2.447265e+003,1.057509e-003
2.449193e+003,1.113590e-003
2.451122e+003,1.101483e-003
2.453050e+003,1.142554e-003
2.454979e+003,1.302332e-003
2.456907e+003,1.145352e-003
2.458836e+003,1.085244e-003
2.460764e+003,1.189474e-003
2.462693e+003,1.323313e-003
2.464621e+003,1.265474e-003
2.466550e+003,1.255494e-003
2.468478e+003,1.235038e-003
2.470406e+003,1.292534e-003
2.472335e+003,1.417611e-003
2.474264e+003,1.518711e-003
2.476192e+003,1.379177e-003
2.478121e+003,1.339298e-003
2.480049e+003,1.451552e-003
2.481978e+003,1.562089e-003
2.483906e+003,1.523346e-003
2.485835e+003,1.582153e-003
2.487763e+003,1.632243e-003
2.489692e+003,1.699675e-003
2.491620e+003,1.832593e-003
2.493549e+003,1.908660e-003
2.495477e+003,1.740780e-003
2.497406e+003,1.772635e-003
2.499334e+003,1.803312e-003
2.501263e+003,1.874190e-003
2.503191e+003,1.889016e-003
2.505120e+003,1.906805e-003
2.507048e+003,1.762252e-003
2.508977e+003,1.831099e-003
2.510905e+003,2.027255e-003
2.512833e+003,2.197072e-003
2.514762e+003,2.183206e-003
2.516691e+003,2.212606e-003
2.518619e+003,2.377275e-003
2.520548e+003,2.629831e-003
2.522476e+003,2.737697e-003
2.524405e+003,2.882782e-003
2.526333e+003,2.934568e-003
2.528261e+003,2.979741e-003
2.530190e+003,2.997834e-003
2.532119e+003,3.106833e-003
2.534047e+003,3.050547e-003
2.535976e+003,3.030427e-003
2.537904e+003,3.141694e-003
2.539833e+003,3.384780e-003
2.541761e+003,3.485739e-003
2.543689e+003,3.567513e-003
2.545618e+003,3.712874e-003
2.547547e+003,3.882799e-003
2.549475e+003,3.961336e-003
2.551404e+003,3.939833e-003
2.553332e+003,3.944270e-003
2.555260e+003,4.009951e-003
2.557189e+003,4.137836e-003
2.559117e+003,4.363194e-003
2.561046e+003,4.537564e-003
2.562975e+003,4.641302e-003
2.564903e+003,4.612800e-003
2.566832e+003,4.645351e-003
2.568760e+003,4.733939e-003
2.570688e+003,4.818372e-003
2.572617e+003,5.056851e-003
2.574546e+003,5.360480e-003
2.576474e+003,5.606893e-003
2.578403e+003,5.767513e-003
2.580331e+003,5.849287e-003
2.582260e+003,6.072607e-003
2.584188e+003,6.260950e-003
2.586116e+003,6.484974e-003
2.588045e+003,6.719463e-003
2.589974e+003,6.946847e-003
2.591902e+003,7.184166e-003
2.593831e+003,7.467173e-003
2.595759e+003,7.653929e-003
2.597688e+003,7.795081e-003
2.599616e+003,8.018367e-003
2.601544e+003,8.262701e-003
2.603473e+003,8.464668e-003
2.605402e+003,8.751936e-003
2.607330e+003,9.002198e-003
2.609259e+003,9.227552e-003
2.611187e+003,9.541042e-003
2.613115e+003,9.875052e-003
2.615044e+003,1.016689e-002
2.616972e+003,1.055778e-002
2.618901e+003,1.085088e-002
2.620830e+003,1.116415e-002
2.622758e+003,1.149328e-002
2.624687e+003,1.195903e-002
2.626615e+003,1.240890e-002
2.628543e+003,1.274567e-002
2.630472e+003,1.320341e-002
2.632400e+003,1.371971e-002
2.634329e+003,1.392482e-002
2.636258e+003,1.392627e-002
2.638186e+003,1.400182e-002
2.640115e+003,1.401494e-002
2.642043e+003,1.392742e-002
2.643971e+003,1.394814e-002
2.645900e+003,1.401533e-002
2.647828e+003,1.406915e-002
2.649757e+003,1.413509e-002
2.651686e+003,1.429415e-002
2.653614e+003,1.449764e-002
2.655542e+003,1.462675e-002
2.657471e+003,1.464963e-002
2.659399e+003,1.464615e-002
2.661328e+003,1.459177e-002
2.663256e+003,1.439632e-002
2.665185e+003,1.413850e-002
2.667114e+003,1.399857e-002
2.669042e+003,1.386712e-002
2.670970e+003,1.371900e-002
2.672899e+003,1.357977e-002
2.674827e+003,1.343722e-002
2.676756e+003,1.330451e-002
2.678685e+003,1.322293e-002
2.680613e+003,1.311050e-002
2.682542e+003,1.294598e-002
2.684470e+003,1.280979e-002
2.686398e+003,1.272436e-002
2.688327e+003,1.260652e-002
2.690255e+003,1.248646e-002
2.692184e+003,1.238270e-002
2.694113e+003,1.233778e-002
2.696041e+003,1.234807e-002
2.697969e+003,1.238129e-002
2.699898e+003,1.241689e-002
2.701826e+003,1.252335e-002
2.703755e+003,1.267367e-002
2.705683e+003,1.289107e-002
2.707612e+003,1.314075e-002
2.709541e+003,1.340021e-002
2.711469e+003,1.355484e-002
2.713397e+003,1.366883e-002
2.715326e+003,1.386059e-002
2.717254e+003,1.403683e-002
2.719183e+003,1.424171e-002
2.721111e+003,1.449269e-002
2.723040e+003,1.480201e-002
2.724969e+003,1.512596e-002
2.726897e+003,1.542864e-002
2.728825e+003,1.568535e-002
2.730754e+003,1.588276e-002
2.732682e+003,1.605283e-002
2.734611e+003,1.623168e-002
2.736539e+003,1.640101e-002
2.738468e+003,1.645106e-002
2.740396e+003,1.648556e-002
2.742325e+003,1.658095e-002
2.744253e+003,1.658878e-002
2.746182e+003,1.646711e-002
2.748110e+003,1.644212e-002
2.750039e+003,1.656884e-002
2.751967e+003,1.675758e-002
2.753896e+003,1.697773e-002
2.755824e+003,1.725861e-002
2.757753e+003,1.758219e-002
2.759681e+003,1.795351e-002
2.761610e+003,1.836176e-002
2.763538e+003,1.876232e-002
2.765467e+003,1.919945e-002
2.767395e+003,1.969324e-002
2.769324e+003,2.027400e-002
2.771252e+003,2.091196e-002
2.773181e+003,2.161055e-002
2.775109e+003,2.237088e-002
2.777038e+003,2.320212e-002
2.778966e+003,2.418004e-002
2.780895e+003,2.528603e-002
2.782823e+003,2.646888e-002
2.784752e+003,2.779141e-002
2.786680e+003,2.918904e-002
2.788609e+003,3.071456e-002
2.790537e+003,3.235449e-002
2.792466e+003,3.401385e-002
2.794394e+003,3.579390e-002
2.796323e+003,3.762788e-002
2.798251e+003,3.948717e-002
2.800180e+003,4.141599e-002
2.802108e+003,4.349934e-002
2.804037e+003,4.574629e-002
2.805965e+003,4.816550e-002
2.807894e+003,5.087786e-002
2.809822e+003,5.383896e-002
2.811751e+003,5.726232e-002
2.813679e+003,6.118342e-002
2.815608e+003,6.567983e-002
2.817536e+003,7.081474e-002
2.819465e+003,7.683615e-002
2.821393e+003,8.395719e-002
2.823322e+003,9.263270e-002
2.825250e+003,1.033405e-001
2.827179e+003,1.168727e-001
2.829107e+003,1.344507e-001
2.831036e+003,1.578881e-001
2.832964e+003,1.900972e-001
2.834893e+003,2.357402e-001
2.836821e+003,3.009972e-001
2.838750e+003,3.956991e-001
2.840678e+003,5.359105e-001
2.842607e+003,7.414253e-001
2.844535e+003,1.020353e+000
2.846464e+003,1.301808e+000
2.848392e+003,1.352700e+000
2.850321e+003,1.109063e+000
2.852249e+003,8.223736e-001
2.854178e+003,6.150829e-001
2.856106e+003,4.745013e-001
2.858035e+003,3.760444e-001
2.859963e+003,3.062759e-001
2.861892e+003,2.575693e-001
2.863820e+003,2.250303e-001
2.865749e+003,2.054820e-001
2.867677e+003,1.962223e-001
2.869606e+003,1.937819e-001
2.871534e+003,1.950590e-001
2.873463e+003,1.995081e-001
2.875391e+003,2.085695e-001
2.877320e+003,2.235225e-001
2.879248e+003,2.443069e-001
2.881177e+003,2.699246e-001
2.883105e+003,2.994155e-001
2.885034e+003,3.321788e-001
2.886962e+003,3.677527e-001
2.888891e+003,4.052448e-001
2.890819e+003,4.434766e-001
2.892748e+003,4.815675e-001
2.894676e+003,5.193610e-001
2.896605e+003,5.578209e-001
2.898533e+003,5.986354e-001
2.900462e+003,6.443866e-001
2.902390e+003,6.994710e-001
2.904319e+003,7.708362e-001
2.906247e+003,8.673962e-001
2.908176e+003,9.995558e-001
2.910104e+003,1.174199e+000
2.912033e+003,1.375737e+000
2.913961e+003,1.531241e+000
2.915890e+003,1.535161e+000
2.917818e+003,1.382485e+000
2.919747e+003,1.173879e+000
2.921675e+003,9.805418e-001
2.923604e+003,8.211084e-001
2.925532e+003,6.934858e-001
2.927461e+003,5.897195e-001
2.929389e+003,5.027135e-001
2.931318e+003,4.283858e-001
2.933246e+003,3.644134e-001
2.935175e+003,3.094944e-001
2.937103e+003,2.626388e-001
2.939032e+003,2.227517e-001
2.940960e+003,1.893344e-001
2.942889e+003,1.622814e-001
2.944817e+003,1.414730e-001
2.946746e+003,1.267600e-001
2.948674e+003,1.175191e-001
2.950603e+003,1.124145e-001
2.952531e+003,1.092959e-001
2.954460e+003,1.060983e-001
2.956388e+003,1.019394e-001
2.958317e+003,9.667441e-002
2.960245e+003,9.036969e-002
2.962174e+003,8.311363e-002
2.964102e+003,7.519576e-002
2.966031e+003,6.696160e-002
2.967959e+003,5.900740e-002
2.969888e+003,5.178043e-002
2.971816e+003,4.552965e-002
2.973745e+003,4.023424e-002
2.975673e+003,3.576209e-002
2.977602e+003,3.204135e-002
2.979530e+003,2.893565e-002
2.981459e+003,2.636752e-002
2.983387e+003,2.434039e-002
2.985316e+003,2.266907e-002
2.987244e+003,2.113196e-002
2.989173e+003,1.978194e-002
2.991101e+003,1.868689e-002
2.993030e+003,1.776026e-002
2.994958e+003,1.695028e-002
2.996887e+003,1.621713e-002
2.998815e+003,1.557227e-002
3.000744e+003,1.495213e-002
3.002672e+003,1.439028e-002
3.004601e+003,1.389863e-002
3.006529e+003,1.351870e-002
3.008458e+003,1.316039e-002
3.010386e+003,1.276874e-002
3.012315e+003,1.242125e-002
3.014243e+003,1.213168e-002
3.016172e+003,1.184095e-002
3.018100e+003,1.153662e-002
3.020029e+003,1.129748e-002
3.021957e+003,1.106600e-002
3.023886e+003,1.083592e-002
3.025814e+003,1.058203e-002
3.027743e+003,1.037024e-002
3.029671e+003,1.020749e-002
3.031600e+003,9.885803e-003
3.033528e+003,9.565253e-003
3.035457e+003,9.326227e-003
3.037385e+003,9.113427e-003
3.039314e+003,8.879490e-003
3.041242e+003,8.605517e-003
3.043171e+003,8.286137e-003
3.045099e+003,8.015048e-003
3.047028e+003,7.781029e-003
3.048956e+003,7.614113e-003
3.050885e+003,7.409580e-003
3.052813e+003,7.138968e-003
3.054742e+003,6.930299e-003
3.056670e+003,6.823167e-003
3.058599e+003,6.726541e-003
3.060527e+003,6.617755e-003
3.062456e+003,6.520890e-003
3.064384e+003,6.406289e-003
3.066313e+003,6.240297e-003
3.068241e+003,6.164357e-003
3.070170e+003,6.167836e-003
3.072098e+003,6.086826e-003
3.074027e+003,5.961731e-003
3.075955e+003,5.832318e-003
3.077884e+003,5.751580e-003
3.079812e+003,5.725611e-003
3.081741e+003,5.709358e-003
3.083669e+003,5.599294e-003
3.085598e+003,5.408891e-003
3.087526e+003,5.194552e-003
3.089455e+003,5.005527e-003
3.091383e+003,4.894335e-003
3.093312e+003,4.726656e-003
3.095240e+003,4.408535e-003
3.097169e+003,4.113451e-003
3.099097e+003,3.891513e-003
3.101026e+003,3.778577e-003
3.102954e+003,3.799200e-003
3.104883e+003,3.681637e-003
3.106811e+003,3.543112e-003
3.108740e+003,3.455278e-003
3.110668e+003,3.315248e-003
3.112597e+003,3.317229e-003
3.114525e+003,3.288049e-003
3.116454e+003,3.164973e-003
3.118382e+003,3.157213e-003
3.120311e+003,3.160045e-003
3.122239e+003,3.163211e-003
3.124168e+003,3.174305e-003
3.126096e+003,3.128275e-003
3.128025e+003,3.083058e-003
3.129953e+003,3.141053e-003
3.131882e+003,3.179986e-003
3.133810e+003,3.214914e-003
3.135739e+003,3.249675e-003
3.137667e+003,3.231168e-003
3.139596e+003,3.147639e-003
3.141524e+003,3.217317e-003
3.143453e+003,3.404047e-003
3.145381e+003,3.437679e-003
3.147310e+003,3.396455e-003
3.149238e+003,3.452118e-003
3.151167e+003,3.383797e-003
3.153095e+003,3.455490e-003
3.155024e+003,3.588125e-003
3.156952e+003,3.640410e-003
3.158881e+003,3.717665e-003
3.160809e+003,3.779523e-003
3.162738e+003,3.802985e-003
3.164666e+003,3.912251e-003
3.166594e+003,3.993273e-003
3.168523e+003,4.071411e-003
3.170452e+003,4.076563e-003
3.172380e+003,4.075442e-003
3.174309e+003,4.163906e-003
3.176237e+003,4.199810e-003
3.178166e+003,4.223477e-003
3.180094e+003,4.295945e-003
3.182022e+003,4.385520e-003
3.183951e+003,4.533108e-003
3.185880e+003,4.646096e-003
3.187808e+003,4.571762e-003
3.189737e+003,4.573639e-003
3.191665e+003,4.772980e-003
3.193594e+003,4.979797e-003
3.195522e+003,5.049381e-003
3.197450e+003,5.081013e-003
3.199379e+003,5.087845e-003
3.201308e+003,5.006693e-003
3.203236e+003,5.057275e-003
3.205165e+003,5.253315e-003
3.207093e+003,5.317934e-003
3.209021e+003,5.265161e-003
3.210950e+003,5.297676e-003
3.212878e+003,5.405441e-003
3.214807e+003,5.471855e-003
3.216736e+003,5.509913e-003
3.218664e+003,5.481467e-003
3.220593e+003,5.602255e-003
3.222521e+003,5.725458e-003
3.224449e+003,5.821422e-003
3.226378e+003,5.920745e-003
3.228307e+003,6.006368e-003
3.230235e+003,6.075680e-003
3.232164e+003,6.073721e-003
3.234092e+003,6.017596e-003
3.236021e+003,6.087899e-003
3.237949e+003,6.318837e-003
3.239877e+003,6.354675e-003
3.241806e+003,6.350234e-003
3.243735e+003,6.466880e-003
3.245663e+003,6.625026e-003
3.247592e+003,6.774783e-003
3.249520e+003,6.894380e-003
3.251448e+003,7.010050e-003
3.253377e+003,7.146046e-003
3.255305e+003,7.214479e-003
3.257234e+003,7.200249e-003
3.259163e+003,7.217683e-003
3.261091e+003,7.333755e-003
3.263020e+003,7.451333e-003
3.264948e+003,7.544018e-003
3.266876e+003,7.584788e-003
3.268805e+003,7.671386e-003
3.270733e+003,7.827066e-003
3.272662e+003,7.935815e-003
3.274591e+003,7.871628e-003
3.276519e+003,7.931739e-003
3.278448e+003,8.040719e-003
3.280376e+003,8.073427e-003
3.282304e+003,8.159272e-003
3.284233e+003,8.243613e-003
3.286161e+003,8.298241e-003
3.288090e+003,8.444443e-003
3.290019e+003,8.546524e-003
3.291947e+003,8.563071e-003
3.293875e+003,8.666828e-003
3.295804e+003,8.729890e-003
3.297732e+003,8.757599e-003
3.299661e+003,8.817323e-003
3.301589e+003,8.939870e-003
3.303518e+003,8.961849e-003
3.305447e+003,8.981071e-003
3.307375e+003,9.048074e-003
3.309303e+003,9.072550e-003
3.311232e+003,9.092309e-003
3.313160e+003,9.216003e-003
3.315089e+003,9.284422e-003
3.317018e+003,9.310670e-003
3.318946e+003,9.422898e-003
3.320875e+003,9.461410e-003
3.322803e+003,9.502277e-003
3.324731e+003,9.683013e-003
3.326660e+003,9.821475e-003
3.328588e+003,9.816945e-003
3.330517e+003,9.810179e-003
3.332446e+003,9.850293e-003
3.334374e+003,9.904750e-003
3.336302e+003,9.943418e-003
3.338231e+003,1.008575e-002
3.340159e+003,1.009482e-002
3.342088e+003,1.010389e-002
3.344016e+003,1.025519e-002
3.345945e+003,1.032966e-002
3.347874e+003,1.036995e-002
3.349802e+003,1.040325e-002
3.351730e+003,1.032037e-002
3.353659e+003,1.031782e-002
3.355587e+003,1.036097e-002
3.357516e+003,1.039432e-002
3.359444e+003,1.051369e-002
3.361373e+003,1.060385e-002
3.363302e+003,1.059976e-002
3.365230e+003,1.050165e-002
3.367158e+003,1.047796e-002
3.369087e+003,1.051567e-002
3.371015e+003,1.059731e-002
3.372944e+003,1.066597e-002
3.374872e+003,1.064348e-002
3.376801e+003,1.065961e-002
3.378729e+003,1.070692e-002
3.380658e+003,1.057326e-002
3.382586e+003,1.042160e-002
3.384515e+003,1.046243e-002
3.386443e+003,1.058007e-002
3.388372e+003,1.051818e-002
3.390300e+003,1.038399e-002
3.392229e+003,1.034264e-002
3.394157e+003,1.033038e-002
3.396086e+003,1.041263e-002
3.398014e+003,1.040571e-002
3.399943e+003,1.029538e-002
3.401871e+003,1.024182e-002
3.403800e+003,1.018676e-002
3.405728e+003,1.011772e-002
3.407657e+003,1.019267e-002
3.409585e+003,1.023795e-002
3.411514e+003,1.020512e-002
3.413442e+003,1.014102e-002
3.415371e+003,1.007838e-002
3.417299e+003,1.006375e-002
3.419228e+003,1.001746e-002
3.421156e+003,1.000813e-002
3.423085e+003,9.911917e-003
3.425013e+003,9.786032e-003
3.426942e+003,9.761706e-003
3.428870e+003,9.678930e-003
3.430799e+003,9.581923e-003
3.432727e+003,9.604380e-003
3.434656e+003,9.659827e-003
3.436584e+003,9.550989e-003
3.438513e+003,9.290934e-003
3.440441e+003,9.254642e-003
3.442370e+003,9.374954e-003
3.444298e+003,9.240083e-003
3.446227e+003,9.069242e-003
3.448155e+003,8.955367e-003
3.450084e+003,8.895263e-003
3.452012e+003,8.913867e-003
3.453941e+003,8.767404e-003
3.455869e+003,8.547232e-003
3.457798e+003,8.391611e-003
3.459726e+003,8.276962e-003
3.461655e+003,8.254893e-003
3.463583e+003,8.227490e-003
3.465512e+003,8.073747e-003
3.467440e+003,7.888176e-003
3.469369e+003,7.797718e-003
3.471297e+003,7.804565e-003
3.473226e+003,7.719278e-003
3.475154e+003,7.522084e-003
3.477083e+003,7.427335e-003
3.479011e+003,7.354304e-003
3.480940e+003,7.264316e-003
3.482868e+003,7.074215e-003
3.484797e+003,6.881133e-003
3.486725e+003,6.817229e-003
3.488654e+003,6.817050e-003
3.490582e+003,6.703421e-003
3.492511e+003,6.588921e-003
3.494439e+003,6.430849e-003
3.496368e+003,6.286487e-003
3.498296e+003,6.140873e-003
3.500225e+003,6.074086e-003
3.502153e+003,6.065778e-003
3.504082e+003,6.078675e-003
3.506010e+003,5.994767e-003
3.507939e+003,5.726315e-003
3.509867e+003,5.524695e-003
3.511796e+003,5.444735e-003
3.513724e+003,5.356625e-003
3.515653e+003,5.173959e-003
3.517581e+003,5.157098e-003
3.519510e+003,5.017847e-003
3.521438e+003,4.787415e-003
3.523367e+003,4.716352e-003
3.525295e+003,4.502326e-003
3.527224e+003,4.312016e-003
3.529152e+003,4.220940e-003
3.531081e+003,4.130252e-003
3.533009e+003,3.963426e-003
3.534938e+003,3.855780e-003
3.536866e+003,3.733031e-003
3.538795e+003,3.526472e-003
3.540723e+003,3.435783e-003
3.542652e+003,3.383800e-003
3.544580e+003,3.253758e-003
3.546509e+003,3.268190e-003
3.548437e+003,3.143117e-003
3.550366e+003,2.873540e-003
3.552294e+003,2.787888e-003
3.554223e+003,2.749197e-003
3.556151e+003,2.468258e-003
3.558080e+003,2.241209e-003
3.560008e+003,2.231598e-003
3.561937e+003,2.140053e-003
3.563865e+003,1.851700e-003
3.565794e+003,1.767419e-003
3.567722e+003,2.041437e-003
3.569651e+003,1.959883e-003
3.571579e+003,1.700461e-003
3.573508e+003,1.541071e-003
3.575436e+003,1.459859e-003
3.577365e+003,1.421422e-003
3.579293e+003,1.416989e-003
3.581222e+003,1.281247e-003
3.583150e+003,1.323767e-003
3.585079e+003,1.369305e-003
3.587007e+003,1.409426e-003
3.588936e+003,1.513898e-003
3.590864e+003,1.346759e-003
3.592793e+003,1.503319e-003
3.594721e+003,1.855224e-003
3.596650e+003,1.991659e-003
3.598578e+003,2.139367e-003
3.600507e+003,2.510719e-003
3.602435e+003,2.698489e-003
3.604364e+003,2.593189e-003
3.606292e+003,2.367988e-003
3.608221e+003,2.074875e-003
3.610149e+003,1.743630e-003
3.612078e+003,1.628622e-003
3.614006e+003,1.564570e-003
3.615935e+003,9.878948e-004
3.617863e+003,4.630461e-004
3.619792e+003,6.719530e-004
3.621720e+003,7.130057e-004
3.623649e+003,3.059581e-004
3.625577e+003,-7.688999e-005
3.627506e+003,-1.442432e-005
3.629434e+003,7.525161e-004
3.631363e+003,3.747195e-004
3.633291e+003,1.572296e-004
3.635220e+003,2.599359e-004
3.637148e+003,3.727376e-004
3.639077e+003,3.483668e-004
3.641005e+003,3.657937e-004
3.642934e+003,2.965033e-004
3.644862e+003,4.388392e-006
3.646791e+003,3.024936e-005
3.648719e+003,2.493784e-004
3.650648e+003,3.097355e-004
3.652576e+003,-1.835153e-004
3.654505e+003,-4.474223e-004
3.656433e+003,-2.430007e-004
3.658362e+003,-2.881587e-004
3.660290e+003,-4.434735e-004
3.662219e+003,-6.768033e-004
3.664147e+003,-8.029640e-004
3.666076e+003,-1.049787e-003
3.668004e+003,-1.080334e-003
3.669933e+003,-8.529350e-004
3.671861e+003,-1.014225e-003
3.673790e+003,-1.082286e-003
3.675718e+003,2.755970e-005
3.677647e+003,-4.078299e-004
3.679575e+003,-1.055405e-003
3.681504e+003,-1.126565e-003
3.683432e+003,-1.031622e-003
3.685361e+003,-1.101449e-003
3.687289e+003,-1.225181e-003
3.689218e+003,-9.840280e-004
3.691146e+003,-5.181283e-004
3.693075e+003,-4.907325e-004
3.695003e+003,-6.120354e-004
3.696932e+003,-7.567853e-004
3.698860e+003,-1.036510e-003
3.700789e+003,-1.037732e-003
3.702717e+003,-7.768199e-004
3.704646e+003,-7.236749e-004
3.706574e+003,-7.607415e-004
3.708503e+003,-6.890073e-004
3.710431e+003,-1.601577e-004
3.712360e+003,-5.257875e-005
3.714288e+003,-5.263165e-004
3.716217e+003,-6.715581e-004
3.718145e+003,-5.623177e-004
3.720074e+003,-7.092953e-004
3.722002e+003,-8.362606e-004
3.723931e+003,-9.687692e-004
3.725859e+003,-8.717701e-004
3.727788e+003,-8.301362e-004
3.729716e+003,-9.148642e-004
3.731645e+003,-3.782585e-004
3.733573e+003,5.008280e-005
3.735502e+003,4.775748e-004
3.737430e+003,1.603812e-004
3.739359e+003,-4.487932e-004
3.741287e+003,-8.337274e-004
3.743216e+003,-5.693138e-004
3.745144e+003,2.485141e-004
3.747073e+003,-3.079548e-004
3.749001e+003,-5.939007e-004
3.750930e+003,-1.039729e-004
3.752858e+003,8.721650e-005
3.754787e+003,-4.670694e-004
3.756715e+003,-7.085651e-004
3.758644e+003,-5.658492e-004
3.760572e+003,-4.120097e-004
3.762501e+003,-7.880777e-004
3.764429e+003,-7.673129e-004
3.766358e+003,-5.671084e-004
3.768286e+003,-4.733652e-004
3.770215e+003,-1.309291e-004
3.772143e+003,-3.496259e-004
3.774072e+003,-5.098581e-004
3.776000e+003,-5.909726e-004
3.777929e+003,-5.463138e-004
3.779857e+003,-3.275499e-004
3.781786e+003,-4.820749e-004
3.783714e+003,-3.548339e-004
3.785643e+003,-1.178607e-004
3.787571e+003,-3.251359e-004
3.789500e+003,-4.858971e-004
3.791428e+003,-4.535466e-004
3.793357e+003,-4.393235e-004
3.795285e+003,-9.774417e-005
3.797214e+003,2.265871e-004
3.799142e+003,-2.279431e-004
3.801071e+003,2.945960e-005
3.802999e+003,2.244487e-004
3.804927e+003,-9.223074e-005
3.806856e+003,2.811626e-004
3.808785e+003,3.333688e-004
3.810713e+003,1.526177e-004
3.812642e+003,-9.871274e-005
3.814570e+003,-1.488775e-004
3.816499e+003,3.184527e-004
3.818427e+003,4.571676e-005
3.820355e+003,3.851205e-004
3.822284e+003,6.947964e-004
3.824213e+003,1.718476e-004
3.826141e+003,1.759827e-004
3.828070e+003,1.985952e-004
3.829998e+003,1.205504e-005
3.831927e+003,6.932765e-005
3.833855e+003,5.317479e-005
3.835783e+003,3.141612e-004
3.837712e+003,8.733720e-004
3.839641e+003,8.798614e-004
3.841569e+003,6.515011e-004
3.843498e+003,5.820543e-004
3.845426e+003,3.713816e-004
3.847354e+003,1.188368e-004
3.849283e+003,-1.323298e-004
3.851211e+003,-1.661852e-004
3.853140e+003,1.173034e-003
3.855069e+003,1.112431e-003
3.856997e+003,5.304664e-004
3.858926e+003,1.615584e-004
3.860854e+003,-2.226233e-005
3.862782e+003,2.046824e-004
3.864711e+003,5.534887e-004
3.866640e+003,2.007410e-004
3.868568e+003,3.843680e-004
3.870497e+003,1.119994e-003
3.872425e+003,8.396581e-004
3.874354e+003,7.306561e-004
3.876282e+003,3.081411e-004
3.878210e+003,1.003444e-004
3.880139e+003,5.793050e-004
3.882068e+003,4.916787e-004
3.883996e+003,1.434907e-004
3.885925e+003,6.495118e-004
3.887853e+003,4.055426e-004
3.889781e+003,2.987236e-004
3.891710e+003,7.132962e-004
3.893638e+003,5.560592e-004
3.895567e+003,2.177879e-004
3.897496e+003,1.598001e-004
3.899424e+003,4.400536e-004
3.901353e+003,5.440414e-004
3.903281e+003,7.041320e-004
3.905209e+003,7.630587e-004
3.907138e+003,6.343126e-004
3.909066e+003,5.685911e-004
3.910995e+003,6.068647e-004
3.912924e+003,5.217493e-004
3.914852e+003,4.636198e-004
3.916781e+003,7.299334e-004
3.918709e+003,6.836876e-004
3.920637e+003,5.395934e-004
3.922566e+003,4.494563e-004
3.924494e+003,6.129444e-004
3.926423e+003,6.808341e-004
3.928352e+003,4.504845e-004
3.930280e+003,4.084483e-004
3.932208e+003,6.336868e-004
3.934137e+003,5.998835e-004
3.936065e+003,3.907755e-004
3.937994e+003,2.561510e-004
3.939922e+003,8.350611e-005
3.941851e+003,2.166703e-004
3.943780e+003,3.779158e-004
3.945708e+003,3.126264e-004
3.947636e+003,1.986101e-004
3.949565e+003,1.246855e-004
3.951493e+003,5.643070e-005
3.953422e+003,-3.425777e-005
3.955351e+003,-1.665950e-005
3.957279e+003,3.984571e-005
3.959208e+003,2.738833e-005
3.961136e+003,1.290962e-004
3.963064e+003,2.013221e-004
3.964993e+003,1.705885e-004
3.966921e+003,1.707003e-004
3.968850e+003,2.423450e-004
3.970779e+003,3.419295e-004
3.972707e+003,3.829598e-004
3.974635e+003,3.114939e-004
3.976564e+003,3.344417e-004
3.978492e+003,2.841726e-004
3.980421e+003,2.285913e-004
3.982349e+003,2.977327e-004
3.984278e+003,3.167018e-004
3.986207e+003,2.382174e-004
3.988135e+003,3.064871e-004
3.990063e+003,4.389957e-004
3.991992e+003,4.468337e-004
3.993920e+003,4.263669e-004
3.995849e+003,3.739372e-004
3.997777e+003,3.246740e-004
3.999706e+003,2.123937e-004
4.001635e+003,0.000000e+000
