3.991992e+002,0.000000e+000
4.011277e+002,0.000000e+000
4.030562e+002,0.000000e+000
4.049846e+002,0.000000e+000
4.069131e+002,0.000000e+000
4.088416e+002,0.000000e+000
4.107701e+002,0.000000e+000
4.126986e+002,0.000000e+000
4.146271e+002,0.000000e+000
4.165556e+002,0.000000e+000
4.184841e+002,0.000000e+000
4.204126e+002,0.000000e+000
4.223411e+002,0.000000e+000
4.242697e+002,0.000000e+000
4.261982e+002,0.000000e+000
4.281266e+002,0.000000e+000
4.300551e+002,0.000000e+000
4.319836e+002,0.000000e+000
4.339121e+002,0.000000e+000
4.358406e+002,0.000000e+000
4.377691e+002,0.000000e+000
4.396976e+002,0.000000e+000
4.416261e+002,0.000000e+000
4.435546e+002,0.000000e+000
4.454831e+002,0.000000e+000
4.474116e+002,0.000000e+000
4.493401e+002,0.000000e+000
4.512686e+002,0.000000e+000
4.531971e+002,0.000000e+000
4.551256e+002,0.000000e+000
4.570541e+002,0.000000e+000
4.589826e+002,0.000000e+000
4.609111e+002,0.000000e+000
4.628396e+002,0.000000e+000
4.647681e+002,0.000000e+000
4.666966e+002,0.000000e+000
4.686251e+002,0.000000e+000
4.705536e+002,0.000000e+000
4.724821e+002,0.000000e+000
4.744106e+002,0.000000e+000
4.763391e+002,0.000000e+000
4.782676e+002,0.000000e+000
4.801961e+002,0.000000e+000
4.821246e+002,0.000000e+000
4.840531e+002,0.000000e+000
4.859816e+002,0.000000e+000
4.879101e+002,0.000000e+000
4.898386e+002,0.000000e+000
4.917671e+002,0.000000e+000
4.936956e+002,0.000000e+000
4.956241e+002,0.000000e+000
4.975526e+002,0.000000e+000
4.994811e+002,0.000000e+000
5.014096e+002,0.000000e+000
5.033381e+002,0.000000e+000
5.052666e+002,0.000000e+000
5.071951e+002,0.000000e+000
5.091236e+002,0.000000e+000
5.110521e+002,0.000000e+000
5.129806e+002,0.000000e+000
5.149091e+002,0.000000e+000
5.168376e+002,0.000000e+000
5.187661e+002,0.000000e+000
5.206946e+002,0.000000e+000
5.226230e+002,0.000000e+000
5.245516e+002,3.161654e-005
5.264800e+002,-1.161960e-004
5.284086e+002,-1.723985e-004
5.303370e+002,-1.823818e-004
5.322656e+002,-1.753620e-004
5.341940e+002,-3.142175e-004
5.361226e+002,-2.771323e-004
5.380510e+002,-7.514795e-005
5.399796e+002,-6.787525e-005
5.419081e+002,-2.137534e-004
5.438365e+002,-3.410005e-004
5.457650e+002,-4.039793e-004
5.476935e+002,-1.999219e-004
5.496221e+002,-1.506880e-006
5.515505e+002,2.458505e-005
5.534790e+002,3.794488e-005
5.554075e+002,1.565483e-004
5.573361e+002,2.040751e-004
5.592645e+002,1.879702e-004
5.611931e+002,5.648797e-005
5.631215e+002,-3.150199e-006
5.650500e+002,-2.314290e-005
5.669785e+002,2.343766e-005
5.689070e+002,1.210161e-005
5.708355e+002,7.855706e-007
5.727640e+002,-6.752694e-005
5.746925e+002,4.765857e-005
5.766210e+002,5.398039e-005
5.785495e+002,-5.791569e-005
5.804780e+002,-1.075198e-004
5.824065e+002,-4.996965e-005
5.843350e+002,2.945308e-006
5.862635e+002,1.473823e-004
5.881920e+002,9.912299e-005
5.901205e+002,4.445994e-005
5.920490e+002,1.993915e-005
5.939775e+002,3.858982e-005
5.959060e+002,6.855093e-005
5.978345e+002,1.575686e-004
5.997630e+002,2.452442e-004
6.016915e+002,3.513619e-004
6.036200e+002,3.370061e-004
6.055485e+002,4.515136e-004
6.074770e+002,5.728449e-004
6.094055e+002,5.457159e-004
6.113340e+002,3.716159e-004
6.132625e+002,4.200139e-004
6.151910e+002,3.095949e-004
6.171195e+002,2.157521e-004
6.190480e+002,3.082445e-004
6.209765e+002,4.726895e-004
6.229050e+002,6.235964e-004
6.248335e+002,6.492375e-004
6.267620e+002,5.759499e-004
6.286905e+002,7.329462e-004
6.306190e+002,8.308776e-004
6.325475e+002,8.355812e-004
6.344760e+002,7.986510e-004
6.364045e+002,8.741585e-004
6.383330e+002,9.143562e-004
6.402615e+002,1.026891e-003
6.421899e+002,1.048101e-003
6.441185e+002,9.965547e-004
6.460470e+002,9.558559e-004
6.479755e+002,1.141853e-003
6.499039e+002,1.200351e-003
6.518325e+002,1.180930e-003
6.537610e+002,1.209300e-003
6.556895e+002,1.359317e-003
6.576179e+002,1.424152e-003
6.595464e+002,1.454081e-003
6.614750e+002,1.390306e-003
6.634034e+002,1.439126e-003
6.653319e+002,1.517152e-003
6.672604e+002,1.644325e-003
6.691890e+002,1.596828e-003
6.711174e+002,1.666234e-003
6.730460e+002,1.808579e-003
6.749745e+002,1.934442e-003
6.769030e+002,1.976674e-003
6.788314e+002,2.092126e-003
6.807599e+002,2.153503e-003
6.826885e+002,2.387249e-003
6.846169e+002,2.490164e-003
6.865454e+002,2.668205e-003
6.884739e+002,2.897657e-003
6.904025e+002,3.145591e-003
6.923309e+002,3.371035e-003
6.942594e+002,3.847208e-003
6.961879e+002,4.383896e-003
6.981165e+002,5.085342e-003
7.000449e+002,5.840461e-003
7.019734e+002,6.987267e-003
7.039019e+002,8.495411e-003
7.058304e+002,1.069150e-002
7.077589e+002,1.352471e-002
7.096874e+002,1.773721e-002
7.116159e+002,2.450812e-002
7.135444e+002,3.751165e-002
7.154729e+002,6.125352e-002
7.174014e+002,9.478299e-002
7.193299e+002,1.104469e-001
7.212584e+002,8.464091e-002
7.231869e+002,5.751283e-002
7.251154e+002,4.815654e-002
7.270439e+002,5.291472e-002
7.289724e+002,6.691675e-002
7.309009e+002,6.163378e-002
7.328294e+002,3.541900e-002
7.347579e+002,1.884448e-002
7.366864e+002,1.281390e-002
7.386149e+002,1.024486e-002
7.405434e+002,8.689260e-003
7.424719e+002,7.679934e-003
7.444004e+002,6.891673e-003
7.463289e+002,6.317787e-003
7.482574e+002,5.811852e-003
7.501859e+002,5.489137e-003
7.521144e+002,5.205526e-003
7.540428e+002,4.916056e-003
7.559714e+002,4.692358e-003
7.578999e+002,4.625890e-003
7.598284e+002,4.507445e-003
7.617568e+002,4.455557e-003
7.636854e+002,4.419462e-003
7.656139e+002,4.362466e-003
7.675424e+002,4.305031e-003
7.694709e+002,4.278501e-003
7.713994e+002,4.223557e-003
7.733279e+002,4.127644e-003
7.752563e+002,4.050787e-003
7.771849e+002,3.894663e-003
7.791134e+002,3.742600e-003
7.810419e+002,3.709934e-003
7.829703e+002,3.605352e-003
7.848989e+002,3.513225e-003
7.868274e+002,3.410084e-003
7.887559e+002,3.351168e-003
7.906843e+002,3.322234e-003
7.926129e+002,3.306182e-003
7.945414e+002,3.340953e-003
7.964698e+002,3.351306e-003
7.983983e+002,3.337268e-003
8.003268e+002,3.298469e-003
8.022554e+002,3.261412e-003
8.041838e+002,3.261575e-003
8.061123e+002,3.277310e-003
8.080408e+002,3.276223e-003
8.099694e+002,3.329741e-003
8.118978e+002,3.451769e-003
8.138263e+002,3.494325e-003
8.157548e+002,3.461515e-003
8.176833e+002,3.358726e-003
8.196118e+002,3.201464e-003
8.215403e+002,3.008691e-003
8.234689e+002,2.754111e-003
8.253973e+002,2.460212e-003
8.273258e+002,2.190307e-003
8.292543e+002,1.998852e-003
8.311829e+002,1.939454e-003
8.331113e+002,1.904037e-003
8.350398e+002,1.793399e-003
8.369683e+002,1.720440e-003
8.388969e+002,1.622805e-003
8.408253e+002,1.599216e-003
8.427538e+002,1.589662e-003
8.446823e+002,1.609930e-003
8.466108e+002,1.618353e-003
8.485393e+002,1.652604e-003
8.504678e+002,1.672606e-003
8.523963e+002,1.711234e-003
8.543248e+002,1.698824e-003
8.562533e+002,1.741604e-003
8.581818e+002,1.874755e-003
8.601103e+002,2.029555e-003
8.620388e+002,2.157977e-003
8.639673e+002,2.302635e-003
8.658958e+002,2.410291e-003
8.678243e+002,2.524983e-003
8.697528e+002,2.667733e-003
8.716813e+002,2.823659e-003
8.736098e+002,2.843413e-003
8.755383e+002,2.823864e-003
8.774668e+002,2.860558e-003
8.793953e+002,2.978780e-003
8.813238e+002,3.075196e-003
8.832523e+002,3.256368e-003
8.851808e+002,3.441896e-003
8.871093e+002,3.618998e-003
8.890378e+002,3.596043e-003
8.909663e+002,3.382946e-003
8.928948e+002,3.163883e-003
8.948232e+002,3.087644e-003
8.967518e+002,2.992270e-003
8.986803e+002,2.882724e-003
9.006088e+002,2.810598e-003
9.025372e+002,2.838840e-003
9.044658e+002,2.901488e-003
9.063943e+002,3.143439e-003
9.083228e+002,3.285510e-003
9.102512e+002,3.154867e-003
9.121797e+002,2.906399e-003
9.141083e+002,2.794805e-003
9.160367e+002,2.636375e-003
9.179653e+002,2.509717e-003
9.198937e+002,2.463097e-003
9.218223e+002,2.542035e-003
9.237507e+002,2.525986e-003
9.256793e+002,2.484726e-003
9.276077e+002,2.461362e-003
9.295363e+002,2.540056e-003
9.314647e+002,2.598065e-003
9.333932e+002,2.727764e-003
9.353217e+002,2.836052e-003
9.372502e+002,2.962059e-003
9.391787e+002,3.037748e-003
9.411072e+002,3.058651e-003
9.430358e+002,3.092209e-003
9.449642e+002,3.215062e-003
9.468928e+002,3.259542e-003
9.488212e+002,3.307905e-003
9.507498e+002,3.395863e-003
9.526782e+002,3.474969e-003
9.546068e+002,3.513466e-003
9.565352e+002,3.667722e-003
9.584637e+002,3.788854e-003
9.603922e+002,3.891660e-003
9.623207e+002,4.003187e-003
9.642492e+002,4.180071e-003
9.661777e+002,4.271029e-003
9.681062e+002,4.286890e-003
9.700347e+002,4.267987e-003
9.719632e+002,4.276140e-003
9.738917e+002,4.256424e-003
9.758202e+002,4.286397e-003
9.777487e+002,4.304990e-003
9.796772e+002,4.313833e-003
9.816057e+002,4.327242e-003
9.835342e+002,4.418042e-003
9.854627e+002,4.509382e-003
9.873912e+002,4.716185e-003
9.893197e+002,4.958410e-003
9.912482e+002,5.233449e-003
9.931767e+002,5.542282e-003
9.951052e+002,5.906867e-003
9.970337e+002,6.309527e-003
9.989622e+002,6.713537e-003
1.000891e+003,7.060695e-003
1.002819e+003,7.431233e-003
1.004748e+003,7.790217e-003
1.006676e+003,8.219644e-003
1.008605e+003,8.621128e-003
1.010533e+003,9.056088e-003
1.012462e+003,9.368395e-003
1.014390e+003,9.732324e-003
1.016319e+003,1.011472e-002
1.018247e+003,1.047005e-002
1.020176e+003,1.073091e-002
1.022104e+003,1.102406e-002
1.024033e+003,1.128480e-002
1.025961e+003,1.150664e-002
1.027890e+003,1.167451e-002
1.029818e+003,1.186176e-002
1.031747e+003,1.196371e-002
1.033675e+003,1.197723e-002
1.035604e+003,1.185201e-002
1.037532e+003,1.177817e-002
1.039461e+003,1.163751e-002
1.041389e+003,1.155562e-002
1.043318e+003,1.147480e-002
1.045246e+003,1.144138e-002
1.047175e+003,1.153677e-002
1.049103e+003,1.179919e-002
1.051032e+003,1.197166e-002
1.052960e+003,1.210516e-002
1.054889e+003,1.222826e-002
1.056817e+003,1.246716e-002
1.058746e+003,1.270313e-002
1.060674e+003,1.293715e-002
1.062603e+003,1.305596e-002
1.064531e+003,1.314062e-002
1.066460e+003,1.319170e-002
1.068388e+003,1.329216e-002
1.070317e+003,1.334514e-002
1.072245e+003,1.349655e-002
1.074174e+003,1.364310e-002
1.076102e+003,1.382490e-002
1.078031e+003,1.391976e-002
1.079959e+003,1.396775e-002
1.081888e+003,1.384465e-002
1.083816e+003,1.371800e-002
1.085745e+003,1.353805e-002
1.087673e+003,1.338093e-002
1.089602e+003,1.317209e-002
1.091530e+003,1.291108e-002
1.093459e+003,1.256158e-002
1.095387e+003,1.226953e-002
1.097316e+003,1.188156e-002
1.099244e+003,1.149463e-002
1.101173e+003,1.115670e-002
1.103101e+003,1.092745e-002
1.105030e+003,1.065248e-002
1.106958e+003,1.046818e-002
1.108887e+003,1.028994e-002
1.110815e+003,1.013059e-002
1.112744e+003,9.867696e-003
1.114672e+003,9.635394e-003
1.116601e+003,9.393013e-003
1.118529e+003,9.288304e-003
1.120458e+003,9.206613e-003
1.122386e+003,9.156293e-003
1.124315e+003,9.036826e-003
1.126243e+003,8.997061e-003
1.128172e+003,8.957261e-003
1.130100e+003,8.975575e-003
1.132029e+003,8.908920e-003
1.133957e+003,8.866097e-003
1.135885e+003,8.885109e-003
1.137814e+003,9.034816e-003
1.139743e+003,9.179057e-003
1.141671e+003,9.390092e-003
1.143600e+003,9.603334e-003
1.145528e+003,9.879077e-003
1.147457e+003,1.011847e-002
1.149385e+003,1.041924e-002
1.151314e+003,1.058681e-002
1.153242e+003,1.067442e-002
1.155171e+003,1.061645e-002
1.157099e+003,1.047770e-002
1.159028e+003,1.015025e-002
1.160956e+003,9.811147e-003
1.162885e+003,9.424143e-003
1.164813e+003,9.035809e-003
1.166742e+003,8.574740e-003
1.168670e+003,8.231719e-003
1.170599e+003,7.899924e-003
1.172527e+003,7.620250e-003
1.174456e+003,7.353157e-003
1.176384e+003,7.204480e-003
1.178313e+003,6.957678e-003
1.180241e+003,6.693070e-003
1.182170e+003,6.450809e-003
1.184098e+003,6.340833e-003
1.186027e+003,6.274476e-003
1.187955e+003,6.272588e-003
1.189884e+003,6.234002e-003
1.191812e+003,6.268776e-003
1.193740e+003,6.267748e-003
1.195669e+003,6.346635e-003
1.197598e+003,6.441752e-003
1.199526e+003,6.641770e-003
1.201455e+003,6.818130e-003
1.203383e+003,7.057515e-003
1.205312e+003,7.263390e-003
1.207240e+003,7.570092e-003
1.209168e+003,7.809511e-003
1.211097e+003,8.082077e-003
1.213026e+003,8.296060e-003
1.214954e+003,8.566353e-003
1.216883e+003,8.767246e-003
1.218811e+003,9.000756e-003
1.220740e+003,9.207185e-003
1.222668e+003,9.397583e-003
1.224596e+003,9.508543e-003
1.226525e+003,9.608865e-003
1.228453e+003,9.682878e-003
1.230382e+003,9.865528e-003
1.232311e+003,1.000833e-002
1.234239e+003,1.016334e-002
1.236167e+003,1.024505e-002
1.238096e+003,1.034270e-002
1.240025e+003,1.032564e-002
1.241953e+003,1.033070e-002
1.243882e+003,1.025547e-002
1.245810e+003,1.018895e-002
1.247739e+003,1.006846e-002
1.249667e+003,9.990234e-003
1.251595e+003,9.826940e-003
1.253524e+003,9.743458e-003
1.255453e+003,9.651447e-003
1.257381e+003,9.617599e-003
1.259310e+003,9.527510e-003
1.261238e+003,9.443532e-003
1.263167e+003,9.260982e-003
1.265095e+003,9.182045e-003
1.267023e+003,9.126567e-003
1.268952e+003,9.194173e-003
1.270880e+003,9.191496e-003
1.272809e+003,9.210217e-003
1.274738e+003,9.165718e-003
1.276666e+003,9.214493e-003
1.278594e+003,9.222702e-003
1.280523e+003,9.376929e-003
1.282451e+003,9.500667e-003
1.284380e+003,9.699757e-003
1.286308e+003,9.873711e-003
1.288237e+003,1.017141e-002
1.290166e+003,1.044001e-002
1.292094e+003,1.086023e-002
1.294022e+003,1.128814e-002
1.295951e+003,1.175747e-002
1.297879e+003,1.206525e-002
1.299808e+003,1.236579e-002
1.301736e+003,1.251953e-002
1.303665e+003,1.261759e-002
1.305594e+003,1.254139e-002
1.307522e+003,1.248967e-002
1.309450e+003,1.225020e-002
1.311379e+003,1.202333e-002
1.313307e+003,1.161286e-002
1.315236e+003,1.122436e-002
1.317164e+003,1.085852e-002
1.319093e+003,1.051116e-002
1.321021e+003,9.985131e-003
1.322950e+003,9.686735e-003
1.324878e+003,9.437852e-003
1.326807e+003,9.382457e-003
1.328735e+003,9.338176e-003
1.330664e+003,9.494741e-003
1.332592e+003,9.734545e-003
1.334521e+003,1.027101e-002
1.336449e+003,1.098152e-002
1.338378e+003,1.202917e-002
1.340306e+003,1.263568e-002
1.342235e+003,1.284531e-002
1.344163e+003,1.318397e-002
1.346092e+003,1.384817e-002
1.348021e+003,1.456684e-002
1.349949e+003,1.528896e-002
1.351877e+003,1.563296e-002
1.353806e+003,1.577094e-002
1.355734e+003,1.556035e-002
1.357663e+003,1.563749e-002
1.359591e+003,1.615714e-002
1.361520e+003,1.724142e-002
1.363448e+003,1.838002e-002
1.365377e+003,1.944377e-002
1.367305e+003,2.052226e-002
1.369234e+003,2.110596e-002
1.371162e+003,2.095761e-002
1.373091e+003,2.151153e-002
1.375019e+003,2.345907e-002
1.376948e+003,2.486826e-002
1.378876e+003,2.317532e-002
1.380805e+003,1.862067e-002
1.382733e+003,1.427802e-002
1.384662e+003,1.190573e-002
1.386590e+003,1.054920e-002
1.388519e+003,9.526962e-003
1.390447e+003,8.896382e-003
1.392376e+003,8.924754e-003
1.394304e+003,8.901748e-003
1.396233e+003,8.899514e-003
1.398161e+003,8.738553e-003
1.400090e+003,8.679680e-003
1.402018e+003,8.495526e-003
1.403947e+003,8.894368e-003
1.405875e+003,8.867228e-003
1.407804e+003,9.020062e-003
1.409732e+003,9.178213e-003
1.411661e+003,9.587755e-003
1.413589e+003,9.651490e-003
1.415518e+003,1.024916e-002
1.417446e+003,1.068193e-002
1.419375e+003,1.130002e-002
1.421303e+003,1.152067e-002
1.423232e+003,1.273875e-002
1.425160e+003,1.402232e-002
1.427089e+003,1.591423e-002
1.429017e+003,1.848163e-002
1.430946e+003,2.213020e-002
1.432874e+003,2.508311e-002
1.434803e+003,2.821279e-002
1.436731e+003,3.134735e-002
1.438660e+003,3.406855e-002
1.440588e+003,3.583155e-002
1.442517e+003,3.828573e-002
1.444445e+003,4.026257e-002
1.446374e+003,4.315531e-002
1.448302e+003,4.698462e-002
1.450231e+003,5.290046e-002
1.452159e+003,6.178515e-002
1.454088e+003,7.310371e-002
1.456016e+003,8.436607e-002
1.457945e+003,1.079147e-001
1.459873e+003,1.474927e-001
1.461802e+003,1.899660e-001
1.463730e+003,1.948015e-001
1.465659e+003,1.561478e-001
1.467587e+003,1.422323e-001
1.469516e+003,1.394309e-001
1.471444e+003,1.553716e-001
1.473373e+003,1.340005e-001
1.475301e+003,7.405792e-002
1.477230e+003,3.460369e-002
1.479158e+003,2.290972e-002
1.481087e+003,1.721019e-002
1.483015e+003,1.442743e-002
1.484944e+003,1.238213e-002
1.486872e+003,1.198378e-002
1.488801e+003,1.063042e-002
1.490729e+003,9.838917e-003
1.492658e+003,8.480241e-003
1.494586e+003,8.627431e-003
1.496515e+003,7.865976e-003
1.498443e+003,7.801261e-003
1.500372e+003,7.035819e-003
1.502300e+003,7.071714e-003
1.504229e+003,6.943820e-003
1.506157e+003,7.947326e-003
1.508086e+003,6.521062e-003
1.510014e+003,6.615978e-003
1.511943e+003,6.035857e-003
1.513871e+003,6.223016e-003
1.515800e+003,6.212961e-003
1.517728e+003,6.399393e-003
1.519657e+003,6.183823e-003
1.521585e+003,6.559979e-003
1.523514e+003,5.867166e-003
1.525442e+003,6.276798e-003
1.527371e+003,5.764513e-003
1.529299e+003,5.627835e-003
1.531228e+003,5.596513e-003
1.533156e+003,5.951817e-003
1.535085e+003,5.362313e-003
1.537013e+003,5.866178e-003
1.538942e+003,6.303751e-003
1.540870e+003,6.584345e-003
1.542799e+003,5.919795e-003
1.544727e+003,5.781628e-003
1.546656e+003,5.021185e-003
1.548584e+003,5.247448e-003
1.550513e+003,5.154178e-003
1.552441e+003,5.279026e-003
1.554370e+003,5.337441e-003
1.556298e+003,5.779457e-003
1.558227e+003,6.009993e-003
1.560155e+003,4.875198e-003
1.562084e+003,4.506897e-003
1.564012e+003,4.672369e-003
1.565941e+003,4.511267e-003
1.567869e+003,4.979506e-003
1.569798e+003,4.916694e-003
1.571726e+003,4.574807e-003
1.573655e+003,4.723193e-003
1.575583e+003,5.244328e-003
1.577512e+003,4.705059e-003
1.579440e+003,4.632973e-003
1.581369e+003,4.576484e-003
1.583297e+003,4.649021e-003
1.585226e+003,4.623652e-003
1.587154e+003,4.814138e-003
1.589083e+003,4.882218e-003
1.591011e+003,4.948877e-003
1.592940e+003,4.927504e-003
1.594868e+003,5.119586e-003
1.596797e+003,5.050062e-003
1.598725e+003,5.085516e-003
1.600654e+003,5.124466e-003
1.602582e+003,5.321656e-003
1.604511e+003,5.229123e-003
1.606439e+003,5.399319e-003
1.608368e+003,5.478686e-003
1.610296e+003,5.495986e-003
1.612225e+003,5.469515e-003
1.614153e+003,5.920203e-003
1.616082e+003,6.286583e-003
1.618010e+003,6.086836e-003
1.619939e+003,6.050334e-003
1.621867e+003,6.519815e-003
1.623796e+003,6.460525e-003
1.625724e+003,6.457809e-003
1.627653e+003,6.567488e-003
1.629581e+003,6.519738e-003
1.631510e+003,6.610411e-003
1.633438e+003,7.155960e-003
1.635367e+003,7.545379e-003
1.637295e+003,7.287548e-003
1.639224e+003,7.147524e-003
1.641152e+003,7.200057e-003
1.643081e+003,7.209847e-003
1.645009e+003,7.748629e-003
1.646938e+003,7.895008e-003
1.648866e+003,7.321455e-003
1.650795e+003,7.425752e-003
1.652723e+003,7.901263e-003
1.654652e+003,6.810261e-003
1.656580e+003,6.593637e-003
1.658509e+003,6.428711e-003
1.660437e+003,6.576100e-003
1.662366e+003,6.566431e-003
1.664294e+003,6.189726e-003
1.666223e+003,6.123195e-003
1.668151e+003,6.451283e-003
1.670080e+003,6.030494e-003
1.672008e+003,5.656648e-003
1.673937e+003,5.546769e-003
1.675865e+003,5.214904e-003
1.677794e+003,4.976953e-003
1.679722e+003,5.227561e-003
1.681651e+003,5.285342e-003
1.683579e+003,5.455340e-003
1.685508e+003,4.214747e-003
1.687436e+003,4.214507e-003
1.689365e+003,3.933507e-003
1.691293e+003,3.612702e-003
1.693222e+003,3.717459e-003
1.695150e+003,4.048425e-003
1.697079e+003,3.730966e-003
1.699007e+003,3.921756e-003
1.700936e+003,3.100839e-003
1.702864e+003,3.136300e-003
1.704793e+003,3.236012e-003
1.706721e+003,3.023876e-003
1.708650e+003,2.870562e-003
1.710578e+003,3.061509e-003
1.712507e+003,3.247104e-003
1.714435e+003,3.860607e-003
1.716364e+003,4.106765e-003
1.718292e+003,3.668739e-003
1.720221e+003,3.317666e-003
1.722149e+003,3.606624e-003
1.724078e+003,3.481361e-003
1.726006e+003,3.350016e-003
1.727935e+003,3.393586e-003
1.729863e+003,3.648749e-003
1.731792e+003,3.778140e-003
1.733720e+003,3.839448e-003
1.735649e+003,3.068748e-003
1.737577e+003,3.305918e-003
1.739506e+003,3.278449e-003
1.741434e+003,3.164230e-003
1.743363e+003,3.217462e-003
1.745291e+003,3.245895e-003
1.747220e+003,3.276592e-003
1.749148e+003,3.241001e-003
1.751077e+003,2.628202e-003
1.753005e+003,2.133709e-003
1.754934e+003,2.008582e-003
1.756862e+003,1.929850e-003
1.758791e+003,1.643759e-003
1.760719e+003,1.790458e-003
1.762648e+003,1.342030e-003
1.764576e+003,1.220744e-003
1.766505e+003,1.380855e-003
1.768433e+003,1.501950e-003
1.770362e+003,1.630719e-003
1.772290e+003,1.564748e-003
1.774219e+003,9.067943e-004
1.776147e+003,9.085382e-004
1.778076e+003,1.001162e-003
1.780004e+003,1.219308e-003
1.781933e+003,9.326283e-004
1.783861e+003,1.050651e-003
1.785790e+003,8.606766e-004
1.787718e+003,8.398364e-004
1.789646e+003,1.136810e-003
1.791575e+003,1.466784e-003
1.793504e+003,9.223553e-004
1.795432e+003,9.172061e-004
1.797361e+003,8.589351e-004
1.799289e+003,1.016613e-003
1.801218e+003,8.580117e-004
1.803146e+003,6.814743e-004
1.805074e+003,4.702397e-004
1.807003e+003,5.521867e-004
1.808932e+003,5.568741e-004
1.810860e+003,5.662744e-004
1.812789e+003,1.804330e-004
1.814717e+003,-2.799323e-005
1.816646e+003,-1.996853e-004
1.818574e+003,1.291744e-006
1.820502e+003,1.015482e-004
1.822431e+003,3.896374e-004
1.824360e+003,2.467665e-004
1.826288e+003,4.983600e-005
1.828217e+003,5.525863e-005
1.830145e+003,-2.434943e-006
1.832073e+003,-4.256736e-004
1.834002e+003,-2.632430e-004
1.835931e+003,-2.731611e-004
1.837859e+003,-2.356004e-004
1.839788e+003,-4.372583e-004
1.841716e+003,-3.569596e-004
1.843645e+003,-5.169380e-004
1.845573e+003,-4.269178e-004
1.847501e+003,-3.431933e-004
1.849430e+003,-2.813553e-004
1.851359e+003,-6.042183e-004
1.853287e+003,-5.167699e-004
1.855216e+003,-5.840817e-004
1.857144e+003,-5.548131e-004
1.859073e+003,-7.401924e-004
1.861001e+003,-4.927157e-004
1.862929e+003,-6.355471e-004
1.864858e+003,-5.088854e-004
1.866787e+003,-3.438005e-004
1.868715e+003,-4.675235e-004
1.870644e+003,-9.325123e-004
1.872572e+003,-8.053030e-004
1.874500e+003,-8.822493e-004
1.876429e+003,-7.078899e-004
1.878357e+003,-8.054995e-004
1.880286e+003,-8.165785e-004
1.882215e+003,-1.044920e-003
1.884143e+003,-7.807356e-004
1.886072e+003,-7.137954e-004
1.888000e+003,-4.596831e-004
1.889928e+003,-8.575148e-004
1.891857e+003,-8.577500e-004
1.893785e+003,-8.004135e-004
1.895714e+003,-6.680381e-004
1.897643e+003,-7.590316e-004
1.899571e+003,-5.353517e-004
1.901500e+003,-5.277400e-004
1.903428e+003,-5.201432e-004
1.905356e+003,-5.125618e-004
1.907285e+003,-5.049962e-004
1.909213e+003,-4.974459e-004
1.911142e+003,-4.899097e-004
1.913071e+003,-4.823897e-004
1.914999e+003,-4.748851e-004
1.916927e+003,-4.673959e-004
1.918856e+003,-4.599211e-004
1.920784e+003,-4.524621e-004
1.922713e+003,-4.450190e-004
1.924641e+003,-4.375903e-004
1.926570e+003,-4.301765e-004
1.928499e+003,-4.227785e-004
1.930427e+003,-4.153964e-004
1.932355e+003,-4.080301e-004
1.934284e+003,-4.006773e-004
1.936212e+003,-3.933408e-004
1.938141e+003,-3.860202e-004
1.940070e+003,-3.787135e-004
1.941998e+003,-3.714231e-004
1.943927e+003,-3.641481e-004
1.945855e+003,-3.568879e-004
1.947783e+003,-3.496427e-004
1.949712e+003,-3.424138e-004
1.951640e+003,-3.351993e-004
1.953569e+003,-3.280006e-004
1.955498e+003,-3.208169e-004
1.957426e+003,-3.136490e-004
1.959354e+003,-3.064955e-004
1.961283e+003,-2.993578e-004
1.963211e+003,-2.922346e-004
1.965140e+003,-2.851286e-004
1.967068e+003,-2.780366e-004
1.968997e+003,-2.709609e-004
1.970926e+003,-2.638986e-004
1.972854e+003,-2.568532e-004
1.974782e+003,-2.498226e-004
1.976711e+003,-2.428079e-004
1.978639e+003,-2.358072e-004
1.980568e+003,-2.288227e-004
1.982496e+003,-2.218536e-004
1.984425e+003,-2.148990e-004
1.986354e+003,-2.079606e-004
1.988282e+003,-2.010376e-004
1.990210e+003,-1.941291e-004
1.992139e+003,-1.872359e-004
1.994067e+003,-1.803590e-004
1.995996e+003,-1.734961e-004
1.997924e+003,-1.666490e-004
1.999853e+003,-1.598168e-004
2.001781e+003,-1.530009e-004
2.003710e+003,-1.461999e-004
2.005638e+003,-1.394143e-004
2.007567e+003,-1.326432e-004
2.009495e+003,-1.258883e-004
2.011424e+003,-1.191492e-004
2.013352e+003,-1.124237e-004
2.015281e+003,-1.057144e-004
2.017209e+003,-9.902054e-005
2.019138e+003,-9.234296e-005
2.021066e+003,-8.567888e-005
2.022995e+003,-7.903064e-005
2.024923e+003,-7.239822e-005
2.026852e+003,-6.578118e-005
2.028781e+003,-5.917763e-005
2.030709e+003,-5.259085e-005
2.032637e+003,-4.601944e-005
2.034566e+003,-3.946340e-005
2.036494e+003,-3.292179e-005
2.038423e+003,-2.639601e-005
2.040351e+003,-1.988607e-005
2.042280e+003,-1.339009e-005
2.044208e+003,-6.910879e-006
2.046137e+003,-4.465692e-007
2.048065e+003,6.001908e-006
2.049994e+003,1.243548e-005
2.051922e+003,1.885463e-005
2.053851e+003,2.525933e-005
2.055779e+003,3.164681e-005
2.057708e+003,3.801892e-005
2.059636e+003,4.437612e-005
2.061565e+003,5.071796e-005
2.063493e+003,5.704444e-005
2.065422e+003,6.335555e-005
2.067350e+003,6.965268e-005
2.069279e+003,7.593445e-005
2.071207e+003,8.220039e-005
2.073136e+003,8.845050e-005
2.075064e+003,9.468477e-005
2.076993e+003,1.009046e-004
2.078921e+003,1.071086e-004
2.080850e+003,1.132968e-004
2.082778e+003,1.194710e-004
2.084707e+003,1.256308e-004
2.086635e+003,1.317742e-004
2.088564e+003,1.379014e-004
2.090492e+003,1.440141e-004
2.092421e+003,1.501106e-004
2.094349e+003,1.561926e-004
2.096278e+003,1.622592e-004
2.098206e+003,1.683119e-004
2.100135e+003,1.743478e-004
2.102063e+003,1.803692e-004
2.103992e+003,1.863739e-004
2.105920e+003,1.923647e-004
2.107849e+003,1.983386e-004
2.109777e+003,2.042986e-004
2.111706e+003,2.102428e-004
2.113634e+003,2.161735e-004
2.115563e+003,2.220860e-004
2.117491e+003,2.279850e-004
2.119420e+003,2.338672e-004
2.121348e+003,2.397345e-004
2.123277e+003,2.455870e-004
2.125205e+003,2.514240e-004
2.127134e+003,2.572453e-004
2.129062e+003,2.630539e-004
2.130991e+003,2.688449e-004
2.132919e+003,2.746210e-004
2.134848e+003,2.803812e-004
2.136776e+003,2.861265e-004
2.138705e+003,2.918569e-004
2.140633e+003,2.975706e-004
2.142562e+003,3.032731e-004
2.144490e+003,3.089560e-004
2.146419e+003,3.146250e-004
2.148347e+003,3.202781e-004
2.150276e+003,3.259163e-004
2.152204e+003,3.315387e-004
2.154133e+003,3.371472e-004
2.156061e+003,3.427407e-004
2.157990e+003,3.483174e-004
2.159918e+003,3.538793e-004
2.161847e+003,3.594253e-004
2.163775e+003,3.649564e-004
2.165704e+003,3.704708e-004
2.167632e+003,3.759721e-004
2.169561e+003,3.814567e-004
2.171489e+003,3.869273e-004
2.173418e+003,3.923839e-004
2.175346e+003,3.978238e-004
2.177275e+003,4.032468e-004
2.179203e+003,4.086560e-004
2.181132e+003,4.140483e-004
2.183060e+003,4.194267e-004
2.184989e+003,4.247893e-004
2.186917e+003,4.301388e-004
2.188846e+003,4.354706e-004
2.190774e+003,4.407866e-004
2.192703e+003,4.460886e-004
2.194631e+003,4.513757e-004
2.196560e+003,4.566461e-004
2.198488e+003,4.619015e-004
2.200417e+003,4.671440e-004
2.202345e+003,4.723677e-004
2.204274e+003,4.775785e-004
2.206202e+003,4.827734e-004
2.208131e+003,4.879525e-004
2.210059e+003,4.931157e-004
2.211988e+003,4.982641e-004
2.213916e+003,5.033975e-004
2.215845e+003,5.085161e-004
2.217773e+003,5.136197e-004
2.219702e+003,5.187076e-004
2.221630e+003,5.237795e-004
2.223559e+003,5.288357e-004
2.225487e+003,5.338779e-004
2.227416e+003,5.389033e-004
2.229344e+003,5.439147e-004
2.231273e+003,5.489122e-004
2.233201e+003,5.538920e-004
2.235130e+003,5.588559e-004
2.237058e+003,5.638059e-004
2.238987e+003,5.687401e-004
2.240915e+003,5.736593e-004
2.242844e+003,5.785627e-004
2.244772e+003,5.834540e-004
2.246701e+003,5.883267e-004
2.248629e+003,5.931845e-004
2.250558e+003,5.980274e-004
2.252486e+003,6.028544e-004
2.254415e+003,6.076666e-004
2.256343e+003,6.124629e-004
2.258272e+003,6.172443e-004
2.260200e+003,6.220108e-004
2.262129e+003,6.267633e-004
2.264057e+003,6.314972e-004
2.265986e+003,6.362181e-004
2.267914e+003,6.409222e-004
2.269843e+003,6.456124e-004
2.271771e+003,6.502867e-004
2.273700e+003,6.549452e-004
2.275628e+003,6.595906e-004
2.277557e+003,6.642193e-004
2.279485e+003,6.688321e-004
2.281414e+003,6.734310e-004
2.283342e+003,6.780131e-004
2.285271e+003,6.825803e-004
2.287199e+003,6.871326e-004
2.289128e+003,6.916709e-004
2.291056e+003,6.961916e-004
2.292985e+003,7.006973e-004
2.294913e+003,7.051872e-004
2.296842e+003,7.096631e-004
2.298770e+003,7.141232e-004
2.300699e+003,7.185675e-004
2.302627e+003,7.229997e-004
2.304556e+003,7.274132e-004
2.306484e+003,7.318119e-004
2.308413e+003,7.361956e-004
2.310341e+003,7.405635e-004
2.312270e+003,7.449165e-004
2.314198e+003,7.492537e-004
2.316127e+003,7.535769e-004
2.318055e+003,7.578842e-004
2.319984e+003,7.621767e-004
2.321912e+003,7.664543e-004
2.323841e+003,7.707160e-004
2.325769e+003,7.749610e-004
2.327698e+003,7.791910e-004
2.329626e+003,7.834071e-004
2.331555e+003,7.876065e-004
2.333483e+003,7.917928e-004
2.335412e+003,7.959623e-004
2.337340e+003,8.001160e-004
2.339269e+003,8.042548e-004
2.341197e+003,8.083787e-004
2.343126e+003,8.124867e-004
2.345054e+003,8.165790e-004
2.346983e+003,8.206591e-004
2.348911e+003,8.247215e-004
2.350840e+003,8.287681e-004
2.352768e+003,8.328008e-004
2.354697e+003,8.368166e-004
2.356625e+003,8.408185e-004
2.358554e+003,8.448027e-004
2.360482e+003,8.487729e-004
2.362411e+003,8.527283e-004
2.364339e+003,8.566706e-004
2.366268e+003,8.605951e-004
2.368196e+003,8.645039e-004
2.370125e+003,8.683978e-004
2.372053e+003,8.722767e-004
2.373982e+003,8.761398e-004
2.375910e+003,8.799881e-004
2.377839e+003,8.838223e-004
2.379767e+003,8.876398e-004
2.381696e+003,8.914424e-004
2.383624e+003,8.952282e-004
2.385553e+003,8.989992e-004
2.387481e+003,9.027580e-004
2.389410e+003,9.064991e-004
2.391338e+003,9.102253e-004
2.393267e+003,9.139366e-004
2.395195e+003,9.176312e-004
2.397124e+003,9.213109e-004
2.399052e+003,9.249747e-004
2.400981e+003,9.536091e-004
2.402909e+003,1.037916e-003
2.404838e+003,1.068037e-003
2.406766e+003,1.268223e-003
2.408695e+003,1.520445e-003
2.410623e+003,1.459416e-003
2.412552e+003,1.563029e-003
2.414480e+003,1.678530e-003
2.416409e+003,1.751982e-003
2.418337e+003,1.584975e-003
2.420266e+003,1.560719e-003
2.422194e+003,1.550360e-003
2.424123e+003,1.458738e-003
2.426051e+003,1.512497e-003
2.427979e+003,1.579666e-003
2.429908e+003,1.390446e-003
2.431837e+003,1.484131e-003
2.433765e+003,1.678269e-003
2.435694e+003,1.709127e-003
2.437622e+003,1.592133e-003
2.439551e+003,1.575820e-003
2.441479e+003,1.571728e-003
2.443407e+003,1.513549e-003
2.445336e+003,1.462800e-003
2.447265e+003,1.579667e-003
2.449193e+003,1.623570e-003
2.451122e+003,1.747721e-003
2.453050e+003,1.719613e-003
2.454979e+003,1.670566e-003
2.456907e+003,1.570021e-003
2.458836e+003,1.638240e-003
2.460764e+003,1.718916e-003
2.462693e+003,1.702733e-003
2.464621e+003,1.585760e-003
2.466550e+003,1.631366e-003
2.468478e+003,1.766220e-003
2.470406e+003,1.950935e-003
2.472335e+003,2.085274e-003
2.474264e+003,2.264093e-003
2.476192e+003,2.074049e-003
2.478121e+003,1.990465e-003
2.480049e+003,2.116741e-003
2.481978e+003,2.131383e-003
2.483906e+003,2.141214e-003
2.485835e+003,2.230326e-003
2.487763e+003,2.178134e-003
2.489692e+003,2.112092e-003
2.491620e+003,2.098017e-003
2.493549e+003,2.326166e-003
2.495477e+003,2.468405e-003
2.497406e+003,2.533117e-003
2.499334e+003,2.585777e-003
2.501263e+003,2.678498e-003
2.503191e+003,2.705493e-003
2.505120e+003,2.718915e-003
2.507048e+003,2.675711e-003
2.508977e+003,2.739394e-003
2.510905e+003,2.673731e-003
2.512833e+003,2.717106e-003
2.514762e+003,2.869530e-003
2.516691e+003,3.053078e-003
2.518619e+003,3.102987e-003
2.520548e+003,3.289887e-003
2.522476e+003,3.474723e-003
2.524405e+003,3.591860e-003
2.526333e+003,3.634599e-003
2.528261e+003,3.835581e-003
2.530190e+003,3.926860e-003
2.532119e+003,3.843838e-003
2.534047e+003,3.835330e-003
2.535976e+003,3.879805e-003
2.537904e+003,3.768677e-003
2.539833e+003,3.776926e-003
2.541761e+003,3.858855e-003
2.543689e+003,4.031638e-003
2.545618e+003,4.221103e-003
2.547547e+003,4.417714e-003
2.549475e+003,4.541289e-003
2.551404e+003,4.638576e-003
2.553332e+003,4.594116e-003
2.555260e+003,4.768106e-003
2.557189e+003,4.805051e-003
2.559117e+003,4.813591e-003
2.561046e+003,5.140398e-003
2.562975e+003,5.489654e-003
2.564903e+003,5.534804e-003
2.566832e+003,5.581735e-003
2.568760e+003,5.618883e-003
2.570688e+003,5.737114e-003
2.572617e+003,5.864942e-003
2.574546e+003,6.191622e-003
2.576474e+003,6.514011e-003
2.578403e+003,6.687681e-003
2.580331e+003,6.829766e-003
2.582260e+003,7.047828e-003
2.584188e+003,7.140312e-003
2.586116e+003,7.356961e-003
2.588045e+003,7.529696e-003
2.589974e+003,7.733133e-003
2.591902e+003,8.065731e-003
2.593831e+003,8.394887e-003
2.595759e+003,8.627602e-003
2.597688e+003,8.847299e-003
2.599616e+003,8.928105e-003
2.601544e+003,9.071108e-003
2.603473e+003,9.391112e-003
2.605402e+003,9.715002e-003
2.607330e+003,9.912865e-003
2.609259e+003,1.025243e-002
2.611187e+003,1.065816e-002
2.613115e+003,1.101202e-002
2.615044e+003,1.127330e-002
2.616972e+003,1.156030e-002
2.618901e+003,1.195468e-002
2.620830e+003,1.238554e-002
2.622758e+003,1.282233e-002
2.624687e+003,1.335909e-002
2.626615e+003,1.377088e-002
2.628543e+003,1.410891e-002
2.630472e+003,1.450230e-002
2.632400e+003,1.489396e-002
2.634329e+003,1.516891e-002
2.636258e+003,1.527560e-002
2.638186e+003,1.530212e-002
2.640115e+003,1.537368e-002
2.642043e+003,1.531869e-002
2.643971e+003,1.538422e-002
2.645900e+003,1.549332e-002
2.647828e+003,1.556136e-002
2.649757e+003,1.562311e-002
2.651686e+003,1.571755e-002
2.653614e+003,1.587915e-002
2.655542e+003,1.607610e-002
2.657471e+003,1.626775e-002
2.659399e+003,1.628323e-002
2.661328e+003,1.616250e-002
2.663256e+003,1.601729e-002
2.665185e+003,1.582840e-002
2.667114e+003,1.571258e-002
2.669042e+003,1.561385e-002
2.670970e+003,1.544878e-002
2.672899e+003,1.527606e-002
2.674827e+003,1.510036e-002
2.676756e+003,1.494528e-002
2.678685e+003,1.486973e-002
2.680613e+003,1.484963e-002
2.682542e+003,1.482357e-002
2.684470e+003,1.466851e-002
2.686398e+003,1.449885e-002
2.688327e+003,1.437511e-002
2.690255e+003,1.430930e-002
2.692184e+003,1.421384e-002
2.694113e+003,1.414623e-002
2.696041e+003,1.408425e-002
2.697969e+003,1.411943e-002
2.699898e+003,1.423874e-002
2.701826e+003,1.438994e-002
2.703755e+003,1.456545e-002
2.705683e+003,1.471434e-002
2.707612e+003,1.490115e-002
2.709541e+003,1.510356e-002
2.711469e+003,1.524388e-002
2.713397e+003,1.540260e-002
2.715326e+003,1.562523e-002
2.717254e+003,1.586578e-002
2.719183e+003,1.612136e-002
2.721111e+003,1.642246e-002
2.723040e+003,1.668912e-002
2.724969e+003,1.700400e-002
2.726897e+003,1.732872e-002
2.728825e+003,1.759143e-002
2.730754e+003,1.777906e-002
2.732682e+003,1.792176e-002
2.734611e+003,1.807627e-002
2.736539e+003,1.821537e-002
2.738468e+003,1.834620e-002
2.740396e+003,1.849022e-002
2.742325e+003,1.848629e-002
2.744253e+003,1.840989e-002
2.746182e+003,1.835632e-002
2.748110e+003,1.836482e-002
2.750039e+003,1.841188e-002
2.751967e+003,1.851705e-002
2.753896e+003,1.878535e-002
2.755824e+003,1.904460e-002
2.757753e+003,1.933378e-002
2.759681e+003,1.969405e-002
2.761610e+003,2.011917e-002
2.763538e+003,2.057623e-002
2.765467e+003,2.106334e-002
2.767395e+003,2.152886e-002
2.769324e+003,2.199848e-002
2.771252e+003,2.258499e-002
2.773181e+003,2.327243e-002
2.775109e+003,2.401830e-002
2.777038e+003,2.488871e-002
2.778966e+003,2.584383e-002
2.780895e+003,2.685786e-002
2.782823e+003,2.811049e-002
2.784752e+003,2.941525e-002
2.786680e+003,3.077776e-002
2.788609e+003,3.233209e-002
2.790537e+003,3.395068e-002
2.792466e+003,3.560649e-002
2.794394e+003,3.733734e-002
2.796323e+003,3.914030e-002
2.798251e+003,4.106161e-002
2.800180e+003,4.308983e-002
2.802108e+003,4.525457e-002
2.804037e+003,4.753694e-002
2.805965e+003,4.994375e-002
2.807894e+003,5.260100e-002
2.809822e+003,5.557083e-002
2.811751e+003,5.900662e-002
2.813679e+003,6.290479e-002
2.815608e+003,6.736692e-002
2.817536e+003,7.252835e-002
2.819465e+003,7.862075e-002
2.821393e+003,8.583338e-002
2.823322e+003,9.446557e-002
2.825250e+003,1.050974e-001
2.827179e+003,1.186308e-001
2.829107e+003,1.360852e-001
2.831036e+003,1.592705e-001
2.832964e+003,1.911309e-001
2.834893e+003,2.362200e-001
2.836821e+003,3.005887e-001
2.838750e+003,3.935953e-001
2.840678e+003,5.303735e-001
2.842607e+003,7.294955e-001
2.844535e+003,9.975219e-001
2.846464e+003,1.263075e+000
2.848392e+003,1.305436e+000
2.850321e+003,1.073325e+000
2.852249e+003,8.028231e-001
2.854178e+003,6.060246e-001
2.856106e+003,4.708908e-001
2.858035e+003,3.751085e-001
2.859963e+003,3.066176e-001
2.861892e+003,2.585773e-001
2.863820e+003,2.265056e-001
2.865749e+003,2.073035e-001
2.867677e+003,1.982091e-001
2.869606e+003,1.958664e-001
2.871534e+003,1.972432e-001
2.873463e+003,2.015405e-001
2.875391e+003,2.102673e-001
2.877320e+003,2.247804e-001
2.879248e+003,2.449669e-001
2.881177e+003,2.699270e-001
2.883105e+003,2.986636e-001
2.885034e+003,3.306622e-001
2.886962e+003,3.652169e-001
2.888891e+003,4.014390e-001
2.890819e+003,4.383220e-001
2.892748e+003,4.751374e-001
2.894676e+003,5.116575e-001
2.896605e+003,5.485356e-001
2.898533e+003,5.874363e-001
2.900462e+003,6.309835e-001
2.902390e+003,6.833091e-001
2.904319e+003,7.507356e-001
2.906247e+003,8.419083e-001
2.908176e+003,9.666618e-001
2.910104e+003,1.132558e+000
2.912033e+003,1.330186e+000
2.913961e+003,1.497237e+000
2.915890e+003,1.523394e+000
2.917818e+003,1.383805e+000
2.919747e+003,1.178775e+000
2.921675e+003,9.872675e-001
2.923604e+003,8.293303e-001
2.925532e+003,7.022105e-001
2.927461e+003,5.981603e-001
2.929389e+003,5.105145e-001
2.931318e+003,4.354446e-001
2.933246e+003,3.708554e-001
2.935175e+003,3.154400e-001
2.937103e+003,2.681367e-001
2.939032e+003,2.279106e-001
2.940960e+003,1.943272e-001
2.942889e+003,1.672471e-001
2.944817e+003,1.464245e-001
2.946746e+003,1.316375e-001
2.948674e+003,1.224258e-001
2.950603e+003,1.173142e-001
2.952531e+003,1.141778e-001
2.954460e+003,1.109983e-001
2.956388e+003,1.068837e-001
2.958317e+003,1.016164e-001
2.960245e+003,9.521879e-002
2.962174e+003,8.765921e-002
2.964102e+003,7.943567e-002
2.966031e+003,7.111502e-002
2.967959e+003,6.310691e-002
2.969888e+003,5.583949e-002
2.971816e+003,4.946787e-002
2.973745e+003,4.392898e-002
2.975673e+003,3.934077e-002
2.977602e+003,3.553206e-002
2.979530e+003,3.243139e-002
2.981459e+003,2.986131e-002
2.983387e+003,2.772123e-002
2.985316e+003,2.594030e-002
2.987244e+003,2.444365e-002
2.989173e+003,2.306361e-002
2.991101e+003,2.196915e-002
2.993030e+003,2.104044e-002
2.994958e+003,2.015027e-002
2.996887e+003,1.942419e-002
2.998815e+003,1.885521e-002
3.000744e+003,1.839799e-002
3.002672e+003,1.790701e-002
3.004601e+003,1.731109e-002
3.006529e+003,1.683433e-002
3.008458e+003,1.648235e-002
3.010386e+003,1.615469e-002
3.012315e+003,1.583432e-002
3.014243e+003,1.554791e-002
3.016172e+003,1.525658e-002
3.018100e+003,1.495737e-002
3.020029e+003,1.470802e-002
3.021957e+003,1.457018e-002
3.023886e+003,1.439204e-002
3.025814e+003,1.418747e-002
3.027743e+003,1.395387e-002
3.029671e+003,1.382966e-002
3.031600e+003,1.366775e-002
3.033528e+003,1.340007e-002
3.035457e+003,1.307626e-002
3.037385e+003,1.276842e-002
3.039314e+003,1.248911e-002
3.041242e+003,1.225183e-002
3.043171e+003,1.198569e-002
3.045099e+003,1.173211e-002
3.047028e+003,1.154532e-002
3.048956e+003,1.136964e-002
3.050885e+003,1.115677e-002
3.052813e+003,1.103649e-002
3.054742e+003,1.094607e-002
3.056670e+003,1.084294e-002
3.058599e+003,1.075288e-002
3.060527e+003,1.070504e-002
3.062456e+003,1.056909e-002
3.064384e+003,1.044278e-002
3.066313e+003,1.034456e-002
3.068241e+003,1.036742e-002
3.070170e+003,1.039683e-002
3.072098e+003,1.032344e-002
3.074027e+003,1.025554e-002
3.075955e+003,1.019222e-002
3.077884e+003,1.015684e-002
3.079812e+003,1.019299e-002
3.081741e+003,1.017947e-002
3.083669e+003,1.006648e-002
3.085598e+003,9.937208e-003
3.087526e+003,9.884415e-003
3.089455e+003,9.679423e-003
3.091383e+003,9.509631e-003
3.093312e+003,9.355803e-003
3.095240e+003,9.166099e-003
3.097169e+003,8.954565e-003
3.099097e+003,8.935286e-003
3.101026e+003,8.834654e-003
3.102954e+003,8.649610e-003
3.104883e+003,8.605480e-003
3.106811e+003,8.529359e-003
3.108740e+003,8.411130e-003
3.110668e+003,8.476263e-003
3.112597e+003,8.598842e-003
3.114525e+003,8.622072e-003
3.116454e+003,8.551747e-003
3.118382e+003,8.533867e-003
3.120311e+003,8.608477e-003
3.122239e+003,8.780083e-003
3.124168e+003,8.872090e-003
3.126096e+003,8.790882e-003
3.128025e+003,8.727169e-003
3.129953e+003,8.900400e-003
3.131882e+003,9.096235e-003
3.133810e+003,9.052295e-003
3.135739e+003,9.090741e-003
3.137667e+003,9.312752e-003
3.139596e+003,9.426653e-003
3.141524e+003,9.619085e-003
3.143453e+003,9.702146e-003
3.145381e+003,9.704569e-003
3.147310e+003,9.736706e-003
3.149238e+003,9.863617e-003
3.151167e+003,1.000302e-002
3.153095e+003,1.004312e-002
3.155024e+003,1.015118e-002
3.156952e+003,1.038730e-002
3.158881e+003,1.054697e-002
3.160809e+003,1.069415e-002
3.162738e+003,1.084332e-002
3.164666e+003,1.097880e-002
3.166594e+003,1.112256e-002
3.168523e+003,1.125366e-002
3.170452e+003,1.142518e-002
3.172380e+003,1.153788e-002
3.174309e+003,1.165928e-002
3.176237e+003,1.197085e-002
3.178166e+003,1.213820e-002
3.180094e+003,1.218875e-002
3.182022e+003,1.230612e-002
3.183951e+003,1.252272e-002
3.185880e+003,1.258530e-002
3.187808e+003,1.276540e-002
3.189737e+003,1.301138e-002
3.191665e+003,1.313942e-002
3.193594e+003,1.325347e-002
3.195522e+003,1.340773e-002
3.197450e+003,1.353180e-002
3.199379e+003,1.359952e-002
3.201308e+003,1.376055e-002
3.203236e+003,1.393673e-002
3.205165e+003,1.406325e-002
3.207093e+003,1.426088e-002
3.209021e+003,1.431162e-002
3.210950e+003,1.440184e-002
3.212878e+003,1.459721e-002
3.214807e+003,1.472448e-002
3.216736e+003,1.488098e-002
3.218664e+003,1.510000e-002
3.220593e+003,1.521820e-002
3.222521e+003,1.531962e-002
3.224449e+003,1.548003e-002
3.226378e+003,1.557876e-002
3.228307e+003,1.571019e-002
3.230235e+003,1.592823e-002
3.232164e+003,1.607546e-002
3.234092e+003,1.617641e-002
3.236021e+003,1.634754e-002
3.237949e+003,1.648146e-002
3.239877e+003,1.668747e-002
3.241806e+003,1.693307e-002
3.243735e+003,1.719967e-002
3.245663e+003,1.731054e-002
3.247592e+003,1.727022e-002
3.249520e+003,1.728646e-002
3.251448e+003,1.742841e-002
3.253377e+003,1.769290e-002
3.255305e+003,1.787833e-002
3.257234e+003,1.802874e-002
3.259163e+003,1.819513e-002
3.261091e+003,1.843044e-002
3.263020e+003,1.853216e-002
3.264948e+003,1.868176e-002
3.266876e+003,1.882664e-002
3.268805e+003,1.893274e-002
3.270733e+003,1.909703e-002
3.272662e+003,1.933286e-002
3.274591e+003,1.947980e-002
3.276519e+003,1.964493e-002
3.278448e+003,1.970046e-002
3.280376e+003,1.985019e-002
3.282304e+003,2.005574e-002
3.284233e+003,2.008545e-002
3.286161e+003,2.015783e-002
3.288090e+003,2.035038e-002
3.290019e+003,2.043293e-002
3.291947e+003,2.056948e-002
3.293875e+003,2.069935e-002
3.295804e+003,2.091273e-002
3.297732e+003,2.104912e-002
3.299661e+003,2.103039e-002
3.301589e+003,2.098389e-002
3.303518e+003,2.104379e-002
3.305447e+003,2.118275e-002
3.307375e+003,2.128319e-002
3.309303e+003,2.140757e-002
3.311232e+003,2.157175e-002
3.313160e+003,2.168190e-002
3.315089e+003,2.178822e-002
3.317018e+003,2.189330e-002
3.318946e+003,2.190094e-002
3.320875e+003,2.189286e-002
3.322803e+003,2.210224e-002
3.324731e+003,2.230101e-002
3.326660e+003,2.247240e-002
3.328588e+003,2.259868e-002
3.330517e+003,2.272089e-002
3.332446e+003,2.285084e-002
3.334374e+003,2.290533e-002
3.336302e+003,2.298894e-002
3.338231e+003,2.299524e-002
3.340159e+003,2.301346e-002
3.342088e+003,2.312499e-002
3.344016e+003,2.322365e-002
3.345945e+003,2.331478e-002
3.347874e+003,2.333406e-002
3.349802e+003,2.330853e-002
3.351730e+003,2.333349e-002
3.353659e+003,2.345793e-002
3.355587e+003,2.358514e-002
3.357516e+003,2.367703e-002
3.359444e+003,2.375059e-002
3.361373e+003,2.379422e-002
3.363302e+003,2.373833e-002
3.365230e+003,2.375720e-002
3.367158e+003,2.381002e-002
3.369087e+003,2.375445e-002
3.371015e+003,2.374230e-002
3.372944e+003,2.379147e-002
3.374872e+003,2.382113e-002
3.376801e+003,2.389474e-002
3.378729e+003,2.389568e-002
3.380658e+003,2.373668e-002
3.382586e+003,2.365904e-002
3.384515e+003,2.379972e-002
3.386443e+003,2.374828e-002
3.388372e+003,2.361368e-002
3.390300e+003,2.354357e-002
3.392229e+003,2.353482e-002
3.394157e+003,2.343150e-002
3.396086e+003,2.341199e-002
3.398014e+003,2.331204e-002
3.399943e+003,2.327840e-002
3.401871e+003,2.321263e-002
3.403800e+003,2.308477e-002
3.405728e+003,2.299177e-002
3.407657e+003,2.290676e-002
3.409585e+003,2.271072e-002
3.411514e+003,2.255823e-002
3.413442e+003,2.246664e-002
3.415371e+003,2.245303e-002
3.417299e+003,2.239184e-002
3.419228e+003,2.239246e-002
3.421156e+003,2.228689e-002
3.423085e+003,2.201760e-002
3.425013e+003,2.182479e-002
3.426942e+003,2.174785e-002
3.428870e+003,2.160947e-002
3.430799e+003,2.151679e-002
3.432727e+003,2.131228e-002
3.434656e+003,2.117470e-002
3.436584e+003,2.097493e-002
3.438513e+003,2.089882e-002
3.440441e+003,2.088880e-002
3.442370e+003,2.075848e-002
3.444298e+003,2.064966e-002
3.446227e+003,2.060266e-002
3.448155e+003,2.023714e-002
3.450084e+003,1.990914e-002
3.452012e+003,1.972889e-002
3.453941e+003,1.951092e-002
3.455869e+003,1.931231e-002
3.457798e+003,1.921023e-002
3.459726e+003,1.905470e-002
3.461655e+003,1.894012e-002
3.463583e+003,1.865894e-002
3.465512e+003,1.848521e-002
3.467440e+003,1.822728e-002
3.469369e+003,1.792556e-002
3.471297e+003,1.786113e-002
3.473226e+003,1.778402e-002
3.475154e+003,1.758270e-002
3.477083e+003,1.734569e-002
3.479011e+003,1.726956e-002
3.480940e+003,1.720997e-002
3.482868e+003,1.687601e-002
3.484797e+003,1.652050e-002
3.486725e+003,1.630914e-002
3.488654e+003,1.602203e-002
3.490582e+003,1.568536e-002
3.492511e+003,1.559155e-002
3.494439e+003,1.555479e-002
3.496368e+003,1.530828e-002
3.498296e+003,1.496310e-002
3.500225e+003,1.509074e-002
3.502153e+003,1.534922e-002
3.504082e+003,1.486179e-002
3.506010e+003,1.432010e-002
3.507939e+003,1.437704e-002
3.509867e+003,1.408983e-002
3.511796e+003,1.362034e-002
3.513724e+003,1.328391e-002
3.515653e+003,1.304417e-002
3.517581e+003,1.279242e-002
3.519510e+003,1.259479e-002
3.521438e+003,1.270918e-002
3.523367e+003,1.265133e-002
3.525295e+003,1.235403e-002
3.527224e+003,1.225682e-002
3.529152e+003,1.175201e-002
3.531081e+003,1.123143e-002
3.533009e+003,1.091717e-002
3.534938e+003,1.091915e-002
3.536866e+003,1.048966e-002
3.538795e+003,1.005899e-002
3.540723e+003,9.998202e-003
3.542652e+003,1.018770e-002
3.544580e+003,1.046980e-002
3.546509e+003,9.911148e-003
3.548437e+003,9.142371e-003
3.550366e+003,9.156227e-003
3.552294e+003,8.967970e-003
3.554223e+003,8.392919e-003
3.556151e+003,8.075250e-003
3.558080e+003,7.951790e-003
3.560008e+003,7.769048e-003
3.561937e+003,7.659934e-003
3.563865e+003,8.241350e-003
3.565794e+003,8.939531e-003
3.567722e+003,7.515794e-003
3.569651e+003,6.486131e-003
3.571579e+003,6.466864e-003
3.573508e+003,6.405815e-003
3.575436e+003,5.977325e-003
3.577365e+003,5.707640e-003
3.579293e+003,5.550081e-003
3.581222e+003,5.274748e-003
3.583150e+003,5.340206e-003
3.585079e+003,6.176807e-003
3.587007e+003,6.388865e-003
3.588936e+003,4.887322e-003
3.590864e+003,5.038196e-003
3.592793e+003,5.732104e-003
3.594721e+003,5.699998e-003
3.596650e+003,5.627172e-003
3.598578e+003,5.943555e-003
3.600507e+003,5.795740e-003
3.602435e+003,5.270131e-003
3.604364e+003,5.475746e-003
3.606292e+003,6.016774e-003
3.608221e+003,5.419662e-003
3.610149e+003,4.799297e-003
3.612078e+003,5.080361e-003
3.614006e+003,4.338572e-003
3.615935e+003,4.153714e-003
3.617863e+003,4.218053e-003
3.619792e+003,2.736032e-003
3.621720e+003,2.093533e-003
3.623649e+003,2.533585e-003
3.625577e+003,3.493533e-003
3.627506e+003,4.695095e-003
3.629434e+003,2.624344e-003
3.631363e+003,1.687676e-003
3.633291e+003,1.900874e-003
3.635220e+003,1.669265e-003
3.637148e+003,1.781303e-003
3.639077e+003,1.685861e-003
3.641005e+003,1.645938e-003
3.642934e+003,1.713114e-003
3.644862e+003,2.634734e-003
3.646791e+003,3.991904e-003
3.648719e+003,3.221026e-003
3.650648e+003,6.963480e-004
3.652576e+003,4.205797e-004
3.654505e+003,1.753744e-003
3.656433e+003,1.083316e-003
3.658362e+003,1.224391e-004
3.660290e+003,1.408812e-004
3.662219e+003,-9.297580e-005
3.664147e+003,-2.459530e-004
3.666076e+003,5.349219e-004
3.668004e+003,1.969775e-003
3.669933e+003,1.133101e-003
3.671861e+003,2.829172e-004
3.673790e+003,1.848113e-003
3.675718e+003,3.020652e-004
3.677647e+003,-4.565008e-004
3.679575e+003,-3.768615e-004
3.681504e+003,-8.377302e-004
3.683432e+003,-5.726051e-004
3.685361e+003,3.005881e-004
3.687289e+003,1.230881e-003
3.689218e+003,4.688073e-004
3.691146e+003,-7.966347e-004
3.693075e+003,-9.248257e-004
3.695003e+003,-6.780215e-004
3.696932e+003,-8.800551e-004
3.698860e+003,-3.290437e-004
3.700789e+003,1.468658e-004
3.702717e+003,-6.936137e-004
3.704646e+003,-6.024297e-004
3.706574e+003,-2.329610e-005
3.708503e+003,6.377976e-004
3.710431e+003,1.228228e-003
3.712360e+003,-3.562681e-004
3.714288e+003,-1.205282e-003
3.716217e+003,-6.716624e-004
3.718145e+003,-2.591871e-005
3.720074e+003,5.115010e-005
3.722002e+003,1.415424e-004
3.723931e+003,3.759842e-004
3.725859e+003,1.375824e-004
3.727788e+003,-4.677922e-004
3.729716e+003,5.015600e-004
3.731645e+003,1.394818e-003
3.733573e+003,1.943065e-003
3.735502e+003,1.820788e-003
3.737430e+003,1.344569e-004
3.739359e+003,1.306795e-004
3.741287e+003,1.021205e-003
3.743216e+003,2.230167e-003
3.745144e+003,8.020569e-004
3.747073e+003,1.376059e-003
3.749001e+003,2.664953e-003
3.750930e+003,1.575675e-003
3.752858e+003,-4.241765e-004
3.754787e+003,8.316711e-006
3.756715e+003,8.831006e-004
3.758644e+003,8.375067e-004
3.760572e+003,-2.192836e-004
3.762501e+003,-1.291484e-004
3.764429e+003,3.713872e-004
3.766358e+003,-7.232651e-006
3.768286e+003,5.060583e-004
3.770215e+003,-8.674338e-006
3.772143e+003,-6.691590e-004
3.774072e+003,-4.388783e-004
3.776000e+003,5.001388e-005
3.777929e+003,4.268214e-004
3.779857e+003,-1.561195e-004
3.781786e+003,-1.637340e-004
3.783714e+003,3.474616e-004
3.785643e+003,-2.375524e-004
3.787571e+003,-3.339294e-004
3.789500e+003,-4.037097e-004
3.791428e+003,-6.280914e-004
3.793357e+003,5.327165e-006
3.795285e+003,8.608438e-004
3.797214e+003,4.428290e-004
3.799142e+003,1.385156e-003
3.801071e+003,1.238592e-003
3.802999e+003,-5.479697e-004
3.804927e+003,7.907078e-004
3.806856e+003,6.101634e-004
3.808785e+003,-7.408913e-004
3.810713e+003,-4.678052e-004
3.812642e+003,2.704728e-004
3.814570e+003,1.380323e-003
3.816499e+003,6.323252e-004
3.818427e+003,1.657272e-003
3.820355e+003,2.468292e-003
3.822284e+003,-2.927147e-004
3.824213e+003,3.588852e-004
3.826141e+003,4.873723e-004
3.828070e+003,-3.166962e-004
3.829998e+003,5.801655e-004
3.831927e+003,8.541122e-004
3.833855e+003,1.084084e-003
3.835783e+003,1.907732e-003
3.837712e+003,1.757806e-003
3.839641e+003,9.220093e-004
3.841569e+003,5.257912e-004
3.843498e+003,2.296325e-004
3.845426e+003,-2.375189e-004
3.847354e+003,4.520528e-004
3.849283e+003,1.894837e-003
3.851211e+003,3.587347e-003
3.853140e+003,2.289131e-003
3.855069e+003,-2.124105e-004
3.856997e+003,4.839525e-005
3.858926e+003,3.593769e-004
3.860854e+003,1.185367e-003
3.862782e+003,1.626056e-003
3.864711e+003,9.852014e-004
3.866640e+003,8.177068e-004
3.868568e+003,2.155414e-003
3.870497e+003,9.716041e-004
3.872425e+003,1.359748e-003
3.874354e+003,6.617941e-004
3.876282e+003,2.301671e-005
3.878210e+003,1.541033e-003
3.880139e+003,1.624610e-003
3.882068e+003,9.292979e-004
3.883996e+003,2.067171e-003
3.885925e+003,6.893296e-004
3.887853e+003,1.985636e-004
3.889781e+003,1.705714e-003
3.891710e+003,1.235578e-003
3.893638e+003,2.489164e-004
3.895567e+003,8.743294e-004
3.897496e+003,1.928354e-003
3.899424e+003,2.099808e-003
3.901353e+003,2.110150e-003
3.903281e+003,1.978016e-003
3.905209e+003,4.016329e-004
3.907138e+003,-2.716482e-005
3.909066e+003,3.490616e-004
3.910995e+003,5.366039e-004
3.912924e+003,6.030537e-004
3.914852e+003,1.355648e-003
3.916781e+003,1.381274e-003
3.918709e+003,6.307755e-004
3.920637e+003,3.254358e-004
3.922566e+003,9.115133e-004
3.924494e+003,8.364953e-004
3.926423e+003,1.319107e-004
3.928352e+003,7.097162e-004
3.930280e+003,1.012849e-003
3.932208e+003,5.820170e-004
3.934137e+003,2.062321e-005
3.936065e+003,-6.152689e-005
3.937994e+003,-3.507361e-005
3.939922e+003,4.036445e-004
3.941851e+003,9.104349e-004
3.943780e+003,1.978967e-004
3.945708e+003,3.041457e-004
3.947636e+003,6.500948e-004
3.949565e+003,9.599514e-005
3.951493e+003,-2.284609e-004
3.953422e+003,-4.114583e-006
3.955351e+003,2.142433e-004
3.957279e+003,1.007318e-004
3.959208e+003,1.695156e-004
3.961136e+003,2.120268e-004
3.963064e+003,-1.470447e-004
3.964993e+003,-2.190154e-004
3.966921e+003,-7.129647e-005
3.968850e+003,4.179217e-005
3.970779e+003,2.207402e-004
3.972707e+003,3.056750e-004
3.974635e+003,7.821247e-005
3.976564e+003,-1.753494e-004
3.978492e+003,-2.076682e-004
3.980421e+003,-5.838647e-005
3.982349e+003,-3.465824e-005
3.984278e+003,-1.339912e-004
3.986207e+003,-1.175106e-004
3.988135e+003,-1.062080e-005
3.990063e+003,-5.798414e-005
3.991992e+003,-1.720134e-004
3.993920e+003,-1.991205e-004
3.995849e+003,-2.618097e-004
3.997777e+003,-2.425481e-004
3.999706e+003,-2.246108e-004
4.001635e+003,0.000000e+000
