3.991992e+002,0.000000e+000
4.011277e+002,0.000000e+000
4.030562e+002,0.000000e+000
4.049846e+002,0.000000e+000
4.069131e+002,0.000000e+000
4.088416e+002,0.000000e+000
4.107701e+002,0.000000e+000
4.126986e+002,0.000000e+000
4.146271e+002,0.000000e+000
4.165556e+002,0.000000e+000
4.184841e+002,0.000000e+000
4.204126e+002,0.000000e+000
4.223411e+002,0.000000e+000
4.242697e+002,0.000000e+000
4.261982e+002,0.000000e+000
4.281266e+002,0.000000e+000
4.300551e+002,0.000000e+000
4.319836e+002,0.000000e+000
4.339121e+002,0.000000e+000
4.358406e+002,0.000000e+000
4.377691e+002,0.000000e+000
4.396976e+002,0.000000e+000
4.416261e+002,0.000000e+000
4.435546e+002,0.000000e+000
4.454831e+002,0.000000e+000
4.474116e+002,0.000000e+000
4.493401e+002,0.000000e+000
4.512686e+002,0.000000e+000
4.531971e+002,0.000000e+000
4.551256e+002,0.000000e+000
4.570541e+002,0.000000e+000
4.589826e+002,0.000000e+000
4.609111e+002,0.000000e+000
4.628396e+002,0.000000e+000
4.647681e+002,0.000000e+000
4.666966e+002,0.000000e+000
4.686251e+002,0.000000e+000
4.705536e+002,0.000000e+000
4.724821e+002,0.000000e+000
4.744106e+002,0.000000e+000
4.763391e+002,0.000000e+000
4.782676e+002,0.000000e+000
4.801961e+002,0.000000e+000
4.821246e+002,0.000000e+000
4.840531e+002,0.000000e+000
4.859816e+002,0.000000e+000
4.879101e+002,0.000000e+000
4.898386e+002,0.000000e+000
4.917671e+002,0.000000e+000
4.936956e+002,0.000000e+000
4.956241e+002,0.000000e+000
4.975526e+002,0.000000e+000
4.994811e+002,0.000000e+000
5.014096e+002,0.000000e+000
5.033381e+002,0.000000e+000
5.052666e+002,0.000000e+000
5.071951e+002,0.000000e+000
5.091236e+002,0.000000e+000
5.110521e+002,0.000000e+000
5.129806e+002,0.000000e+000
5.149091e+002,0.000000e+000
5.168376e+002,0.000000e+000
5.187661e+002,0.000000e+000
5.206946e+002,0.000000e+000
5.226230e+002,0.000000e+000
5.245516e+002,-3.662172e-004
5.264800e+002,-1.616790e-004
5.284086e+002,-1.380922e-004
5.303370e+002,-3.185073e-004
5.322656e+002,-2.586956e-004
5.341940e+002,-2.509238e-004
5.361226e+002,-2.148381e-004
5.380510e+002,-1.776341e-004
5.399796e+002,-1.371496e-004
5.419081e+002,-1.471805e-004
5.438365e+002,-2.147323e-004
5.457650e+002,-1.808826e-004
5.476935e+002,-9.442039e-005
5.496221e+002,-1.693396e-004
5.515505e+002,-6.288756e-007
5.534790e+002,1.229255e-004
5.554075e+002,5.698134e-005
5.573361e+002,-6.876548e-005
5.592645e+002,-1.222721e-004
5.611931e+002,-1.192937e-004
5.631215e+002,2.341089e-005
5.650500e+002,7.916696e-005
5.669785e+002,4.394818e-005
5.689070e+002,-1.418288e-005
5.708355e+002,-5.796191e-005
5.727640e+002,-1.076398e-004
5.746925e+002,-1.350618e-004
5.766210e+002,-1.644401e-004
5.785495e+002,-1.529983e-004
5.804780e+002,-1.714833e-004
5.824065e+002,-1.223714e-004
5.843350e+002,-1.734707e-004
5.862635e+002,-1.475270e-004
5.881920e+002,-1.826920e-004
5.901205e+002,-1.639386e-004
5.920490e+002,-2.161716e-004
5.939775e+002,-1.687715e-004
5.959060e+002,-1.851660e-004
5.978345e+002,-6.163889e-005
5.997630e+002,-1.047892e-004
6.016915e+002,-1.587523e-004
6.036200e+002,-1.166400e-004
6.055485e+002,-5.657482e-005
6.074770e+002,-2.930174e-005
6.094055e+002,1.751818e-006
6.113340e+002,-2.254662e-005
6.132625e+002,-2.681068e-005
6.151910e+002,-6.997329e-005
6.171195e+002,-1.558051e-004
6.190480e+002,-2.419301e-004
6.209765e+002,-1.700402e-004
6.229050e+002,-1.188950e-005
6.248335e+002,1.046220e-004
6.267620e+002,4.972145e-005
6.286905e+002,7.170415e-005
6.306190e+002,1.314459e-004
6.325475e+002,2.410521e-004
6.344760e+002,2.590201e-004
6.364045e+002,2.063175e-004
6.383330e+002,1.949864e-004
6.402615e+002,4.354222e-004
6.421899e+002,5.145996e-004
6.441185e+002,4.176648e-004
6.460470e+002,4.213002e-004
6.479755e+002,5.708664e-004
6.499039e+002,5.611632e-004
6.518325e+002,5.536609e-004
6.537610e+002,5.067146e-004
6.556895e+002,5.021720e-004
6.576179e+002,5.557748e-004
6.595464e+002,6.952540e-004
6.614750e+002,6.996236e-004
6.634034e+002,6.592419e-004
6.653319e+002,6.383758e-004
6.672604e+002,6.540869e-004
6.691890e+002,5.762733e-004
6.711174e+002,7.232426e-004
6.730460e+002,8.146169e-004
6.749745e+002,1.001209e-003
6.769030e+002,1.073618e-003
6.788314e+002,1.227917e-003
6.807599e+002,1.338807e-003
6.826885e+002,1.476950e-003
6.846169e+002,1.645227e-003
6.865454e+002,1.843753e-003
6.884739e+002,2.016695e-003
6.904025e+002,2.368413e-003
6.923309e+002,2.739976e-003
6.942594e+002,3.098062e-003
6.961879e+002,3.507417e-003
6.981165e+002,4.256310e-003
7.000449e+002,5.098602e-003
7.019734e+002,6.369015e-003
7.039019e+002,7.981443e-003
7.058304e+002,1.015367e-002
7.077589e+002,1.315130e-002
7.096874e+002,1.775430e-002
7.116159e+002,2.528197e-002
7.135444e+002,4.008836e-002
7.154729e+002,6.603272e-002
7.174014e+002,9.834270e-002
7.193299e+002,1.112652e-001
7.212584e+002,8.533439e-002
7.231869e+002,5.835365e-002
7.251154e+002,4.887757e-002
7.270439e+002,5.361385e-002
7.289724e+002,6.739647e-002
7.309009e+002,6.163567e-002
7.328294e+002,3.537074e-002
7.347579e+002,1.878500e-002
7.366864e+002,1.279614e-002
7.386149e+002,1.019001e-002
7.405434e+002,8.583422e-003
7.424719e+002,7.544233e-003
7.444004e+002,6.751481e-003
7.463289e+002,6.168244e-003
7.482574e+002,5.637995e-003
7.501859e+002,5.259568e-003
7.521144e+002,4.911395e-003
7.540428e+002,4.639883e-003
7.559714e+002,4.400577e-003
7.578999e+002,4.283042e-003
7.598284e+002,4.207518e-003
7.617568e+002,4.124393e-003
7.636854e+002,4.050156e-003
7.656139e+002,3.977675e-003
7.675424e+002,3.836489e-003
7.694709e+002,3.739588e-003
7.713994e+002,3.680178e-003
7.733279e+002,3.612955e-003
7.752563e+002,3.540361e-003
7.771849e+002,3.448793e-003
7.791134e+002,3.310854e-003
7.810419e+002,3.220227e-003
7.829703e+002,3.094839e-003
7.848989e+002,2.898287e-003
7.868274e+002,2.841000e-003
7.887559e+002,2.836328e-003
7.906843e+002,2.799632e-003
7.926129e+002,2.762526e-003
7.945414e+002,2.798466e-003
7.964698e+002,2.771863e-003
7.983983e+002,2.708906e-003
8.003268e+002,2.666420e-003
8.022554e+002,2.638845e-003
8.041838e+002,2.617626e-003
8.061123e+002,2.568807e-003
8.080408e+002,2.485376e-003
8.099694e+002,2.452275e-003
8.118978e+002,2.379632e-003
8.138263e+002,2.274258e-003
8.157548e+002,2.182101e-003
8.176833e+002,2.162820e-003
8.196118e+002,2.085835e-003
8.215403e+002,2.052156e-003
8.234689e+002,2.098676e-003
8.253973e+002,2.088845e-003
8.273258e+002,2.008972e-003
8.292543e+002,1.984026e-003
8.311829e+002,1.921403e-003
8.331113e+002,1.886273e-003
8.350398e+002,1.886218e-003
8.369683e+002,1.920984e-003
8.388969e+002,1.942717e-003
8.408253e+002,2.023259e-003
8.427538e+002,2.033564e-003
8.446823e+002,2.002738e-003
8.466108e+002,1.946272e-003
8.485393e+002,1.996150e-003
8.504678e+002,2.022458e-003
8.523963e+002,2.029358e-003
8.543248e+002,2.044814e-003
8.562533e+002,2.073001e-003
8.581818e+002,2.082051e-003
8.601103e+002,2.084986e-003
8.620388e+002,2.058360e-003
8.639673e+002,2.088347e-003
8.658958e+002,2.075751e-003
8.678243e+002,2.091605e-003
8.697528e+002,2.140827e-003
8.716813e+002,2.257237e-003
8.736098e+002,2.248654e-003
8.755383e+002,2.287846e-003
8.774668e+002,2.381768e-003
8.793953e+002,2.551407e-003
8.813238e+002,2.756285e-003
8.832523e+002,2.950196e-003
8.851808e+002,3.152022e-003
8.871093e+002,3.369235e-003
8.890378e+002,3.382115e-003
8.909663e+002,3.307771e-003
8.928948e+002,3.172445e-003
8.948232e+002,3.012740e-003
8.967518e+002,2.883044e-003
8.986803e+002,2.858516e-003
9.006088e+002,2.808236e-003
9.025372e+002,2.845261e-003
9.044658e+002,2.964827e-003
9.063943e+002,3.161422e-003
9.083228e+002,3.260643e-003
9.102512e+002,3.150433e-003
9.121797e+002,2.923164e-003
9.141083e+002,2.785039e-003
9.160367e+002,2.654208e-003
9.179653e+002,2.636481e-003
9.198937e+002,2.582442e-003
9.218223e+002,2.587624e-003
9.237507e+002,2.594597e-003
9.256793e+002,2.635319e-003
9.276077e+002,2.623987e-003
9.295363e+002,2.580255e-003
9.314647e+002,2.572884e-003
9.333932e+002,2.648095e-003
9.353217e+002,2.635969e-003
9.372502e+002,2.582407e-003
9.391787e+002,2.572184e-003
9.411072e+002,2.585094e-003
9.430358e+002,2.593743e-003
9.449642e+002,2.642794e-003
9.468928e+002,2.582364e-003
9.488212e+002,2.597333e-003
9.507498e+002,2.606795e-003
9.526782e+002,2.596650e-003
9.546068e+002,2.606887e-003
9.565352e+002,2.707583e-003
9.584637e+002,2.745933e-003
9.603922e+002,2.878547e-003
9.623207e+002,2.969241e-003
9.642492e+002,3.030459e-003
9.661777e+002,3.031452e-003
9.681062e+002,3.042704e-003
9.700347e+002,2.960154e-003
9.719632e+002,2.908577e-003
9.738917e+002,2.853027e-003
9.758202e+002,2.800074e-003
9.777487e+002,2.721479e-003
9.796772e+002,2.815210e-003
9.816057e+002,2.853621e-003
9.835342e+002,2.916610e-003
9.854627e+002,2.959722e-003
9.873912e+002,3.049048e-003
9.893197e+002,3.092911e-003
9.912482e+002,3.167785e-003
9.931767e+002,3.165993e-003
9.951052e+002,3.177300e-003
9.970337e+002,3.216611e-003
9.989622e+002,3.272398e-003
1.000891e+003,3.276616e-003
1.002819e+003,3.350028e-003
1.004748e+003,3.413434e-003
1.006676e+003,3.508193e-003
1.008605e+003,3.564430e-003
1.010533e+003,3.628969e-003
1.012462e+003,3.669676e-003
1.014390e+003,3.766876e-003
1.016319e+003,3.808867e-003
1.018247e+003,3.900358e-003
1.020176e+003,3.904754e-003
1.022104e+003,3.956872e-003
1.024033e+003,4.014917e-003
1.025961e+003,4.047237e-003
1.027890e+003,4.079316e-003
1.029818e+003,4.164633e-003
1.031747e+003,4.180682e-003
1.033675e+003,4.265107e-003
1.035604e+003,4.296105e-003
1.037532e+003,4.366423e-003
1.039461e+003,4.379440e-003
1.041389e+003,4.462007e-003
1.043318e+003,4.511413e-003
1.045246e+003,4.585585e-003
1.047175e+003,4.686329e-003
1.049103e+003,4.881928e-003
1.051032e+003,4.930286e-003
1.052960e+003,4.897947e-003
1.054889e+003,4.914879e-003
1.056817e+003,5.029499e-003
1.058746e+003,5.126351e-003
1.060674e+003,5.286215e-003
1.062603e+003,5.380710e-003
1.064531e+003,5.444021e-003
1.066460e+003,5.436947e-003
1.068388e+003,5.473758e-003
1.070317e+003,5.542752e-003
1.072245e+003,5.714052e-003
1.074174e+003,5.841609e-003
1.076102e+003,5.981428e-003
1.078031e+003,6.070825e-003
1.079959e+003,6.195259e-003
1.081888e+003,6.192486e-003
1.083816e+003,6.223668e-003
1.085745e+003,6.117099e-003
1.087673e+003,6.023205e-003
1.089602e+003,5.938252e-003
1.091530e+003,5.848471e-003
1.093459e+003,5.666933e-003
1.095387e+003,5.557152e-003
1.097316e+003,5.414886e-003
1.099244e+003,5.357255e-003
1.101173e+003,5.227135e-003
1.103101e+003,5.133719e-003
1.105030e+003,5.034168e-003
1.106958e+003,4.978739e-003
1.108887e+003,4.903094e-003
1.110815e+003,4.878619e-003
1.112744e+003,4.829955e-003
1.114672e+003,4.801151e-003
1.116601e+003,4.683291e-003
1.118529e+003,4.667417e-003
1.120458e+003,4.661838e-003
1.122386e+003,4.691816e-003
1.124315e+003,4.675015e-003
1.126243e+003,4.740285e-003
1.128172e+003,4.780836e-003
1.130100e+003,4.836785e-003
1.132029e+003,4.745444e-003
1.133957e+003,4.700090e-003
1.135885e+003,4.685374e-003
1.137814e+003,4.737564e-003
1.139743e+003,4.735823e-003
1.141671e+003,4.746658e-003
1.143600e+003,4.750830e-003
1.145528e+003,4.874163e-003
1.147457e+003,4.947952e-003
1.149385e+003,5.096166e-003
1.151314e+003,5.265303e-003
1.153242e+003,5.486764e-003
1.155171e+003,5.657210e-003
1.157099e+003,5.839366e-003
1.159028e+003,5.925599e-003
1.160956e+003,6.042705e-003
1.162885e+003,6.020712e-003
1.164813e+003,5.985558e-003
1.166742e+003,5.869419e-003
1.168670e+003,5.717069e-003
1.170599e+003,5.504794e-003
1.172527e+003,5.417955e-003
1.174456e+003,5.297568e-003
1.176384e+003,5.268204e-003
1.178313e+003,5.133453e-003
1.180241e+003,4.982775e-003
1.182170e+003,4.847534e-003
1.184098e+003,4.834910e-003
1.186027e+003,4.838647e-003
1.187955e+003,4.899307e-003
1.189884e+003,4.908684e-003
1.191812e+003,4.994677e-003
1.193740e+003,5.047749e-003
1.195669e+003,5.156328e-003
1.197598e+003,5.199304e-003
1.199526e+003,5.287516e-003
1.201455e+003,5.374230e-003
1.203383e+003,5.540260e-003
1.205312e+003,5.648592e-003
1.207240e+003,5.838091e-003
1.209168e+003,6.009202e-003
1.211097e+003,6.239058e-003
1.213026e+003,6.403375e-003
1.214954e+003,6.605908e-003
1.216883e+003,6.776767e-003
1.218811e+003,7.009638e-003
1.220740e+003,7.145381e-003
1.222668e+003,7.308850e-003
1.224596e+003,7.400443e-003
1.226525e+003,7.584638e-003
1.228453e+003,7.737817e-003
1.230382e+003,7.911753e-003
1.232311e+003,7.985452e-003
1.234239e+003,8.085679e-003
1.236167e+003,8.114832e-003
1.238096e+003,8.174563e-003
1.240025e+003,8.136425e-003
1.241953e+003,8.124544e-003
1.243882e+003,8.002440e-003
1.245810e+003,7.909703e-003
1.247739e+003,7.775407e-003
1.249667e+003,7.722134e-003
1.251595e+003,7.594841e-003
1.253524e+003,7.550476e-003
1.255453e+003,7.506632e-003
1.257381e+003,7.535978e-003
1.259310e+003,7.490287e-003
1.261238e+003,7.470370e-003
1.263167e+003,7.361197e-003
1.265095e+003,7.338241e-003
1.267023e+003,7.253105e-003
1.268952e+003,7.268504e-003
1.270880e+003,7.266586e-003
1.272809e+003,7.319105e-003
1.274738e+003,7.358679e-003
1.276666e+003,7.470128e-003
1.278594e+003,7.515334e-003
1.280523e+003,7.684548e-003
1.282451e+003,7.780600e-003
1.284380e+003,7.991630e-003
1.286308e+003,8.203865e-003
1.288237e+003,8.515297e-003
1.290166e+003,8.734332e-003
1.292094e+003,9.101281e-003
1.294022e+003,9.514117e-003
1.295951e+003,9.985129e-003
1.297879e+003,1.026989e-002
1.299808e+003,1.053945e-002
1.301736e+003,1.062531e-002
1.303665e+003,1.068695e-002
1.305594e+003,1.059440e-002
1.307522e+003,1.051394e-002
1.309450e+003,1.025738e-002
1.311379e+003,9.980500e-003
1.313307e+003,9.534693e-003
1.315236e+003,9.153049e-003
1.317164e+003,8.717150e-003
1.319093e+003,8.323948e-003
1.321021e+003,7.869394e-003
1.322950e+003,7.596391e-003
1.324878e+003,7.337692e-003
1.326807e+003,7.294896e-003
1.328735e+003,7.239833e-003
1.330664e+003,7.381538e-003
1.332592e+003,7.636876e-003
1.334521e+003,8.176322e-003
1.336449e+003,8.846156e-003
1.338378e+003,9.819021e-003
1.340306e+003,1.048931e-002
1.342235e+003,1.087211e-002
1.344163e+003,1.124040e-002
1.346092e+003,1.189395e-002
1.348021e+003,1.256725e-002
1.349949e+003,1.330266e-002
1.351877e+003,1.363008e-002
1.353806e+003,1.375624e-002
1.355734e+003,1.355297e-002
1.357663e+003,1.357604e-002
1.359591e+003,1.396297e-002
1.361520e+003,1.495780e-002
1.363448e+003,1.612931e-002
1.365377e+003,1.729148e-002
1.367305e+003,1.823850e-002
1.369234e+003,1.870737e-002
1.371162e+003,1.850182e-002
1.373091e+003,1.896013e-002
1.375019e+003,2.084362e-002
1.376948e+003,2.230191e-002
1.378876e+003,2.058572e-002
1.380805e+003,1.610125e-002
1.382733e+003,1.177017e-002
1.384662e+003,9.385335e-003
1.386590e+003,8.046890e-003
1.388519e+003,7.182126e-003
1.390447e+003,6.594565e-003
1.392376e+003,6.560199e-003
1.394304e+003,6.437227e-003
1.396233e+003,6.501449e-003
1.398161e+003,6.337710e-003
1.400090e+003,6.335268e-003
1.402018e+003,6.139471e-003
1.403947e+003,6.471173e-003
1.405875e+003,6.484393e-003
1.407804e+003,6.709878e-003
1.409732e+003,6.790866e-003
1.411661e+003,7.125128e-003
1.413589e+003,7.107127e-003
1.415518e+003,7.556230e-003
1.417446e+003,7.847168e-003
1.419375e+003,8.523148e-003
1.421303e+003,8.810547e-003
1.423232e+003,1.001921e-002
1.425160e+003,1.136251e-002
1.427089e+003,1.332126e-002
1.429017e+003,1.594528e-002
1.430946e+003,1.983261e-002
1.432874e+003,2.292279e-002
1.434803e+003,2.605946e-002
1.436731e+003,2.924833e-002
1.438660e+003,3.221574e-002
1.440588e+003,3.399457e-002
1.442517e+003,3.654429e-002
1.444445e+003,3.860082e-002
1.446374e+003,4.164111e-002
1.448302e+003,4.573391e-002
1.450231e+003,5.192151e-002
1.452159e+003,6.098099e-002
1.454088e+003,7.260624e-002
1.456016e+003,8.397321e-002
1.457945e+003,1.078475e-001
1.459873e+003,1.482973e-001
1.461802e+003,1.935420e-001
1.463730e+003,2.007194e-001
1.465659e+003,1.623720e-001
1.467587e+003,1.493491e-001
1.469516e+003,1.485545e-001
1.471444e+003,1.663993e-001
1.473373e+003,1.404412e-001
1.475301e+003,7.644865e-002
1.477230e+003,3.543876e-002
1.479158e+003,2.326773e-002
1.481087e+003,1.725913e-002
1.483015e+003,1.446320e-002
1.484944e+003,1.230190e-002
1.486872e+003,1.176180e-002
1.488801e+003,1.024632e-002
1.490729e+003,9.677731e-003
1.492658e+003,8.391357e-003
1.494586e+003,8.502556e-003
1.496515e+003,7.696050e-003
1.498443e+003,7.707590e-003
1.500372e+003,6.925205e-003
1.502300e+003,6.911181e-003
1.504229e+003,6.574159e-003
1.506157e+003,7.592525e-003
1.508086e+003,6.352749e-003
1.510014e+003,6.343581e-003
1.511943e+003,5.743736e-003
1.513871e+003,5.936554e-003
1.515800e+003,5.882326e-003
1.517728e+003,6.219276e-003
1.519657e+003,5.950375e-003
1.521585e+003,6.271906e-003
1.523514e+003,5.414341e-003
1.525442e+003,5.656206e-003
1.527371e+003,5.178472e-003
1.529299e+003,5.158632e-003
1.531228e+003,5.077370e-003
1.533156e+003,5.490984e-003
1.535085e+003,5.057979e-003
1.537013e+003,5.356269e-003
1.538942e+003,5.513703e-003
1.540870e+003,5.716856e-003
1.542799e+003,5.037370e-003
1.544727e+003,4.989451e-003
1.546656e+003,4.360886e-003
1.548584e+003,4.574519e-003
1.550513e+003,4.555651e-003
1.552441e+003,4.676017e-003
1.554370e+003,4.578787e-003
1.556298e+003,4.847464e-003
1.558227e+003,4.836729e-003
1.560155e+003,4.167171e-003
1.562084e+003,3.787932e-003
1.564012e+003,3.888254e-003
1.565941e+003,3.679695e-003
1.567869e+003,3.937037e-003
1.569798e+003,3.873193e-003
1.571726e+003,3.689355e-003
1.573655e+003,3.652284e-003
1.575583e+003,3.896814e-003
1.577512e+003,3.494242e-003
1.579440e+003,3.494469e-003
1.581369e+003,3.420266e-003
1.583297e+003,3.444031e-003
1.585226e+003,3.350071e-003
1.587154e+003,3.470598e-003
1.589083e+003,3.431265e-003
1.591011e+003,3.482149e-003
1.592940e+003,3.406578e-003
1.594868e+003,3.484231e-003
1.596797e+003,3.353616e-003
1.598725e+003,3.353297e-003
1.600654e+003,3.278814e-003
1.602582e+003,3.415082e-003
1.604511e+003,3.353043e-003
1.606439e+003,3.400342e-003
1.608368e+003,3.382897e-003
1.610296e+003,3.468927e-003
1.612225e+003,3.402168e-003
1.614153e+003,3.639336e-003
1.616082e+003,3.772103e-003
1.618010e+003,3.696706e-003
1.619939e+003,3.627768e-003
1.621867e+003,3.885730e-003
1.623796e+003,3.918210e-003
1.625724e+003,4.056312e-003
1.627653e+003,4.104771e-003
1.629581e+003,4.128992e-003
1.631510e+003,4.081788e-003
1.633438e+003,4.380946e-003
1.635367e+003,4.539219e-003
1.637295e+003,4.432009e-003
1.639224e+003,4.308581e-003
1.641152e+003,4.452230e-003
1.643081e+003,4.474639e-003
1.645009e+003,4.859072e-003
1.646938e+003,4.871836e-003
1.648866e+003,4.513562e-003
1.650795e+003,4.473542e-003
1.652723e+003,4.703669e-003
1.654652e+003,4.013521e-003
1.656580e+003,4.017398e-003
1.658509e+003,3.948473e-003
1.660437e+003,4.104658e-003
1.662366e+003,4.102958e-003
1.664294e+003,3.909134e-003
1.666223e+003,3.819207e-003
1.668151e+003,4.037542e-003
1.670080e+003,3.780516e-003
1.672008e+003,3.642943e-003
1.673937e+003,3.612193e-003
1.675865e+003,3.624246e-003
1.677794e+003,3.431756e-003
1.679722e+003,3.550359e-003
1.681651e+003,3.526575e-003
1.683579e+003,3.727241e-003
1.685508e+003,3.024079e-003
1.687436e+003,3.004501e-003
1.689365e+003,2.826716e-003
1.691293e+003,2.699552e-003
1.693222e+003,2.739665e-003
1.695150e+003,2.992337e-003
1.697079e+003,2.882778e-003
1.699007e+003,2.937917e-003
1.700936e+003,2.276020e-003
1.702864e+003,2.384246e-003
1.704793e+003,2.451890e-003
1.706721e+003,2.540616e-003
1.708650e+003,2.607394e-003
1.710578e+003,2.906941e-003
1.712507e+003,3.092953e-003
1.714435e+003,3.658857e-003
1.716364e+003,4.081138e-003
1.718292e+003,4.181371e-003
1.720221e+003,3.861661e-003
1.722149e+003,3.849451e-003
1.724078e+003,3.436509e-003
1.726006e+003,3.069316e-003
1.727935e+003,2.939350e-003
1.729863e+003,3.027180e-003
1.731792e+003,3.045159e-003
1.733720e+003,3.096339e-003
1.735649e+003,2.197729e-003
1.737577e+003,2.217225e-003
1.739506e+003,2.131685e-003
1.741434e+003,2.095107e-003
1.743363e+003,1.966306e-003
1.745291e+003,1.831052e-003
1.747220e+003,1.864022e-003
1.749148e+003,1.971356e-003
1.751077e+003,1.571783e-003
1.753005e+003,1.266359e-003
1.754934e+003,1.162398e-003
1.756862e+003,1.161574e-003
1.758791e+003,1.067506e-003
1.760719e+003,1.167791e-003
1.762648e+003,8.925935e-004
1.764576e+003,8.975482e-004
1.766505e+003,9.913212e-004
1.768433e+003,1.118710e-003
1.770362e+003,1.204413e-003
1.772290e+003,1.231153e-003
1.774219e+003,7.324610e-004
1.776147e+003,7.016864e-004
1.778076e+003,7.236684e-004
1.780004e+003,8.648243e-004
1.781933e+003,7.230109e-004
1.783861e+003,8.041970e-004
1.785790e+003,6.611804e-004
1.787718e+003,6.404724e-004
1.789646e+003,7.467428e-004
1.791575e+003,8.840282e-004
1.793504e+003,5.309032e-004
1.795432e+003,6.085020e-004
1.797361e+003,5.873377e-004
1.799289e+003,7.535918e-004
1.801218e+003,6.984407e-004
1.803146e+003,5.466975e-004
1.805074e+003,3.521387e-004
1.807003e+003,3.057746e-004
1.808932e+003,1.887232e-004
1.810860e+003,2.216697e-004
1.812789e+003,-1.329873e-004
1.814717e+003,-3.719563e-004
1.816646e+003,-5.711904e-004
1.818574e+003,-2.831966e-004
1.820502e+003,-1.157327e-004
1.822431e+003,6.379187e-005
1.824360e+003,-9.881333e-006
1.826288e+003,-1.373282e-004
1.828217e+003,-2.181828e-004
1.830145e+003,-2.451334e-004
1.832073e+003,-4.731454e-004
1.834002e+003,-3.522150e-004
1.835931e+003,-4.469082e-004
1.837859e+003,-3.838483e-004
1.839788e+003,-4.560063e-004
1.841716e+003,-2.480689e-004
1.843645e+003,-3.225515e-004
1.845573e+003,-2.876529e-004
1.847501e+003,-4.457282e-004
1.849430e+003,-5.891854e-004
1.851359e+003,-9.060595e-004
1.853287e+003,-9.328779e-004
1.855216e+003,-1.051482e-003
1.857144e+003,-8.888002e-004
1.859073e+003,-9.458233e-004
1.861001e+003,-8.456632e-004
1.862929e+003,-9.930637e-004
1.864858e+003,-7.847045e-004
1.866787e+003,-7.784087e-004
1.868715e+003,-6.470187e-004
1.870644e+003,-9.494722e-004
1.872572e+003,-9.130156e-004
1.874500e+003,-1.048886e-003
1.876429e+003,-1.059230e-003
1.878357e+003,-1.169700e-003
1.880286e+003,-9.982716e-004
1.882215e+003,-1.308164e-003
1.884143e+003,-1.214510e-003
1.886072e+003,-1.232742e-003
1.888000e+003,-1.163300e-003
1.889928e+003,-1.248419e-003
1.891857e+003,-9.870976e-004
1.893785e+003,-9.234948e-004
1.895714e+003,-5.906653e-004
1.897643e+003,-7.860502e-004
1.899571e+003,-6.241752e-004
1.901500e+003,-6.176028e-004
1.903428e+003,-6.110417e-004
1.905356e+003,-6.044926e-004
1.907285e+003,-5.979547e-004
1.909213e+003,-5.914308e-004
1.911142e+003,-5.849181e-004
1.913071e+003,-5.784146e-004
1.914999e+003,-5.719271e-004
1.916927e+003,-5.654497e-004
1.918856e+003,-5.589835e-004
1.920784e+003,-5.525304e-004
1.922713e+003,-5.460903e-004
1.924641e+003,-5.396614e-004
1.926570e+003,-5.332436e-004
1.928499e+003,-5.268371e-004
1.930427e+003,-5.204435e-004
1.932355e+003,-5.140612e-004
1.934284e+003,-5.076928e-004
1.936212e+003,-5.013347e-004
1.938141e+003,-4.949896e-004
1.940070e+003,-4.886575e-004
1.941998e+003,-4.823320e-004
1.943927e+003,-4.760250e-004
1.945855e+003,-4.697265e-004
1.947783e+003,-4.634392e-004
1.949712e+003,-4.571667e-004
1.951640e+003,-4.509035e-004
1.953569e+003,-4.446562e-004
1.955498e+003,-4.384173e-004
1.957426e+003,-4.321886e-004
1.959354e+003,-4.259758e-004
1.961283e+003,-4.197722e-004
1.963211e+003,-4.135827e-004
1.965140e+003,-4.074052e-004
1.967068e+003,-4.012389e-004
1.968997e+003,-3.950838e-004
1.970926e+003,-3.889427e-004
1.972854e+003,-3.828108e-004
1.974782e+003,-3.766930e-004
1.976711e+003,-3.705844e-004
1.978639e+003,-3.644908e-004
1.980568e+003,-3.584083e-004
1.982496e+003,-3.523380e-004
1.984425e+003,-3.462778e-004
1.986354e+003,-3.402326e-004
1.988282e+003,-3.341967e-004
1.990210e+003,-3.281711e-004
1.992139e+003,-3.221612e-004
1.994067e+003,-3.161635e-004
1.995996e+003,-3.101779e-004
1.997924e+003,-3.042016e-004
1.999853e+003,-2.982393e-004
2.001781e+003,-2.922863e-004
2.003710e+003,-2.863482e-004
2.005638e+003,-2.804194e-004
2.007567e+003,-2.745045e-004
2.009495e+003,-2.686009e-004
2.011424e+003,-2.627112e-004
2.013352e+003,-2.568299e-004
2.015281e+003,-2.509635e-004
2.017209e+003,-2.451083e-004
2.019138e+003,-2.392624e-004
2.021066e+003,-2.334313e-004
2.022995e+003,-2.276115e-004
2.024923e+003,-2.218047e-004
2.026852e+003,-2.160091e-004
2.028781e+003,-2.102256e-004
2.030709e+003,-2.044532e-004
2.032637e+003,-1.986939e-004
2.034566e+003,-1.929449e-004
2.036494e+003,-1.872089e-004
2.038423e+003,-1.814850e-004
2.040351e+003,-1.757741e-004
2.042280e+003,-1.700716e-004
2.044208e+003,-1.643840e-004
2.046137e+003,-1.587095e-004
2.048065e+003,-1.530424e-004
2.049994e+003,-1.473911e-004
2.051922e+003,-1.417520e-004
2.053851e+003,-1.361240e-004
2.055779e+003,-1.305062e-004
2.057708e+003,-1.249015e-004
2.059636e+003,-1.193080e-004
2.061565e+003,-1.137275e-004
2.063493e+003,-1.081591e-004
2.065422e+003,-1.026019e-004
2.067350e+003,-9.705778e-005
2.069279e+003,-9.152479e-005
2.071207e+003,-8.600391e-005
2.073136e+003,-8.049421e-005
2.075064e+003,-7.499941e-005
2.076993e+003,-6.951205e-005
2.078921e+003,-6.403960e-005
2.080850e+003,-5.857833e-005
2.082778e+003,-5.313009e-005
2.084707e+003,-4.769210e-005
2.086635e+003,-4.226714e-005
2.088564e+003,-3.685523e-005
2.090492e+003,-3.145263e-005
2.092421e+003,-2.606306e-005
2.094349e+003,-2.068467e-005
2.096278e+003,-1.532119e-005
2.098206e+003,-9.967014e-006
2.100135e+003,-4.624948e-006
2.102063e+003,7.040799e-007
2.103992e+003,6.021932e-006
2.105920e+003,1.132861e-005
2.107849e+003,1.662225e-005
2.109777e+003,2.190378e-005
2.111706e+003,2.717413e-005
2.113634e+003,3.243051e-005
2.115563e+003,3.767759e-005
2.117491e+003,4.291069e-005
2.119420e+003,4.813448e-005
2.121348e+003,5.334336e-005
2.123277e+003,5.854107e-005
2.125205e+003,6.372668e-005
2.127134e+003,6.890297e-005
2.129062e+003,7.406436e-005
2.130991e+003,7.921364e-005
2.132919e+003,8.435175e-005
2.134848e+003,8.948054e-005
2.136776e+003,9.459443e-005
2.138705e+003,9.969529e-005
2.140633e+003,1.047868e-004
2.142562e+003,1.098663e-004
2.144490e+003,1.149327e-004
2.146419e+003,1.199860e-004
2.148347e+003,1.250301e-004
2.150276e+003,1.300611e-004
2.152204e+003,1.350790e-004
2.154133e+003,1.400858e-004
2.156061e+003,1.450805e-004
2.157990e+003,1.500640e-004
2.159918e+003,1.550345e-004
2.161847e+003,1.599938e-004
2.163775e+003,1.649419e-004
2.165704e+003,1.698770e-004
2.167632e+003,1.747990e-004
2.169561e+003,1.797117e-004
2.171489e+003,1.846114e-004
2.173418e+003,1.894981e-004
2.175346e+003,1.943726e-004
2.177275e+003,1.992369e-004
2.179203e+003,2.040882e-004
2.181132e+003,2.089264e-004
2.183060e+003,2.137534e-004
2.184989e+003,2.185721e-004
2.186917e+003,2.233740e-004
2.188846e+003,2.281656e-004
2.190774e+003,2.329461e-004
2.192703e+003,2.377154e-004
2.194631e+003,2.424698e-004
2.196560e+003,2.472121e-004
2.198488e+003,2.519451e-004
2.200417e+003,2.566651e-004
2.202345e+003,2.613729e-004
2.204274e+003,2.660695e-004
2.206202e+003,2.707522e-004
2.208131e+003,2.754256e-004
2.210059e+003,2.800850e-004
2.211988e+003,2.847351e-004
2.213916e+003,2.893722e-004
2.215845e+003,2.939962e-004
2.217773e+003,2.986062e-004
2.219702e+003,3.032088e-004
2.221630e+003,3.077965e-004
2.223559e+003,3.123721e-004
2.225487e+003,3.169365e-004
2.227416e+003,3.214898e-004
2.229344e+003,3.260318e-004
2.231273e+003,3.305580e-004
2.233201e+003,3.350740e-004
2.235130e+003,3.395816e-004
2.237058e+003,3.440753e-004
2.238987e+003,3.485540e-004
2.240915e+003,3.530234e-004
2.242844e+003,3.574817e-004
2.244772e+003,3.619269e-004
2.246701e+003,3.663590e-004
2.248629e+003,3.707800e-004
2.250558e+003,3.751889e-004
2.252486e+003,3.795847e-004
2.254415e+003,3.839713e-004
2.256343e+003,3.883457e-004
2.258272e+003,3.927071e-004
2.260200e+003,3.970563e-004
2.262129e+003,4.013944e-004
2.264057e+003,4.057195e-004
2.265986e+003,4.100334e-004
2.267914e+003,4.143333e-004
2.269843e+003,4.186239e-004
2.271771e+003,4.229024e-004
2.273700e+003,4.271669e-004
2.275628e+003,4.314203e-004
2.277557e+003,4.356625e-004
2.279485e+003,4.398935e-004
2.281414e+003,4.441105e-004
2.283342e+003,4.483163e-004
2.285271e+003,4.525101e-004
2.287199e+003,4.566927e-004
2.289128e+003,4.608613e-004
2.291056e+003,4.650215e-004
2.292985e+003,4.691677e-004
2.294913e+003,4.733019e-004
2.296842e+003,4.774248e-004
2.298770e+003,4.815338e-004
2.300699e+003,4.856326e-004
2.302627e+003,4.897183e-004
2.304556e+003,4.937928e-004
2.306484e+003,4.978562e-004
2.308413e+003,5.019065e-004
2.310341e+003,5.059447e-004
2.312270e+003,5.099718e-004
2.314198e+003,5.139876e-004
2.316127e+003,5.179904e-004
2.318055e+003,5.219802e-004
2.319984e+003,5.259588e-004
2.321912e+003,5.299263e-004
2.323841e+003,5.338816e-004
2.325769e+003,5.378239e-004
2.327698e+003,5.417550e-004
2.329626e+003,5.456740e-004
2.331555e+003,5.495818e-004
2.333483e+003,5.534757e-004
2.335412e+003,5.573602e-004
2.337340e+003,5.612308e-004
2.339269e+003,5.650893e-004
2.341197e+003,5.689366e-004
2.343126e+003,5.727736e-004
2.345054e+003,5.765967e-004
2.346983e+003,5.804077e-004
2.348911e+003,5.842065e-004
2.350840e+003,5.879961e-004
2.352768e+003,5.917707e-004
2.354697e+003,5.955342e-004
2.356625e+003,5.992865e-004
2.358554e+003,6.030258e-004
2.360482e+003,6.067539e-004
2.362411e+003,6.104689e-004
2.364339e+003,6.141746e-004
2.366268e+003,6.178645e-004
2.368196e+003,6.215451e-004
2.370125e+003,6.252136e-004
2.372053e+003,6.288700e-004
2.373982e+003,6.325142e-004
2.375910e+003,6.361455e-004
2.377839e+003,6.397646e-004
2.379767e+003,6.433735e-004
2.381696e+003,6.469702e-004
2.383624e+003,6.505549e-004
2.385553e+003,6.541274e-004
2.387481e+003,6.576879e-004
2.389410e+003,6.612353e-004
2.391338e+003,6.647734e-004
2.393267e+003,6.682966e-004
2.395195e+003,6.718105e-004
2.397124e+003,6.753113e-004
2.399052e+003,6.787991e-004
2.400981e+003,5.403627e-004
2.402909e+003,5.270364e-004
2.404838e+003,5.375454e-004
2.406766e+003,7.389467e-004
2.408695e+003,1.040203e-003
2.410623e+003,1.091172e-003
2.412552e+003,1.052516e-003
2.414480e+003,1.096842e-003
2.416409e+003,1.151527e-003
2.418337e+003,1.067642e-003
2.420266e+003,1.022154e-003
2.422194e+003,1.011102e-003
2.424123e+003,9.218138e-004
2.426051e+003,7.994873e-004
2.427979e+003,7.462287e-004
2.429908e+003,7.143738e-004
2.431837e+003,8.864375e-004
2.433765e+003,9.264490e-004
2.435694e+003,8.838624e-004
2.437622e+003,9.470023e-004
2.439551e+003,8.885274e-004
2.441479e+003,6.918637e-004
2.443407e+003,7.452853e-004
2.445336e+003,8.077621e-004
2.447265e+003,8.579092e-004
2.449193e+003,8.144304e-004
2.451122e+003,9.679059e-004
2.453050e+003,1.048503e-003
2.454979e+003,1.018879e-003
2.456907e+003,9.547519e-004
2.458836e+003,8.579837e-004
2.460764e+003,7.380135e-004
2.462693e+003,8.151541e-004
2.464621e+003,9.364951e-004
2.466550e+003,9.711655e-004
2.468478e+003,9.256685e-004
2.470406e+003,9.911275e-004
2.472335e+003,1.044700e-003
2.474264e+003,1.174479e-003
2.476192e+003,1.216264e-003
2.478121e+003,1.268021e-003
2.480049e+003,1.249065e-003
2.481978e+003,1.281722e-003
2.483906e+003,1.314745e-003
2.485835e+003,1.385783e-003
2.487763e+003,1.190655e-003
2.489692e+003,1.081717e-003
2.491620e+003,1.204385e-003
2.493549e+003,1.434472e-003
2.495477e+003,1.422835e-003
2.497406e+003,1.457828e-003
2.499334e+003,1.570210e-003
2.501263e+003,1.728688e-003
2.503191e+003,1.600605e-003
2.505120e+003,1.541303e-003
2.507048e+003,1.466131e-003
2.508977e+003,1.597674e-003
2.510905e+003,1.769436e-003
2.512833e+003,1.790126e-003
2.514762e+003,1.867323e-003
2.516691e+003,2.074546e-003
2.518619e+003,2.096741e-003
2.520548e+003,2.140212e-003
2.522476e+003,2.322914e-003
2.524405e+003,2.414239e-003
2.526333e+003,2.418838e-003
2.528261e+003,2.607674e-003
2.530190e+003,2.493037e-003
2.532119e+003,2.486552e-003
2.534047e+003,2.548062e-003
2.535976e+003,2.616319e-003
2.537904e+003,2.648032e-003
2.539833e+003,2.645448e-003
2.541761e+003,2.780068e-003
2.543689e+003,3.120718e-003
2.545618e+003,3.363014e-003
2.547547e+003,3.492776e-003
2.549475e+003,3.546880e-003
2.551404e+003,3.598044e-003
2.553332e+003,3.836059e-003
2.555260e+003,4.075064e-003
2.557189e+003,3.918041e-003
2.559117e+003,3.993081e-003
2.561046e+003,4.253204e-003
2.562975e+003,4.407122e-003
2.564903e+003,4.575702e-003
2.566832e+003,4.737548e-003
2.568760e+003,4.812738e-003
2.570688e+003,4.841799e-003
2.572617e+003,4.895767e-003
2.574546e+003,5.110841e-003
2.576474e+003,5.389837e-003
2.578403e+003,5.760858e-003
2.580331e+003,5.990365e-003
2.582260e+003,6.050160e-003
2.584188e+003,6.160310e-003
2.586116e+003,6.525309e-003
2.588045e+003,6.722177e-003
2.589974e+003,6.870815e-003
2.591902e+003,7.197134e-003
2.593831e+003,7.494526e-003
2.595759e+003,7.639174e-003
2.597688e+003,7.879017e-003
2.599616e+003,8.038934e-003
2.601544e+003,8.249888e-003
2.603473e+003,8.514686e-003
2.605402e+003,8.770122e-003
2.607330e+003,9.114528e-003
2.609259e+003,9.477710e-003
2.611187e+003,9.644580e-003
2.613115e+003,9.955402e-003
2.615044e+003,1.025146e-002
2.616972e+003,1.061366e-002
2.618901e+003,1.102792e-002
2.620830e+003,1.141744e-002
2.622758e+003,1.173927e-002
2.624687e+003,1.219880e-002
2.626615e+003,1.271969e-002
2.628543e+003,1.312325e-002
2.630472e+003,1.348438e-002
2.632400e+003,1.378865e-002
2.634329e+003,1.398173e-002
2.636258e+003,1.413648e-002
2.638186e+003,1.427685e-002
2.640115e+003,1.426065e-002
2.642043e+003,1.415403e-002
2.643971e+003,1.412435e-002
2.645900e+003,1.414926e-002
2.647828e+003,1.420816e-002
2.649757e+003,1.428215e-002
2.651686e+003,1.439764e-002
2.653614e+003,1.454162e-002
2.655542e+003,1.468184e-002
2.657471e+003,1.480993e-002
2.659399e+003,1.486021e-002
2.661328e+003,1.477011e-002
2.663256e+003,1.463377e-002
2.665185e+003,1.442582e-002
2.667114e+003,1.420389e-002
2.669042e+003,1.399386e-002
2.670970e+003,1.382268e-002
2.672899e+003,1.367960e-002
2.674827e+003,1.354765e-002
2.676756e+003,1.339822e-002
2.678685e+003,1.329525e-002
2.680613e+003,1.318644e-002
2.682542e+003,1.302043e-002
2.684470e+003,1.285686e-002
2.686398e+003,1.277106e-002
2.688327e+003,1.266332e-002
2.690255e+003,1.255328e-002
2.692184e+003,1.244504e-002
2.694113e+003,1.238415e-002
2.696041e+003,1.237537e-002
2.697969e+003,1.236718e-002
2.699898e+003,1.238863e-002
2.701826e+003,1.247304e-002
2.703755e+003,1.263713e-002
2.705683e+003,1.286380e-002
2.707612e+003,1.303811e-002
2.709541e+003,1.323474e-002
2.711469e+003,1.342035e-002
2.713397e+003,1.358241e-002
2.715326e+003,1.376532e-002
2.717254e+003,1.401638e-002
2.719183e+003,1.418717e-002
2.721111e+003,1.441513e-002
2.723040e+003,1.471512e-002
2.724969e+003,1.501768e-002
2.726897e+003,1.536849e-002
2.728825e+003,1.566418e-002
2.730754e+003,1.581423e-002
2.732682e+003,1.594762e-002
2.734611e+003,1.609245e-002
2.736539e+003,1.626210e-002
2.738468e+003,1.641871e-002
2.740396e+003,1.645715e-002
2.742325e+003,1.637989e-002
2.744253e+003,1.632545e-002
2.746182e+003,1.634068e-002
2.748110e+003,1.635053e-002
2.750039e+003,1.637535e-002
2.751967e+003,1.646506e-002
2.753896e+003,1.665530e-002
2.755824e+003,1.693214e-002
2.757753e+003,1.725651e-002
2.759681e+003,1.763157e-002
2.761610e+003,1.801037e-002
2.763538e+003,1.840238e-002
2.765467e+003,1.884381e-002
2.767395e+003,1.939864e-002
2.769324e+003,1.995438e-002
2.771252e+003,2.057381e-002
2.773181e+003,2.127334e-002
2.775109e+003,2.207448e-002
2.777038e+003,2.297771e-002
2.778966e+003,2.389946e-002
2.780895e+003,2.497016e-002
2.782823e+003,2.617681e-002
2.784752e+003,2.743443e-002
2.786680e+003,2.882151e-002
2.788609e+003,3.039010e-002
2.790537e+003,3.208867e-002
2.792466e+003,3.382923e-002
2.794394e+003,3.559838e-002
2.796323e+003,3.745087e-002
2.798251e+003,3.937426e-002
2.800180e+003,4.136939e-002
2.802108e+003,4.349790e-002
2.804037e+003,4.585544e-002
2.805965e+003,4.839040e-002
2.807894e+003,5.116665e-002
2.809822e+003,5.419659e-002
2.811751e+003,5.760990e-002
2.813679e+003,6.156830e-002
2.815608e+003,6.611899e-002
2.817536e+003,7.134851e-002
2.819465e+003,7.748547e-002
2.821393e+003,8.472329e-002
2.823322e+003,9.354424e-002
2.825250e+003,1.045151e-001
2.827179e+003,1.184494e-001
2.829107e+003,1.365094e-001
2.831036e+003,1.606619e-001
2.832964e+003,1.940093e-001
2.834893e+003,2.414747e-001
2.836821e+003,3.096322e-001
2.838750e+003,4.089849e-001
2.840678e+003,5.566199e-001
2.842607e+003,7.743501e-001
2.844535e+003,1.074175e+000
2.846464e+003,1.385100e+000
2.848392e+003,1.447182e+000
2.850321e+003,1.178545e+000
2.852249e+003,8.662198e-001
2.854178e+003,6.453697e-001
2.856106e+003,4.973905e-001
2.858035e+003,3.939438e-001
2.859963e+003,3.205011e-001
2.861892e+003,2.691496e-001
2.863820e+003,2.347732e-001
2.865749e+003,2.140431e-001
2.867677e+003,2.039884e-001
2.869606e+003,2.011111e-001
2.871534e+003,2.022195e-001
2.873463e+003,2.066893e-001
2.875391e+003,2.160848e-001
2.877320e+003,2.317638e-001
2.879248e+003,2.535194e-001
2.881177e+003,2.803833e-001
2.883105e+003,3.113952e-001
2.885034e+003,3.460497e-001
2.886962e+003,3.837508e-001
2.888891e+003,4.233695e-001
2.890819e+003,4.639103e-001
2.892748e+003,5.046953e-001
2.894676e+003,5.453038e-001
2.896605e+003,5.866396e-001
2.898533e+003,6.303036e-001
2.900462e+003,6.792663e-001
2.902390e+003,7.384889e-001
2.904319e+003,8.153579e-001
2.906247e+003,9.195729e-001
2.908176e+003,1.061960e+000
2.910104e+003,1.248136e+000
2.912033e+003,1.457329e+000
2.913961e+003,1.610333e+000
2.915890e+003,1.605959e+000
2.917818e+003,1.445044e+000
2.919747e+003,1.227016e+000
2.921675e+003,1.024022e+000
2.923604e+003,8.567956e-001
2.925532e+003,7.234887e-001
2.927461e+003,6.153809e-001
2.929389e+003,5.248257e-001
2.931318e+003,4.475332e-001
2.933246e+003,3.810078e-001
2.935175e+003,3.237926e-001
2.937103e+003,2.748178e-001
2.939032e+003,2.331409e-001
2.940960e+003,1.982927e-001
2.942889e+003,1.700120e-001
2.944817e+003,1.481917e-001
2.946746e+003,1.326642e-001
2.948674e+003,1.228977e-001
2.950603e+003,1.174720e-001
2.952531e+003,1.139839e-001
2.954460e+003,1.105016e-001
2.956388e+003,1.061708e-001
2.958317e+003,1.007485e-001
2.960245e+003,9.419808e-002
2.962174e+003,8.665511e-002
2.964102e+003,7.846481e-002
2.966031e+003,7.001766e-002
2.967959e+003,6.190488e-002
2.969888e+003,5.456355e-002
2.971816e+003,4.816995e-002
2.973745e+003,4.264934e-002
2.975673e+003,3.801746e-002
2.977602e+003,3.418171e-002
2.979530e+003,3.098441e-002
2.981459e+003,2.836672e-002
2.983387e+003,2.619525e-002
2.985316e+003,2.437686e-002
2.987244e+003,2.290977e-002
2.989173e+003,2.152062e-002
2.991101e+003,2.032620e-002
2.993030e+003,1.930655e-002
2.994958e+003,1.838053e-002
2.996887e+003,1.764729e-002
2.998815e+003,1.700382e-002
3.000744e+003,1.632149e-002
3.002672e+003,1.571869e-002
3.004601e+003,1.520396e-002
3.006529e+003,1.472353e-002
3.008458e+003,1.431013e-002
3.010386e+003,1.393002e-002
3.012315e+003,1.344239e-002
3.014243e+003,1.307304e-002
3.016172e+003,1.285224e-002
3.018100e+003,1.257775e-002
3.020029e+003,1.230675e-002
3.021957e+003,1.203755e-002
3.023886e+003,1.169215e-002
3.025814e+003,1.145962e-002
3.027743e+003,1.125446e-002
3.029671e+003,1.094881e-002
3.031600e+003,1.058915e-002
3.033528e+003,1.029385e-002
3.035457e+003,1.004113e-002
3.037385e+003,9.832567e-003
3.039314e+003,9.503445e-003
3.041242e+003,9.117162e-003
3.043171e+003,8.823073e-003
3.045099e+003,8.588734e-003
3.047028e+003,8.265087e-003
3.048956e+003,7.959597e-003
3.050885e+003,7.657705e-003
3.052813e+003,7.405194e-003
3.054742e+003,7.234954e-003
3.056670e+003,7.098455e-003
3.058599e+003,6.962092e-003
3.060527e+003,6.774439e-003
3.062456e+003,6.565179e-003
3.064384e+003,6.457015e-003
3.066313e+003,6.354569e-003
3.068241e+003,6.218854e-003
3.070170e+003,5.991583e-003
3.072098e+003,5.771238e-003
3.074027e+003,5.690688e-003
3.075955e+003,5.674939e-003
3.077884e+003,5.625019e-003
3.079812e+003,5.508123e-003
3.081741e+003,5.253552e-003
3.083669e+003,5.080181e-003
3.085598e+003,4.950563e-003
3.087526e+003,4.786255e-003
3.089455e+003,4.572771e-003
3.091383e+003,4.298657e-003
3.093312e+003,4.035029e-003
3.095240e+003,3.862796e-003
3.097169e+003,3.629382e-003
3.099097e+003,3.321462e-003
3.101026e+003,2.996414e-003
3.102954e+003,2.776012e-003
3.104883e+003,2.622267e-003
3.106811e+003,2.566805e-003
3.108740e+003,2.493304e-003
3.110668e+003,2.260659e-003
3.112597e+003,2.074463e-003
3.114525e+003,2.039387e-003
3.116454e+003,2.006716e-003
3.118382e+003,1.932847e-003
3.120311e+003,1.853558e-003
3.122239e+003,1.782676e-003
3.124168e+003,1.670377e-003
3.126096e+003,1.614993e-003
3.128025e+003,1.568883e-003
3.129953e+003,1.484189e-003
3.131882e+003,1.498681e-003
3.133810e+003,1.503623e-003
3.135739e+003,1.462768e-003
3.137667e+003,1.507024e-003
3.139596e+003,1.464980e-003
3.141524e+003,1.393393e-003
3.143453e+003,1.289325e-003
3.145381e+003,1.299188e-003
3.147310e+003,1.400780e-003
3.149238e+003,1.453298e-003
3.151167e+003,1.416832e-003
3.153095e+003,1.389633e-003
3.155024e+003,1.349038e-003
3.156952e+003,1.307558e-003
3.158881e+003,1.314546e-003
3.160809e+003,1.332428e-003
3.162738e+003,1.247571e-003
3.164666e+003,1.245074e-003
3.166594e+003,1.264486e-003
3.168523e+003,1.181922e-003
3.170452e+003,1.194242e-003
3.172380e+003,1.295692e-003
3.174309e+003,1.250273e-003
3.176237e+003,1.275051e-003
3.178166e+003,1.388623e-003
3.180094e+003,1.325523e-003
3.182022e+003,1.305996e-003
3.183951e+003,1.362938e-003
3.185880e+003,1.396833e-003
3.187808e+003,1.396973e-003
3.189737e+003,1.317020e-003
3.191665e+003,1.228902e-003
3.193594e+003,1.263935e-003
3.195522e+003,1.272684e-003
3.197450e+003,1.333386e-003
3.199379e+003,1.329264e-003
3.201308e+003,1.250638e-003
3.203236e+003,1.289661e-003
3.205165e+003,1.244361e-003
3.207093e+003,1.273104e-003
3.209021e+003,1.298194e-003
3.210950e+003,1.261762e-003
3.212878e+003,1.205778e-003
3.214807e+003,1.150250e-003
3.216736e+003,1.176890e-003
3.218664e+003,1.247507e-003
3.220593e+003,1.295695e-003
3.222521e+003,1.356312e-003
3.224449e+003,1.273903e-003
3.226378e+003,1.190341e-003
3.228307e+003,1.091950e-003
3.230235e+003,1.082812e-003
3.232164e+003,1.201586e-003
3.234092e+003,1.212131e-003
3.236021e+003,1.187528e-003
3.237949e+003,1.223788e-003
3.239877e+003,1.320386e-003
3.241806e+003,1.370813e-003
3.243735e+003,1.331429e-003
3.245663e+003,1.295081e-003
3.247592e+003,1.285019e-003
3.249520e+003,1.302996e-003
3.251448e+003,1.375638e-003
3.253377e+003,1.447831e-003
3.255305e+003,1.403196e-003
3.257234e+003,1.493345e-003
3.259163e+003,1.579001e-003
3.261091e+003,1.551158e-003
3.263020e+003,1.485998e-003
3.264948e+003,1.500186e-003
3.266876e+003,1.556218e-003
3.268805e+003,1.653638e-003
3.270733e+003,1.663857e-003
3.272662e+003,1.653994e-003
3.274591e+003,1.619920e-003
3.276519e+003,1.687366e-003
3.278448e+003,1.773191e-003
3.280376e+003,1.734159e-003
3.282304e+003,1.704669e-003
3.284233e+003,1.629954e-003
3.286161e+003,1.706110e-003
3.288090e+003,1.803738e-003
3.290019e+003,1.751946e-003
3.291947e+003,1.746683e-003
3.293875e+003,1.773645e-003
3.295804e+003,1.696838e-003
3.297732e+003,1.625465e-003
3.299661e+003,1.659865e-003
3.301589e+003,1.793077e-003
3.303518e+003,1.778355e-003
3.305447e+003,1.687740e-003
3.307375e+003,1.680316e-003
3.309303e+003,1.741025e-003
3.311232e+003,1.740466e-003
3.313160e+003,1.653190e-003
3.315089e+003,1.713977e-003
3.317018e+003,1.689210e-003
3.318946e+003,1.566103e-003
3.320875e+003,1.621801e-003
3.322803e+003,1.729728e-003
3.324731e+003,1.773248e-003
3.326660e+003,1.800211e-003
3.328588e+003,1.777238e-003
3.330517e+003,1.655471e-003
3.332446e+003,1.667950e-003
3.334374e+003,1.810211e-003
3.336302e+003,1.809531e-003
3.338231e+003,1.730346e-003
3.340159e+003,1.693189e-003
3.342088e+003,1.733482e-003
3.344016e+003,1.757010e-003
3.345945e+003,1.692211e-003
3.347874e+003,1.583798e-003
3.349802e+003,1.591647e-003
3.351730e+003,1.593117e-003
3.353659e+003,1.641944e-003
3.355587e+003,1.737447e-003
3.357516e+003,1.746050e-003
3.359444e+003,1.665620e-003
3.361373e+003,1.695599e-003
3.363302e+003,1.796202e-003
3.365230e+003,1.730567e-003
3.367158e+003,1.687197e-003
3.369087e+003,1.637129e-003
3.371015e+003,1.548812e-003
3.372944e+003,1.575705e-003
3.374872e+003,1.632771e-003
3.376801e+003,1.580885e-003
3.378729e+003,1.482441e-003
3.380658e+003,1.367902e-003
3.382586e+003,1.380417e-003
3.384515e+003,1.453963e-003
3.386443e+003,1.404590e-003
3.388372e+003,1.380528e-003
3.390300e+003,1.433925e-003
3.392229e+003,1.445605e-003
3.394157e+003,1.419621e-003
3.396086e+003,1.462194e-003
3.398014e+003,1.415983e-003
3.399943e+003,1.351514e-003
3.401871e+003,1.291779e-003
3.403800e+003,1.319268e-003
3.405728e+003,1.280688e-003
3.407657e+003,1.155676e-003
3.409585e+003,1.054823e-003
3.411514e+003,1.092639e-003
3.413442e+003,1.141592e-003
3.415371e+003,1.102901e-003
3.417299e+003,1.069885e-003
3.419228e+003,1.070285e-003
3.421156e+003,9.646425e-004
3.423085e+003,8.421429e-004
3.425013e+003,8.680401e-004
3.426942e+003,8.597635e-004
3.428870e+003,9.332011e-004
3.430799e+003,9.683119e-004
3.432727e+003,9.094635e-004
3.434656e+003,8.626105e-004
3.436584e+003,8.116411e-004
3.438513e+003,8.188644e-004
3.440441e+003,8.187508e-004
3.442370e+003,8.381857e-004
3.444298e+003,9.276401e-004
3.446227e+003,9.615235e-004
3.448155e+003,7.785270e-004
3.450084e+003,7.180022e-004
3.452012e+003,6.650025e-004
3.453941e+003,5.750898e-004
3.455869e+003,6.382335e-004
3.457798e+003,6.133560e-004
3.459726e+003,5.663028e-004
3.461655e+003,4.362436e-004
3.463583e+003,3.752802e-004
3.465512e+003,3.955783e-004
3.467440e+003,3.950698e-004
3.469369e+003,4.222300e-004
3.471297e+003,3.669234e-004
3.473226e+003,3.601182e-004
3.475154e+003,3.036847e-004
3.477083e+003,2.391972e-004
3.479011e+003,2.492024e-004
3.480940e+003,2.653850e-004
3.482868e+003,1.528682e-004
3.484797e+003,1.428146e-004
3.486725e+003,1.088344e-004
3.488654e+003,-5.261321e-005
3.490582e+003,-5.478598e-005
3.492511e+003,6.997027e-006
3.494439e+003,6.058719e-005
3.496368e+003,6.478000e-005
3.498296e+003,-2.895575e-005
3.500225e+003,6.111246e-005
3.502153e+003,3.954545e-004
3.504082e+003,1.554135e-004
3.506010e+003,-2.373056e-004
3.507939e+003,-1.870049e-004
3.509867e+003,-1.460928e-004
3.511796e+003,-2.363985e-004
3.513724e+003,-3.201151e-004
3.515653e+003,-3.905436e-004
3.517581e+003,-3.493195e-004
3.519510e+003,-3.719181e-004
3.521438e+003,-2.145134e-004
3.523367e+003,-1.394767e-004
3.525295e+003,-3.590183e-004
3.527224e+003,-3.506616e-004
3.529152e+003,-4.834607e-004
3.531081e+003,-7.828614e-004
3.533009e+003,-8.854186e-004
3.534938e+003,-6.810166e-004
3.536866e+003,-6.412640e-004
3.538795e+003,-7.328968e-004
3.540723e+003,-5.215509e-004
3.542652e+003,-2.984386e-004
3.544580e+003,-1.745122e-004
3.546509e+003,-4.012473e-004
3.548437e+003,-8.811681e-004
3.550366e+003,-9.490103e-004
3.552294e+003,-8.549495e-004
3.554223e+003,-1.095754e-003
3.556151e+003,-1.178516e-003
3.558080e+003,-8.896440e-004
3.560008e+003,-5.888380e-004
3.561937e+003,-5.271519e-004
3.563865e+003,-3.575683e-004
3.565794e+003,-2.998980e-004
3.567722e+003,-8.487012e-004
3.569651e+003,-1.389131e-003
3.571579e+003,-1.568576e-003
3.573508e+003,-1.391603e-003
3.575436e+003,-1.104643e-003
3.577365e+003,-9.899596e-004
3.579293e+003,-8.751452e-004
3.581222e+003,-8.863909e-004
3.583150e+003,-8.753156e-004
3.585079e+003,-5.663810e-004
3.587007e+003,-2.100775e-004
3.588936e+003,-6.783409e-004
3.590864e+003,-6.101048e-004
3.592793e+003,-1.832061e-004
3.594721e+003,1.047654e-004
3.596650e+003,4.281783e-004
3.598578e+003,1.188197e-003
3.600507e+003,1.701250e-003
3.602435e+003,1.560005e-003
3.604364e+003,1.705846e-003
3.606292e+003,2.055385e-003
3.608221e+003,1.968144e-003
3.610149e+003,1.492594e-003
3.612078e+003,1.059037e-003
3.614006e+003,5.308883e-004
3.615935e+003,3.566192e-004
3.617863e+003,4.269043e-004
3.619792e+003,1.826314e-004
3.621720e+003,2.504513e-005
3.623649e+003,1.041591e-005
3.625577e+003,3.657574e-004
3.627506e+003,1.150679e-003
3.629434e+003,6.265650e-004
3.631363e+003,-6.151386e-005
3.633291e+003,-2.781712e-004
3.635220e+003,-4.845308e-004
3.637148e+003,-3.593480e-004
3.639077e+003,-1.758393e-004
3.641005e+003,1.762100e-004
3.642934e+003,3.061844e-004
3.644862e+003,7.148841e-004
3.646791e+003,1.301824e-003
3.648719e+003,1.044603e-003
3.650648e+003,-5.484745e-005
3.652576e+003,-7.789703e-004
3.654505e+003,-6.918795e-004
3.656433e+003,-1.127488e-003
3.658362e+003,-1.282975e-003
3.660290e+003,-8.139852e-004
3.662219e+003,-6.257705e-004
3.664147e+003,-6.725807e-004
3.666076e+003,-2.843048e-004
3.668004e+003,5.152551e-004
3.669933e+003,5.337317e-005
3.671861e+003,-6.854720e-004
3.673790e+003,-4.476225e-004
3.675718e+003,-1.502406e-003
3.677647e+003,-1.039806e-003
3.679575e+003,-7.360093e-004
3.681504e+003,-9.842822e-004
3.683432e+003,-8.689584e-004
3.685361e+003,-4.525324e-004
3.687289e+003,3.297068e-005
3.689218e+003,-2.902811e-004
3.691146e+003,-8.731987e-004
3.693075e+003,-1.038096e-003
3.695003e+003,-1.010000e-003
3.696932e+003,-1.078445e-003
3.698860e+003,-6.839661e-004
3.700789e+003,-9.503588e-005
3.702717e+003,-3.413782e-004
3.704646e+003,-5.313940e-004
3.706574e+003,-4.007267e-004
3.708503e+003,-2.476303e-004
3.710431e+003,1.236303e-004
3.712360e+003,-1.392607e-004
3.714288e+003,-5.254224e-004
3.716217e+003,-5.977955e-004
3.718145e+003,-5.811388e-004
3.720074e+003,-4.279269e-004
3.722002e+003,-1.079571e-004
3.723931e+003,2.821814e-005
3.725859e+003,9.503867e-005
3.727788e+003,-1.976285e-004
3.729716e+003,4.428253e-005
3.731645e+003,2.541235e-004
3.733573e+003,2.815891e-004
3.735502e+003,4.089670e-004
3.737430e+003,-2.333205e-004
3.739359e+003,-4.380196e-004
3.741287e+003,-2.095280e-004
3.743216e+003,1.480775e-004
3.745144e+003,5.968194e-005
3.747073e+003,2.836846e-004
3.749001e+003,5.125087e-004
3.750930e+003,-1.214165e-005
3.752858e+003,-9.445949e-004
3.754787e+003,-7.203026e-004
3.756715e+003,-2.416298e-004
3.758644e+003,-1.590978e-004
3.760572e+003,-4.348550e-004
3.762501e+003,-3.904039e-004
3.764429e+003,-2.378635e-004
3.766358e+003,-5.447539e-004
3.768286e+003,-3.507007e-004
3.770215e+003,-4.255921e-004
3.772143e+003,-6.277580e-004
3.774072e+003,-4.441189e-004
3.776000e+003,-1.656516e-004
3.777929e+003,1.379689e-004
3.779857e+003,-5.509052e-005
3.781786e+003,-1.934282e-004
3.783714e+003,-2.024220e-004
3.785643e+003,-4.395545e-004
3.787571e+003,-3.853794e-004
3.789500e+003,-4.425235e-004
3.791428e+003,-4.327456e-004
3.793357e+003,1.099156e-004
3.795285e+003,8.008564e-004
3.797214e+003,6.324761e-004
3.799142e+003,7.568132e-004
3.801071e+003,6.797910e-004
3.802999e+003,-3.768960e-004
3.804927e+003,-1.412435e-004
3.806856e+003,-1.764204e-004
3.808785e+003,-2.137646e-004
3.810713e+003,2.947683e-004
3.812642e+003,6.587533e-004
3.814570e+003,1.255670e-003
3.816499e+003,9.000432e-004
3.818427e+003,1.055653e-003
3.820355e+003,9.115450e-004
3.822284e+003,-4.545469e-004
3.824213e+003,-1.123641e-005
3.826141e+003,3.252756e-004
3.828070e+003,3.602905e-004
3.829998e+003,8.874871e-004
3.831927e+003,1.286876e-003
3.833855e+003,1.336816e-003
3.835783e+003,1.449491e-003
3.837712e+003,1.209859e-003
3.839641e+003,7.665707e-004
3.841569e+003,5.196230e-004
3.843498e+003,5.422356e-004
3.845426e+003,4.929611e-004
3.847354e+003,7.359711e-004
3.849283e+003,1.272342e-003
3.851211e+003,2.317922e-003
3.853140e+003,2.113479e-003
3.855069e+003,5.605184e-004
3.856997e+003,2.678642e-004
3.858926e+003,2.166210e-004
3.860854e+003,7.716892e-004
3.862782e+003,1.341344e-003
3.864711e+003,1.254058e-003
3.866640e+003,1.000158e-003
3.868568e+003,1.241776e-003
3.870497e+003,5.815048e-004
3.872425e+003,7.857941e-004
3.874354e+003,6.689886e-004
3.876282e+003,4.437836e-004
3.878210e+003,1.151749e-003
3.880139e+003,1.333317e-003
3.882068e+003,9.248657e-004
3.883996e+003,1.290245e-003
3.885925e+003,6.901417e-004
3.887853e+003,2.341354e-004
3.889781e+003,8.210158e-004
3.891710e+003,9.385608e-004
3.893638e+003,5.196724e-004
3.895567e+003,8.323146e-004
3.897496e+003,1.475477e-003
3.899424e+003,1.576820e-003
3.901353e+003,1.526985e-003
3.903281e+003,1.443087e-003
3.905209e+003,5.503539e-004
3.907138e+003,1.713578e-004
3.909066e+003,3.232146e-004
3.910995e+003,5.307700e-004
3.912924e+003,7.842202e-004
3.914852e+003,1.267998e-003
3.916781e+003,1.286708e-003
3.918709e+003,9.795548e-004
3.920637e+003,7.750038e-004
3.922566e+003,9.264443e-004
3.924494e+003,9.512017e-004
3.926423e+003,5.700095e-004
3.928352e+003,6.997231e-004
3.930280e+003,8.108346e-004
3.932208e+003,5.377345e-004
3.934137e+003,1.644529e-004
3.936065e+003,2.323482e-004
3.937994e+003,2.207067e-004
3.939922e+003,3.610859e-004
3.941851e+003,5.787080e-004
3.943780e+003,2.594655e-004
3.945708e+003,2.760794e-004
3.947636e+003,5.266741e-004
3.949565e+003,4.000980e-004
3.951493e+003,2.100300e-004
3.953422e+003,1.754500e-004
3.955351e+003,2.307929e-004
3.957279e+003,3.417339e-004
3.959208e+003,5.500177e-004
3.961136e+003,6.663222e-004
3.963064e+003,4.775999e-004
3.964993e+003,4.156604e-004
3.966921e+003,5.021896e-004
3.968850e+003,6.139921e-004
3.970779e+003,5.924832e-004
3.972707e+003,5.427431e-004
3.974635e+003,5.686078e-004
3.976564e+003,5.020704e-004
3.978492e+003,4.867371e-004
3.980421e+003,5.704453e-004
3.982349e+003,5.065529e-004
3.984278e+003,3.989805e-004
3.986207e+003,3.413614e-004
3.988135e+003,3.093826e-004
3.990063e+003,3.210530e-004
3.991992e+003,2.574017e-004
3.993920e+003,2.655061e-004
3.995849e+003,2.532545e-004
3.997777e+003,3.017085e-004
3.999706e+003,3.383718e-004
4.001635e+003,0.000000e+000
