3.991992e+002,0.000000e+000
4.011277e+002,0.000000e+000
4.030562e+002,0.000000e+000
4.049846e+002,0.000000e+000
4.069131e+002,0.000000e+000
4.088416e+002,0.000000e+000
4.107701e+002,0.000000e+000
4.126986e+002,0.000000e+000
4.146271e+002,0.000000e+000
4.165556e+002,0.000000e+000
4.184841e+002,0.000000e+000
4.204126e+002,0.000000e+000
4.223411e+002,0.000000e+000
4.242697e+002,0.000000e+000
4.261982e+002,0.000000e+000
4.281266e+002,0.000000e+000
4.300551e+002,0.000000e+000
4.319836e+002,0.000000e+000
4.339121e+002,0.000000e+000
4.358406e+002,0.000000e+000
4.377691e+002,0.000000e+000
4.396976e+002,0.000000e+000
4.416261e+002,0.000000e+000
4.435546e+002,0.000000e+000
4.454831e+002,0.000000e+000
4.474116e+002,0.000000e+000
4.493401e+002,0.000000e+000
4.512686e+002,0.000000e+000
4.531971e+002,0.000000e+000
4.551256e+002,0.000000e+000
4.570541e+002,0.000000e+000
4.589826e+002,0.000000e+000
4.609111e+002,0.000000e+000
4.628396e+002,0.000000e+000
4.647681e+002,0.000000e+000
4.666966e+002,0.000000e+000
4.686251e+002,0.000000e+000
4.705536e+002,0.000000e+000
4.724821e+002,0.000000e+000
4.744106e+002,0.000000e+000
4.763391e+002,0.000000e+000
4.782676e+002,0.000000e+000
4.801961e+002,0.000000e+000
4.821246e+002,0.000000e+000
4.840531e+002,0.000000e+000
4.859816e+002,0.000000e+000
4.879101e+002,0.000000e+000
4.898386e+002,0.000000e+000
4.917671e+002,0.000000e+000
4.936956e+002,0.000000e+000
4.956241e+002,0.000000e+000
4.975526e+002,0.000000e+000
4.994811e+002,0.000000e+000
5.014096e+002,0.000000e+000
5.033381e+002,0.000000e+000
5.052666e+002,0.000000e+000
5.071951e+002,0.000000e+000
5.091236e+002,0.000000e+000
5.110521e+002,0.000000e+000
5.129806e+002,0.000000e+000
5.149091e+002,0.000000e+000
5.168376e+002,0.000000e+000
5.187661e+002,0.000000e+000
5.206946e+002,0.000000e+000
5.226230e+002,0.000000e+000
5.245516e+002,-2.263160e-005
5.264800e+002,-2.144952e-004
5.284086e+002,-2.611843e-004
5.303370e+002,-1.647393e-004
5.322656e+002,-5.001994e-005
5.341940e+002,-2.105944e-004
5.361226e+002,-1.748838e-004
5.380510e+002,5.715527e-006
5.399796e+002,8.113682e-005
5.419081e+002,2.243556e-006
5.438365e+002,-9.929016e-005
5.457650e+002,-2.303841e-004
5.476935e+002,-2.280353e-004
5.496221e+002,-2.826899e-004
5.515505e+002,-2.180063e-004
5.534790e+002,-8.557085e-005
5.554075e+002,-5.311705e-005
5.573361e+002,-7.366110e-005
5.592645e+002,4.368462e-005
5.611931e+002,-5.859882e-005
5.631215e+002,-1.820521e-004
5.650500e+002,-3.004065e-004
5.669785e+002,-2.916418e-004
5.689070e+002,-2.292600e-004
5.708355e+002,-1.493068e-004
5.727640e+002,-7.200055e-005
5.746925e+002,-5.489029e-005
5.766210e+002,-1.415219e-004
5.785495e+002,-2.587419e-004
5.804780e+002,-3.005257e-004
5.824065e+002,-2.745828e-004
5.843350e+002,-2.897764e-004
5.862635e+002,-2.331808e-004
5.881920e+002,-2.001300e-004
5.901205e+002,-1.545493e-004
5.920490e+002,-1.895772e-004
5.939775e+002,-9.744521e-005
5.959060e+002,-7.800758e-006
5.978345e+002,-9.000301e-006
5.997630e+002,-1.120465e-004
6.016915e+002,1.534820e-005
6.036200e+002,8.409843e-007
6.055485e+002,1.023430e-005
6.074770e+002,1.165383e-004
6.094055e+002,1.761764e-004
6.113340e+002,4.729535e-005
6.132625e+002,-9.728316e-005
6.151910e+002,-2.584308e-004
6.171195e+002,-3.023399e-004
6.190480e+002,-2.865093e-004
6.209765e+002,-1.709219e-004
6.229050e+002,-3.149454e-005
6.248335e+002,4.500989e-005
6.267620e+002,6.760936e-005
6.286905e+002,3.563333e-005
6.306190e+002,-3.186148e-005
6.325475e+002,8.802675e-005
6.344760e+002,7.743202e-005
6.364045e+002,1.204778e-004
6.383330e+002,2.003703e-004
6.402615e+002,2.823370e-004
6.421899e+002,3.095688e-004
6.441185e+002,3.605671e-004
6.460470e+002,4.257513e-004
6.479755e+002,5.145129e-004
6.499039e+002,4.422944e-004
6.518325e+002,3.754860e-004
6.537610e+002,4.263986e-004
6.556895e+002,5.636569e-004
6.576179e+002,5.547283e-004
6.595464e+002,6.354703e-004
6.614750e+002,6.533479e-004
6.634034e+002,6.604642e-004
6.653319e+002,6.201575e-004
6.672604e+002,6.820541e-004
6.691890e+002,8.219751e-004
6.711174e+002,9.730924e-004
6.730460e+002,9.943042e-004
6.749745e+002,1.119544e-003
6.769030e+002,1.182015e-003
6.788314e+002,1.319690e-003
6.807599e+002,1.491922e-003
6.826885e+002,1.626280e-003
6.846169e+002,1.637981e-003
6.865454e+002,1.780678e-003
6.884739e+002,2.076279e-003
6.904025e+002,2.443538e-003
6.923309e+002,2.693700e-003
6.942594e+002,3.130237e-003
6.961879e+002,3.676653e-003
6.981165e+002,4.425368e-003
7.000449e+002,5.284416e-003
7.019734e+002,6.392602e-003
7.039019e+002,7.873030e-003
7.058304e+002,1.012822e-002
7.077589e+002,1.324503e-002
7.096874e+002,1.786746e-002
7.116159e+002,2.570355e-002
7.135444e+002,4.128505e-002
7.154729e+002,6.755660e-002
7.174014e+002,9.719218e-002
7.193299e+002,1.073129e-001
7.212584e+002,8.270402e-002
7.231869e+002,5.731705e-002
7.251154e+002,4.837761e-002
7.270439e+002,5.315199e-002
7.289724e+002,6.658403e-002
7.309009e+002,6.072051e-002
7.328294e+002,3.483517e-002
7.347579e+002,1.854910e-002
7.366864e+002,1.264418e-002
7.386149e+002,9.954737e-003
7.405434e+002,8.330834e-003
7.424719e+002,7.346515e-003
7.444004e+002,6.549024e-003
7.463289e+002,5.960526e-003
7.482574e+002,5.468435e-003
7.501859e+002,5.097792e-003
7.521144e+002,4.779577e-003
7.540428e+002,4.559388e-003
7.559714e+002,4.291188e-003
7.578999e+002,4.099650e-003
7.598284e+002,3.917713e-003
7.617568e+002,3.806055e-003
7.636854e+002,3.805454e-003
7.656139e+002,3.826437e-003
7.675424e+002,3.728352e-003
7.694709e+002,3.616334e-003
7.713994e+002,3.536746e-003
7.733279e+002,3.489066e-003
7.752563e+002,3.381655e-003
7.771849e+002,3.203036e-003
7.791134e+002,3.130232e-003
7.810419e+002,3.071458e-003
7.829703e+002,2.941849e-003
7.848989e+002,2.770605e-003
7.868274e+002,2.658577e-003
7.887559e+002,2.604811e-003
7.906843e+002,2.621881e-003
7.926129e+002,2.577606e-003
7.945414e+002,2.500367e-003
7.964698e+002,2.453696e-003
7.983983e+002,2.434964e-003
8.003268e+002,2.397195e-003
8.022554e+002,2.375192e-003
8.041838e+002,2.365364e-003
8.061123e+002,2.306647e-003
8.080408e+002,2.173814e-003
8.099694e+002,2.059706e-003
8.118978e+002,2.006182e-003
8.138263e+002,2.008514e-003
8.157548e+002,2.002372e-003
8.176833e+002,1.994212e-003
8.196118e+002,1.941433e-003
8.215403e+002,1.934406e-003
8.234689e+002,1.888015e-003
8.253973e+002,1.804197e-003
8.273258e+002,1.814177e-003
8.292543e+002,1.813932e-003
8.311829e+002,1.746116e-003
8.331113e+002,1.750106e-003
8.350398e+002,1.748795e-003
8.369683e+002,1.718166e-003
8.388969e+002,1.745332e-003
8.408253e+002,1.743741e-003
8.427538e+002,1.686823e-003
8.446823e+002,1.735861e-003
8.466108e+002,1.775702e-003
8.485393e+002,1.828700e-003
8.504678e+002,1.772891e-003
8.523963e+002,1.790434e-003
8.543248e+002,1.791707e-003
8.562533e+002,1.826413e-003
8.581818e+002,1.801508e-003
8.601103e+002,1.685399e-003
8.620388e+002,1.674359e-003
8.639673e+002,1.846058e-003
8.658958e+002,1.876120e-003
8.678243e+002,1.855104e-003
8.697528e+002,1.842166e-003
8.716813e+002,1.948882e-003
8.736098e+002,2.008102e-003
8.755383e+002,2.057991e-003
8.774668e+002,2.074772e-003
8.793953e+002,2.205950e-003
8.813238e+002,2.401424e-003
8.832523e+002,2.648443e-003
8.851808e+002,2.888839e-003
8.871093e+002,3.105954e-003
8.890378e+002,3.105002e-003
8.909663e+002,2.975822e-003
8.928948e+002,2.783725e-003
8.948232e+002,2.661521e-003
8.967518e+002,2.552874e-003
8.986803e+002,2.501192e-003
9.006088e+002,2.426888e-003
9.025372e+002,2.471331e-003
9.044658e+002,2.610765e-003
9.063943e+002,2.804725e-003
9.083228e+002,2.942227e-003
9.102512e+002,2.922297e-003
9.121797e+002,2.637066e-003
9.141083e+002,2.451323e-003
9.160367e+002,2.282859e-003
9.179653e+002,2.144400e-003
9.198937e+002,2.113399e-003
9.218223e+002,2.127556e-003
9.237507e+002,2.079482e-003
9.256793e+002,2.074078e-003
9.276077e+002,2.075071e-003
9.295363e+002,2.164362e-003
9.314647e+002,2.253302e-003
9.333932e+002,2.263006e-003
9.353217e+002,2.202216e-003
9.372502e+002,2.244925e-003
9.391787e+002,2.243938e-003
9.411072e+002,2.268874e-003
9.430358e+002,2.249820e-003
9.449642e+002,2.190519e-003
9.468928e+002,2.149877e-003
9.488212e+002,2.182793e-003
9.507498e+002,2.160256e-003
9.526782e+002,2.186578e-003
9.546068e+002,2.271635e-003
9.565352e+002,2.407887e-003
9.584637e+002,2.485531e-003
9.603922e+002,2.601904e-003
9.623207e+002,2.663109e-003
9.642492e+002,2.726741e-003
9.661777e+002,2.759627e-003
9.681062e+002,2.771751e-003
9.700347e+002,2.655755e-003
9.719632e+002,2.600692e-003
9.738917e+002,2.584187e-003
9.758202e+002,2.547286e-003
9.777487e+002,2.461033e-003
9.796772e+002,2.519798e-003
9.816057e+002,2.561443e-003
9.835342e+002,2.606997e-003
9.854627e+002,2.655636e-003
9.873912e+002,2.744905e-003
9.893197e+002,2.852072e-003
9.912482e+002,2.980309e-003
9.931767e+002,2.971948e-003
9.951052e+002,3.002997e-003
9.970337e+002,3.015491e-003
9.989622e+002,3.034999e-003
1.000891e+003,3.047378e-003
1.002819e+003,3.118178e-003
1.004748e+003,3.162656e-003
1.006676e+003,3.206300e-003
1.008605e+003,3.286710e-003
1.010533e+003,3.423512e-003
1.012462e+003,3.508701e-003
1.014390e+003,3.623702e-003
1.016319e+003,3.628779e-003
1.018247e+003,3.681776e-003
1.020176e+003,3.697881e-003
1.022104e+003,3.729642e-003
1.024033e+003,3.712195e-003
1.025961e+003,3.763176e-003
1.027890e+003,3.834012e-003
1.029818e+003,3.886261e-003
1.031747e+003,3.891503e-003
1.033675e+003,3.956880e-003
1.035604e+003,3.972842e-003
1.037532e+003,4.049419e-003
1.039461e+003,4.091004e-003
1.041389e+003,4.161481e-003
1.043318e+003,4.204699e-003
1.045246e+003,4.335501e-003
1.047175e+003,4.411834e-003
1.049103e+003,4.583364e-003
1.051032e+003,4.675326e-003
1.052960e+003,4.702416e-003
1.054889e+003,4.692545e-003
1.056817e+003,4.752628e-003
1.058746e+003,4.840039e-003
1.060674e+003,4.974875e-003
1.062603e+003,5.030693e-003
1.064531e+003,5.106242e-003
1.066460e+003,5.143615e-003
1.068388e+003,5.232748e-003
1.070317e+003,5.275449e-003
1.072245e+003,5.356172e-003
1.074174e+003,5.472955e-003
1.076102e+003,5.693734e-003
1.078031e+003,5.813599e-003
1.079959e+003,5.961313e-003
1.081888e+003,5.968920e-003
1.083816e+003,5.921176e-003
1.085745e+003,5.803664e-003
1.087673e+003,5.748499e-003
1.089602e+003,5.694753e-003
1.091530e+003,5.672874e-003
1.093459e+003,5.545055e-003
1.095387e+003,5.479841e-003
1.097316e+003,5.364480e-003
1.099244e+003,5.267382e-003
1.101173e+003,5.137080e-003
1.103101e+003,5.083913e-003
1.105030e+003,4.936924e-003
1.106958e+003,4.826295e-003
1.108887e+003,4.730974e-003
1.110815e+003,4.665318e-003
1.112744e+003,4.617825e-003
1.114672e+003,4.674830e-003
1.116601e+003,4.653828e-003
1.118529e+003,4.704697e-003
1.120458e+003,4.660010e-003
1.122386e+003,4.629665e-003
1.124315e+003,4.537987e-003
1.126243e+003,4.567147e-003
1.128172e+003,4.584438e-003
1.130100e+003,4.677186e-003
1.132029e+003,4.713464e-003
1.133957e+003,4.796722e-003
1.135885e+003,4.823360e-003
1.137814e+003,4.947183e-003
1.139743e+003,5.057118e-003
1.141671e+003,5.199735e-003
1.143600e+003,5.273060e-003
1.145528e+003,5.450848e-003
1.147457e+003,5.629165e-003
1.149385e+003,5.801748e-003
1.151314e+003,5.982777e-003
1.153242e+003,6.245768e-003
1.155171e+003,6.386347e-003
1.157099e+003,6.529014e-003
1.159028e+003,6.567703e-003
1.160956e+003,6.614332e-003
1.162885e+003,6.581847e-003
1.164813e+003,6.557728e-003
1.166742e+003,6.420308e-003
1.168670e+003,6.267166e-003
1.170599e+003,6.022763e-003
1.172527e+003,5.871334e-003
1.174456e+003,5.760445e-003
1.176384e+003,5.745704e-003
1.178313e+003,5.588200e-003
1.180241e+003,5.379238e-003
1.182170e+003,5.167894e-003
1.184098e+003,5.067619e-003
1.186027e+003,4.955444e-003
1.187955e+003,4.928557e-003
1.189884e+003,4.907852e-003
1.191812e+003,4.929377e-003
1.193740e+003,4.895508e-003
1.195669e+003,4.924695e-003
1.197598e+003,4.926736e-003
1.199526e+003,5.012807e-003
1.201455e+003,5.018760e-003
1.203383e+003,5.080749e-003
1.205312e+003,5.157922e-003
1.207240e+003,5.304368e-003
1.209168e+003,5.387001e-003
1.211097e+003,5.529501e-003
1.213026e+003,5.643223e-003
1.214954e+003,5.826047e-003
1.216883e+003,5.962932e-003
1.218811e+003,6.129497e-003
1.220740e+003,6.239694e-003
1.222668e+003,6.371013e-003
1.224596e+003,6.491956e-003
1.226525e+003,6.674941e-003
1.228453e+003,6.760652e-003
1.230382e+003,6.917126e-003
1.232311e+003,7.040079e-003
1.234239e+003,7.177967e-003
1.236167e+003,7.193847e-003
1.238096e+003,7.240915e-003
1.240025e+003,7.231520e-003
1.241953e+003,7.241584e-003
1.243882e+003,7.131215e-003
1.245810e+003,7.048233e-003
1.247739e+003,6.925204e-003
1.249667e+003,6.874428e-003
1.251595e+003,6.772356e-003
1.253524e+003,6.725400e-003
1.255453e+003,6.675146e-003
1.257381e+003,6.776615e-003
1.259310e+003,6.813685e-003
1.261238e+003,6.864978e-003
1.263167e+003,6.815532e-003
1.265095e+003,6.780170e-003
1.267023e+003,6.704176e-003
1.268952e+003,6.764887e-003
1.270880e+003,6.774426e-003
1.272809e+003,6.815091e-003
1.274738e+003,6.805908e-003
1.276666e+003,6.899398e-003
1.278594e+003,6.935593e-003
1.280523e+003,7.117024e-003
1.282451e+003,7.222086e-003
1.284380e+003,7.457858e-003
1.286308e+003,7.632604e-003
1.288237e+003,7.875292e-003
1.290166e+003,8.111175e-003
1.292094e+003,8.519756e-003
1.294022e+003,8.906214e-003
1.295951e+003,9.335609e-003
1.297879e+003,9.610759e-003
1.299808e+003,9.883292e-003
1.301736e+003,9.974338e-003
1.303665e+003,1.002820e-002
1.305594e+003,9.913135e-003
1.307522e+003,9.820921e-003
1.309450e+003,9.552674e-003
1.311379e+003,9.256320e-003
1.313307e+003,8.777723e-003
1.315236e+003,8.398078e-003
1.317164e+003,7.999517e-003
1.319093e+003,7.669389e-003
1.321021e+003,7.211365e-003
1.322950e+003,6.920502e-003
1.324878e+003,6.662255e-003
1.326807e+003,6.602438e-003
1.328735e+003,6.574666e-003
1.330664e+003,6.720388e-003
1.332592e+003,6.931830e-003
1.334521e+003,7.455535e-003
1.336449e+003,8.066099e-003
1.338378e+003,8.931182e-003
1.340306e+003,9.615460e-003
1.342235e+003,1.012918e-002
1.344163e+003,1.056251e-002
1.346092e+003,1.123787e-002
1.348021e+003,1.189948e-002
1.349949e+003,1.265437e-002
1.351877e+003,1.302411e-002
1.353806e+003,1.309028e-002
1.355734e+003,1.285821e-002
1.357663e+003,1.295641e-002
1.359591e+003,1.329829e-002
1.361520e+003,1.411603e-002
1.363448e+003,1.534799e-002
1.365377e+003,1.659619e-002
1.367305e+003,1.753381e-002
1.369234e+003,1.801762e-002
1.371162e+003,1.776510e-002
1.373091e+003,1.803579e-002
1.375019e+003,2.006701e-002
1.376948e+003,2.175269e-002
1.378876e+003,2.001206e-002
1.380805e+003,1.545520e-002
1.382733e+003,1.104561e-002
1.384662e+003,8.516176e-003
1.386590e+003,7.065920e-003
1.388519e+003,6.382322e-003
1.390447e+003,5.777137e-003
1.392376e+003,5.500482e-003
1.394304e+003,5.234141e-003
1.396233e+003,5.342305e-003
1.398161e+003,5.262498e-003
1.400090e+003,5.458172e-003
1.402018e+003,5.254455e-003
1.403947e+003,5.409168e-003
1.405875e+003,5.504172e-003
1.407804e+003,5.831769e-003
1.409732e+003,5.880697e-003
1.411661e+003,6.233793e-003
1.413589e+003,6.263798e-003
1.415518e+003,6.602392e-003
1.417446e+003,6.766925e-003
1.419375e+003,7.652469e-003
1.421303e+003,7.956045e-003
1.423232e+003,8.961799e-003
1.425160e+003,1.042585e-002
1.427089e+003,1.253184e-002
1.429017e+003,1.502973e-002
1.430946e+003,1.887450e-002
1.432874e+003,2.195936e-002
1.434803e+003,2.498214e-002
1.436731e+003,2.839184e-002
1.438660e+003,3.146453e-002
1.440588e+003,3.314665e-002
1.442517e+003,3.566422e-002
1.444445e+003,3.771927e-002
1.446374e+003,4.064147e-002
1.448302e+003,4.467829e-002
1.450231e+003,5.083276e-002
1.452159e+003,5.967976e-002
1.454088e+003,7.087262e-002
1.456016e+003,8.142491e-002
1.457945e+003,1.037419e-001
1.459873e+003,1.408223e-001
1.461802e+003,1.824436e-001
1.463730e+003,1.908862e-001
1.465659e+003,1.581493e-001
1.467587e+003,1.471757e-001
1.469516e+003,1.475590e-001
1.471444e+003,1.660842e-001
1.473373e+003,1.392393e-001
1.475301e+003,7.500257e-002
1.477230e+003,3.427546e-002
1.479158e+003,2.215562e-002
1.481087e+003,1.600763e-002
1.483015e+003,1.307198e-002
1.484944e+003,1.082944e-002
1.486872e+003,1.014628e-002
1.488801e+003,8.573448e-003
1.490729e+003,8.219171e-003
1.492658e+003,7.014431e-003
1.494586e+003,6.939409e-003
1.496515e+003,6.171934e-003
1.498443e+003,6.331734e-003
1.500372e+003,5.519342e-003
1.502300e+003,5.401667e-003
1.504229e+003,4.728530e-003
1.506157e+003,5.014364e-003
1.508086e+003,4.315842e-003
1.510014e+003,4.710736e-003
1.511943e+003,4.218016e-003
1.513871e+003,4.308192e-003
1.515800e+003,3.862653e-003
1.517728e+003,4.107317e-003
1.519657e+003,3.753856e-003
1.521585e+003,4.247891e-003
1.523514e+003,3.643986e-003
1.525442e+003,3.594039e-003
1.527371e+003,3.385589e-003
1.529299e+003,3.685277e-003
1.531228e+003,3.383417e-003
1.533156e+003,3.641052e-003
1.535085e+003,3.338836e-003
1.537013e+003,3.356833e-003
1.538942e+003,3.110752e-003
1.540870e+003,3.723124e-003
1.542799e+003,3.088953e-003
1.544727e+003,3.264194e-003
1.546656e+003,3.026210e-003
1.548584e+003,3.231289e-003
1.550513e+003,2.895333e-003
1.552441e+003,2.843896e-003
1.554370e+003,2.576003e-003
1.556298e+003,2.742888e-003
1.558227e+003,2.698282e-003
1.560155e+003,2.997451e-003
1.562084e+003,2.405642e-003
1.564012e+003,2.426535e-003
1.565941e+003,2.245875e-003
1.567869e+003,2.226118e-003
1.569798e+003,2.103649e-003
1.571726e+003,2.215913e-003
1.573655e+003,1.979683e-003
1.575583e+003,2.158470e-003
1.577512e+003,2.212824e-003
1.579440e+003,2.221469e-003
1.581369e+003,2.038505e-003
1.583297e+003,2.110720e-003
1.585226e+003,2.050197e-003
1.587154e+003,2.148559e-003
1.589083e+003,2.084650e-003
1.591011e+003,2.143895e-003
1.592940e+003,2.071248e-003
1.594868e+003,2.193391e-003
1.596797e+003,2.102748e-003
1.598725e+003,2.086684e-003
1.600654e+003,1.947226e-003
1.602582e+003,1.959164e-003
1.604511e+003,1.914212e-003
1.606439e+003,2.091944e-003
1.608368e+003,2.020193e-003
1.610296e+003,2.027877e-003
1.612225e+003,1.892997e-003
1.614153e+003,1.925338e-003
1.616082e+003,2.134571e-003
1.618010e+003,2.322396e-003
1.619939e+003,1.923012e-003
1.621867e+003,1.964742e-003
1.623796e+003,2.225874e-003
1.625724e+003,2.344744e-003
1.627653e+003,2.169130e-003
1.629581e+003,2.208862e-003
1.631510e+003,2.073819e-003
1.633438e+003,2.098598e-003
1.635367e+003,2.258120e-003
1.637295e+003,2.594000e-003
1.639224e+003,2.446989e-003
1.641152e+003,2.465829e-003
1.643081e+003,2.454475e-003
1.645009e+003,2.485715e-003
1.646938e+003,2.368873e-003
1.648866e+003,2.305530e-003
1.650795e+003,2.023093e-003
1.652723e+003,2.329482e-003
1.654652e+003,2.382118e-003
1.656580e+003,2.158158e-003
1.658509e+003,1.969878e-003
1.660437e+003,2.006218e-003
1.662366e+003,1.929155e-003
1.664294e+003,1.966754e-003
1.666223e+003,1.787398e-003
1.668151e+003,1.808425e-003
1.670080e+003,1.781344e-003
1.672008e+003,1.824602e-003
1.673937e+003,1.821233e-003
1.675865e+003,1.909729e-003
1.677794e+003,1.678126e-003
1.679722e+003,1.604166e-003
1.681651e+003,1.261262e-003
1.683579e+003,1.422111e-003
1.685508e+003,1.557274e-003
1.687436e+003,1.551190e-003
1.689365e+003,1.363989e-003
1.691293e+003,1.201222e-003
1.693222e+003,9.244774e-004
1.695150e+003,1.089320e-003
1.697079e+003,1.177998e-003
1.699007e+003,1.198977e-003
1.700936e+003,1.145117e-003
1.702864e+003,1.451576e-003
1.704793e+003,1.462787e-003
1.706721e+003,1.741093e-003
1.708650e+003,1.808075e-003
1.710578e+003,2.031745e-003
1.712507e+003,2.215018e-003
1.714435e+003,2.399785e-003
1.716364e+003,2.427988e-003
1.718292e+003,3.189566e-003
1.720221e+003,3.419228e-003
1.722149e+003,3.430448e-003
1.724078e+003,3.205499e-003
1.726006e+003,2.875550e-003
1.727935e+003,2.663033e-003
1.729863e+003,2.860617e-003
1.731792e+003,3.004765e-003
1.733720e+003,3.583511e-003
1.735649e+003,3.744107e-003
1.737577e+003,3.924120e-003
1.739506e+003,4.432956e-003
1.741434e+003,5.240528e-003
1.743363e+003,5.727779e-003
1.745291e+003,6.205423e-003
1.747220e+003,6.350379e-003
1.749148e+003,6.265257e-003
1.751077e+003,5.699404e-003
1.753005e+003,4.697148e-003
1.754934e+003,3.799872e-003
1.756862e+003,2.920548e-003
1.758791e+003,1.975289e-003
1.760719e+003,1.554482e-003
1.762648e+003,1.080414e-003
1.764576e+003,6.812848e-004
1.766505e+003,3.202017e-004
1.768433e+003,2.228972e-004
1.770362e+003,2.191979e-004
1.772290e+003,4.222617e-004
1.774219e+003,1.572892e-004
1.776147e+003,-1.441166e-004
1.778076e+003,-3.311448e-004
1.780004e+003,-1.346413e-004
1.781933e+003,-1.710802e-004
1.783861e+003,-7.495284e-005
1.785790e+003,-1.491960e-004
1.787718e+003,-1.676995e-004
1.789646e+003,-2.838392e-004
1.791575e+003,-1.870859e-004
1.793504e+003,-2.066866e-004
1.795432e+003,-1.481194e-004
1.797361e+003,-2.805516e-004
1.799289e+003,-2.378877e-004
1.801218e+003,-3.062263e-004
1.803146e+003,-2.401713e-004
1.805074e+003,-2.717283e-004
1.807003e+003,-2.691410e-004
1.808932e+003,-4.577637e-004
1.810860e+003,-5.219672e-004
1.812789e+003,-6.522778e-004
1.814717e+003,-7.456690e-004
1.816646e+003,-9.203572e-004
1.818574e+003,-5.253423e-004
1.820502e+003,-3.470574e-004
1.822431e+003,-2.794042e-004
1.824360e+003,-4.756469e-004
1.826288e+003,-6.174948e-004
1.828217e+003,-8.069072e-004
1.830145e+003,-6.367154e-004
1.832073e+003,-7.158108e-004
1.834002e+003,-7.755887e-004
1.835931e+003,-8.851662e-004
1.837859e+003,-8.478649e-004
1.839788e+003,-1.022229e-003
1.841716e+003,-9.202082e-004
1.843645e+003,-9.425655e-004
1.845573e+003,-9.426158e-004
1.847501e+003,-1.069656e-003
1.849430e+003,-1.022901e-003
1.851359e+003,-1.202501e-003
1.853287e+003,-1.026925e-003
1.855216e+003,-9.846631e-004
1.857144e+003,-8.531399e-004
1.859073e+003,-9.202454e-004
1.861001e+003,-8.605830e-004
1.862929e+003,-9.740647e-004
1.864858e+003,-7.087644e-004
1.866787e+003,-6.324891e-004
1.868715e+003,-3.393907e-004
1.870644e+003,-6.419774e-004
1.872572e+003,-7.623732e-004
1.874500e+003,-8.399375e-004
1.876429e+003,-7.824618e-004
1.878357e+003,-9.560995e-004
1.880286e+003,-8.119363e-004
1.882215e+003,-9.796210e-004
1.884143e+003,-8.802768e-004
1.886072e+003,-9.122454e-004
1.888000e+003,-5.296469e-004
1.889928e+003,-3.916472e-004
1.891857e+003,-1.230575e-004
1.893785e+003,-1.191422e-004
1.895714e+003,8.524209e-005
1.897643e+003,8.206442e-005
1.899571e+003,1.363270e-005
1.901500e+003,1.421943e-005
1.903428e+003,1.480617e-005
1.905356e+003,1.538359e-005
1.907285e+003,1.595728e-005
1.909213e+003,1.652353e-005
1.911142e+003,1.708791e-005
1.913071e+003,1.764484e-005
1.914999e+003,1.819804e-005
1.916927e+003,1.874380e-005
1.918856e+003,1.928769e-005
1.920784e+003,1.982599e-005
1.922713e+003,2.035685e-005
1.924641e+003,2.088211e-005
1.926570e+003,2.140366e-005
1.928499e+003,2.192333e-005
1.930427e+003,2.243370e-005
1.932355e+003,2.293848e-005
1.934284e+003,2.344139e-005
1.936212e+003,2.393685e-005
1.938141e+003,2.442673e-005
1.940070e+003,2.491288e-005
1.941998e+003,2.539344e-005
1.943927e+003,2.587028e-005
1.945855e+003,2.633780e-005
1.947783e+003,2.680533e-005
1.949712e+003,2.726540e-005
1.951640e+003,2.771989e-005
1.953569e+003,2.816692e-005
1.955498e+003,2.861395e-005
1.957426e+003,2.905354e-005
1.959354e+003,2.948567e-005
1.961283e+003,2.991594e-005
1.963211e+003,3.034063e-005
1.965140e+003,3.076158e-005
1.967068e+003,3.117323e-005
1.968997e+003,3.157742e-005
1.970926e+003,3.198348e-005
1.972854e+003,3.238022e-005
1.974782e+003,3.277510e-005
1.976711e+003,3.316253e-005
1.978639e+003,3.354624e-005
1.980568e+003,3.392249e-005
1.982496e+003,3.429502e-005
1.984425e+003,3.466383e-005
1.986354e+003,3.502518e-005
1.988282e+003,3.538094e-005
1.990210e+003,3.573485e-005
1.992139e+003,3.608316e-005
1.994067e+003,3.642216e-005
1.995996e+003,3.675744e-005
1.997924e+003,3.708899e-005
1.999853e+003,3.741868e-005
2.001781e+003,3.773719e-005
2.003710e+003,3.805384e-005
2.005638e+003,3.836490e-005
2.007567e+003,3.867038e-005
2.009495e+003,3.897026e-005
2.011424e+003,3.926456e-005
2.013352e+003,3.955700e-005
2.015281e+003,3.984012e-005
2.017209e+003,4.011951e-005
2.019138e+003,4.039519e-005
2.021066e+003,4.066527e-005
2.022995e+003,4.092790e-005
2.024923e+003,4.118681e-005
2.026852e+003,4.144199e-005
2.028781e+003,4.169159e-005
2.030709e+003,4.193559e-005
2.032637e+003,4.217401e-005
2.034566e+003,4.240498e-005
2.036494e+003,4.263595e-005
2.038423e+003,4.285946e-005
2.040351e+003,4.307553e-005
2.042280e+003,4.329160e-005
2.044208e+003,4.349835e-005
2.046137e+003,4.370138e-005
2.048065e+003,4.389882e-005
2.049994e+003,4.408881e-005
2.051922e+003,4.427694e-005
2.053851e+003,4.446134e-005
2.055779e+003,4.463643e-005
2.057708e+003,4.480593e-005
2.059636e+003,4.497543e-005
2.061565e+003,4.513562e-005
2.063493e+003,4.529394e-005
2.065422e+003,4.544295e-005
2.067350e+003,4.558638e-005
2.069279e+003,4.573166e-005
2.071207e+003,4.586764e-005
2.073136e+003,4.599616e-005
2.075064e+003,4.612468e-005
2.076993e+003,4.624203e-005
2.078921e+003,4.635751e-005
2.080850e+003,4.646741e-005
2.082778e+003,4.656985e-005
2.084707e+003,4.667230e-005
2.086635e+003,4.676729e-005
2.088564e+003,4.685670e-005
2.090492e+003,4.694052e-005
2.092421e+003,4.702061e-005
2.094349e+003,4.709139e-005
2.096278e+003,4.716031e-005
2.098206e+003,4.722551e-005
2.100135e+003,4.728511e-005
2.102063e+003,4.733726e-005
2.103992e+003,4.738756e-005
2.105920e+003,4.742853e-005
2.107849e+003,4.746579e-005
2.109777e+003,4.750118e-005
2.111706e+003,4.752539e-005
2.113634e+003,4.754961e-005
2.115563e+003,4.756823e-005
2.117491e+003,4.757941e-005
2.119420e+003,4.758500e-005
2.121348e+003,4.758872e-005
2.123277e+003,4.758500e-005
2.125205e+003,4.757382e-005
2.127134e+003,4.756078e-005
2.129062e+003,4.754588e-005
2.130991e+003,4.752167e-005
2.132919e+003,4.749373e-005
2.134848e+003,4.745647e-005
2.136776e+003,4.741922e-005
2.138705e+003,4.737265e-005
2.140633e+003,4.732050e-005
2.142562e+003,4.727021e-005
2.144490e+003,4.721060e-005
2.146419e+003,4.714541e-005
2.148347e+003,4.707649e-005
2.150276e+003,4.700013e-005
2.152204e+003,4.691817e-005
2.154133e+003,4.683249e-005
2.156061e+003,4.674494e-005
2.157990e+003,4.664809e-005
2.159918e+003,4.654564e-005
2.161847e+003,4.644133e-005
2.163775e+003,4.632957e-005
2.165704e+003,4.620850e-005
2.167632e+003,4.608929e-005
2.169561e+003,4.596077e-005
2.171489e+003,4.583038e-005
2.173418e+003,4.569627e-005
2.175346e+003,4.555471e-005
2.177275e+003,4.540756e-005
2.179203e+003,4.525296e-005
2.181132e+003,4.509836e-005
2.183060e+003,4.493073e-005
2.184989e+003,4.476123e-005
2.186917e+003,4.459172e-005
2.188846e+003,4.441291e-005
2.190774e+003,4.423037e-005
2.192703e+003,4.404038e-005
2.194631e+003,4.384480e-005
2.196560e+003,4.364736e-005
2.198488e+003,4.344247e-005
2.200417e+003,4.323758e-005
2.202345e+003,4.302152e-005
2.204274e+003,4.280359e-005
2.206202e+003,4.257821e-005
2.208131e+003,4.234724e-005
2.210059e+003,4.210882e-005
2.211988e+003,4.187226e-005
2.213916e+003,4.162453e-005
2.215845e+003,4.137307e-005
2.217773e+003,4.112162e-005
2.219702e+003,4.086271e-005
2.221630e+003,4.059635e-005
2.223559e+003,4.032440e-005
2.225487e+003,4.004873e-005
2.227416e+003,3.976747e-005
2.229344e+003,3.948063e-005
2.231273e+003,3.919192e-005
2.233201e+003,3.889576e-005
2.235130e+003,3.859214e-005
2.237058e+003,3.828481e-005
2.238987e+003,3.797188e-005
2.240915e+003,3.765337e-005
2.242844e+003,3.733113e-005
2.244772e+003,3.700703e-005
2.246701e+003,3.667548e-005
2.248629e+003,3.633462e-005
2.250558e+003,3.599562e-005
2.252486e+003,3.564544e-005
2.254415e+003,3.528967e-005
2.256343e+003,3.493205e-005
2.258272e+003,3.456697e-005
2.260200e+003,3.420003e-005
2.262129e+003,3.382750e-005
2.264057e+003,3.344938e-005
2.265986e+003,3.306568e-005
2.267914e+003,3.267266e-005
2.269843e+003,3.227964e-005
2.271771e+003,3.187917e-005
2.273700e+003,3.147498e-005
2.275628e+003,3.106706e-005
2.277557e+003,3.065355e-005
2.279485e+003,3.023259e-005
2.281414e+003,2.980605e-005
2.283342e+003,2.937391e-005
2.285271e+003,2.893992e-005
2.287199e+003,2.849847e-005
2.289128e+003,2.805330e-005
2.291056e+003,2.760440e-005
2.292985e+003,2.714805e-005
2.294913e+003,2.668239e-005
2.296842e+003,2.621859e-005
2.298770e+003,2.574548e-005
2.300699e+003,2.526864e-005
2.302627e+003,2.479181e-005
2.304556e+003,2.430193e-005
2.306484e+003,2.381206e-005
2.308413e+003,2.331100e-005
2.310341e+003,2.280809e-005
2.312270e+003,2.230331e-005
2.314198e+003,2.178922e-005
2.316127e+003,2.126954e-005
2.318055e+003,2.074614e-005
2.319984e+003,2.022274e-005
2.321912e+003,1.968816e-005
2.323841e+003,1.914985e-005
2.325769e+003,1.860410e-005
2.327698e+003,1.805648e-005
2.329626e+003,1.750141e-005
2.331555e+003,1.694262e-005
2.333483e+003,1.638010e-005
2.335412e+003,1.581199e-005
2.337340e+003,1.523644e-005
2.339269e+003,1.465529e-005
2.341197e+003,1.406856e-005
2.343126e+003,1.347996e-005
2.345054e+003,1.288392e-005
2.346983e+003,1.228601e-005
2.348911e+003,1.168251e-005
2.350840e+003,1.107156e-005
2.352768e+003,1.045503e-005
2.354697e+003,9.831041e-006
2.356625e+003,9.207055e-006
2.358554e+003,8.575618e-006
2.360482e+003,7.938594e-006
2.362411e+003,7.299706e-006
2.364339e+003,6.653368e-006
2.366268e+003,6.001443e-006
2.368196e+003,5.342066e-006
2.370125e+003,4.678965e-006
2.372053e+003,4.014000e-006
2.373982e+003,3.339723e-006
2.375910e+003,2.663583e-006
2.377839e+003,1.983717e-006
2.379767e+003,1.294538e-006
2.381696e+003,6.016344e-007
2.383624e+003,-9.872019e-008
2.385553e+003,-8.009374e-007
2.387481e+003,-1.508743e-006
2.389410e+003,-2.222136e-006
2.391338e+003,-2.935529e-006
2.393267e+003,-3.661960e-006
2.395195e+003,-4.393980e-006
2.397124e+003,-5.127862e-006
2.399052e+003,-5.867332e-006
2.400981e+003,5.825236e-005
2.402909e+003,-2.105162e-005
2.404838e+003,1.414884e-004
2.406766e+003,4.838891e-004
2.408695e+003,6.702542e-004
2.410623e+003,5.719699e-004
2.412552e+003,4.614461e-004
2.414480e+003,4.779100e-004
2.416409e+003,5.428344e-004
2.418337e+003,4.148688e-004
2.420266e+003,4.307479e-004
2.422194e+003,4.301388e-004
2.424123e+003,5.063657e-004
2.426051e+003,5.445071e-004
2.427979e+003,4.794970e-004
2.429908e+003,3.704764e-004
2.431837e+003,5.306955e-004
2.433765e+003,5.494691e-004
2.435694e+003,5.157012e-004
2.437622e+003,4.941765e-004
2.439551e+003,5.971175e-004
2.441479e+003,6.042477e-004
2.443407e+003,6.527901e-004
2.445336e+003,5.710106e-004
2.447265e+003,5.843006e-004
2.449193e+003,5.758125e-004
2.451122e+003,6.189477e-004
2.453050e+003,7.090829e-004
2.454979e+003,7.457770e-004
2.456907e+003,6.566178e-004
2.458836e+003,7.229988e-004
2.460764e+003,7.616244e-004
2.462693e+003,6.922353e-004
2.464621e+003,4.520062e-004
2.466550e+003,4.062448e-004
2.468478e+003,6.235447e-004
2.470406e+003,8.611903e-004
2.472335e+003,1.039889e-003
2.474264e+003,1.116090e-003
2.476192e+003,1.021968e-003
2.478121e+003,1.080098e-003
2.480049e+003,1.069030e-003
2.481978e+003,1.068097e-003
2.483906e+003,1.059454e-003
2.485835e+003,1.135923e-003
2.487763e+003,1.199434e-003
2.489692e+003,1.249038e-003
2.491620e+003,1.341555e-003
2.493549e+003,1.406735e-003
2.495477e+003,1.376230e-003
2.497406e+003,1.363991e-003
2.499334e+003,1.461565e-003
2.501263e+003,1.533605e-003
2.503191e+003,1.434578e-003
2.505120e+003,1.564307e-003
2.507048e+003,1.614766e-003
2.508977e+003,1.647914e-003
2.510905e+003,1.661750e-003
2.512833e+003,1.775172e-003
2.514762e+003,1.873577e-003
2.516691e+003,2.018783e-003
2.518619e+003,2.109453e-003
2.520548e+003,2.303630e-003
2.522476e+003,2.313692e-003
2.524405e+003,2.427997e-003
2.526333e+003,2.619715e-003
2.528261e+003,2.724167e-003
2.530190e+003,2.681328e-003
2.532119e+003,2.676386e-003
2.534047e+003,2.630753e-003
2.535976e+003,2.624713e-003
2.537904e+003,2.607390e-003
2.539833e+003,2.682429e-003
2.541761e+003,2.894260e-003
2.543689e+003,3.282046e-003
2.545618e+003,3.404174e-003
2.547547e+003,3.489127e-003
2.549475e+003,3.519744e-003
2.551404e+003,3.534697e-003
2.553332e+003,3.589993e-003
2.555260e+003,3.727576e-003
2.557189e+003,3.709739e-003
2.559117e+003,3.742360e-003
2.561046e+003,3.881413e-003
2.562975e+003,4.075039e-003
2.564903e+003,3.992463e-003
2.566832e+003,4.070841e-003
2.568760e+003,4.307054e-003
2.570688e+003,4.311576e-003
2.572617e+003,4.456639e-003
2.574546e+003,4.736647e-003
2.576474e+003,4.906274e-003
2.578403e+003,5.106714e-003
2.580331e+003,5.298201e-003
2.582260e+003,5.374957e-003
2.584188e+003,5.463157e-003
2.586116e+003,5.677696e-003
2.588045e+003,5.991798e-003
2.589974e+003,6.149087e-003
2.591902e+003,6.236110e-003
2.593831e+003,6.504156e-003
2.595759e+003,6.666668e-003
2.597688e+003,6.840836e-003
2.599616e+003,7.057000e-003
2.601544e+003,7.273596e-003
2.603473e+003,7.407226e-003
2.605402e+003,7.671919e-003
2.607330e+003,7.965416e-003
2.609259e+003,8.271135e-003
2.611187e+003,8.560259e-003
2.613115e+003,8.904606e-003
2.615044e+003,9.186760e-003
2.616972e+003,9.455536e-003
2.618901e+003,9.848446e-003
2.620830e+003,1.027422e-002
2.622758e+003,1.055199e-002
2.624687e+003,1.096080e-002
2.626615e+003,1.147983e-002
2.628543e+003,1.188063e-002
2.630472e+003,1.213590e-002
2.632400e+003,1.252418e-002
2.634329e+003,1.278847e-002
2.636258e+003,1.290910e-002
2.638186e+003,1.296396e-002
2.640115e+003,1.303965e-002
2.642043e+003,1.307627e-002
2.643971e+003,1.302835e-002
2.645900e+003,1.299686e-002
2.647828e+003,1.301495e-002
2.649757e+003,1.313416e-002
2.651686e+003,1.330124e-002
2.653614e+003,1.336830e-002
2.655542e+003,1.348902e-002
2.657471e+003,1.356793e-002
2.659399e+003,1.357642e-002
2.661328e+003,1.353307e-002
2.663256e+003,1.338780e-002
2.665185e+003,1.320953e-002
2.667114e+003,1.307900e-002
2.669042e+003,1.295904e-002
2.670970e+003,1.285170e-002
2.672899e+003,1.269953e-002
2.674827e+003,1.257728e-002
2.676756e+003,1.246546e-002
2.678685e+003,1.229535e-002
2.680613e+003,1.213913e-002
2.682542e+003,1.204966e-002
2.684470e+003,1.193361e-002
2.686398e+003,1.178661e-002
2.688327e+003,1.163958e-002
2.690255e+003,1.151494e-002
2.692184e+003,1.147063e-002
2.694113e+003,1.143496e-002
2.696041e+003,1.132677e-002
2.697969e+003,1.136037e-002
2.699898e+003,1.141537e-002
2.701826e+003,1.149461e-002
2.703755e+003,1.163976e-002
2.705683e+003,1.182608e-002
2.707612e+003,1.202248e-002
2.709541e+003,1.223765e-002
2.711469e+003,1.239973e-002
2.713397e+003,1.265458e-002
2.715326e+003,1.289298e-002
2.717254e+003,1.302145e-002
2.719183e+003,1.317784e-002
2.721111e+003,1.338116e-002
2.723040e+003,1.368383e-002
2.724969e+003,1.412305e-002
2.726897e+003,1.448280e-002
2.728825e+003,1.469154e-002
2.730754e+003,1.480841e-002
2.732682e+003,1.499053e-002
2.734611e+003,1.513901e-002
2.736539e+003,1.524011e-002
2.738468e+003,1.531495e-002
2.740396e+003,1.545413e-002
2.742325e+003,1.548763e-002
2.744253e+003,1.546981e-002
2.746182e+003,1.544759e-002
2.748110e+003,1.535256e-002
2.750039e+003,1.531348e-002
2.751967e+003,1.540439e-002
2.753896e+003,1.554856e-002
2.755824e+003,1.578696e-002
2.757753e+003,1.614566e-002
2.759681e+003,1.651390e-002
2.761610e+003,1.689992e-002
2.763538e+003,1.726901e-002
2.765467e+003,1.761172e-002
2.767395e+003,1.806346e-002
2.769324e+003,1.869110e-002
2.771252e+003,1.932739e-002
2.773181e+003,1.998717e-002
2.775109e+003,2.085670e-002
2.777038e+003,2.174538e-002
2.778966e+003,2.265135e-002
2.780895e+003,2.365665e-002
2.782823e+003,2.480536e-002
2.784752e+003,2.608762e-002
2.786680e+003,2.749459e-002
2.788609e+003,2.898277e-002
2.790537e+003,3.063931e-002
2.792466e+003,3.234225e-002
2.794394e+003,3.404643e-002
2.796323e+003,3.585805e-002
2.798251e+003,3.769385e-002
2.800180e+003,3.964154e-002
2.802108e+003,4.177439e-002
2.804037e+003,4.408889e-002
2.805965e+003,4.661750e-002
2.807894e+003,4.936064e-002
2.809822e+003,5.240974e-002
2.811751e+003,5.578368e-002
2.813679e+003,5.958021e-002
2.815608e+003,6.402363e-002
2.817536e+003,6.909901e-002
2.819465e+003,7.496653e-002
2.821393e+003,8.201224e-002
2.823322e+003,9.061646e-002
2.825250e+003,1.011948e-001
2.827179e+003,1.145634e-001
2.829107e+003,1.318254e-001
2.831036e+003,1.549048e-001
2.832964e+003,1.868232e-001
2.834893e+003,2.320968e-001
2.836821e+003,2.968459e-001
2.838750e+003,3.910449e-001
2.840678e+003,5.305146e-001
2.842607e+003,7.351728e-001
2.844535e+003,1.013882e+000
2.846464e+003,1.298288e+000
2.848392e+003,1.359070e+000
2.850321e+003,1.123229e+000
2.852249e+003,8.380829e-001
2.854178e+003,6.302182e-001
2.856106e+003,4.881408e-001
2.858035e+003,3.874058e-001
2.859963e+003,3.152610e-001
2.861892e+003,2.646573e-001
2.863820e+003,2.307564e-001
2.865749e+003,2.101662e-001
2.867677e+003,2.000689e-001
2.869606e+003,1.971250e-001
2.871534e+003,1.979761e-001
2.873463e+003,2.018168e-001
2.875391e+003,2.101737e-001
2.877320e+003,2.244184e-001
2.879248e+003,2.445833e-001
2.881177e+003,2.697082e-001
2.883105e+003,2.988595e-001
2.885034e+003,3.315847e-001
2.886962e+003,3.674124e-001
2.888891e+003,4.052631e-001
2.890819e+003,4.441497e-001
2.892748e+003,4.832602e-001
2.894676e+003,5.221531e-001
2.896605e+003,5.618069e-001
2.898533e+003,6.038401e-001
2.900462e+003,6.509778e-001
2.902390e+003,7.080195e-001
2.904319e+003,7.815223e-001
2.906247e+003,8.801674e-001
2.908176e+003,1.013964e+000
2.910104e+003,1.187620e+000
2.912033e+003,1.381732e+000
2.913961e+003,1.528615e+000
2.915890e+003,1.538353e+000
2.917818e+003,1.400465e+000
2.919747e+003,1.200946e+000
2.921675e+003,1.010585e+000
2.923604e+003,8.511748e-001
2.925532e+003,7.220045e-001
2.927461e+003,6.156536e-001
2.929389e+003,5.257283e-001
2.931318e+003,4.484704e-001
2.933246e+003,3.818056e-001
2.935175e+003,3.244905e-001
2.937103e+003,2.754972e-001
2.939032e+003,2.335765e-001
2.940960e+003,1.985622e-001
2.942889e+003,1.703156e-001
2.944817e+003,1.485228e-001
2.946746e+003,1.329417e-001
2.948674e+003,1.232208e-001
2.950603e+003,1.178337e-001
2.952531e+003,1.144664e-001
2.954460e+003,1.111477e-001
2.956388e+003,1.069565e-001
2.958317e+003,1.015305e-001
2.960245e+003,9.484589e-002
2.962174e+003,8.713109e-002
2.964102e+003,7.886067e-002
2.966031e+003,7.029228e-002
2.967959e+003,6.196953e-002
2.969888e+003,5.432392e-002
2.971816e+003,4.770282e-002
2.973745e+003,4.209284e-002
2.975673e+003,3.740229e-002
2.977602e+003,3.354045e-002
2.979530e+003,3.036867e-002
2.981459e+003,2.768830e-002
2.983387e+003,2.543779e-002
2.985316e+003,2.358703e-002
2.987244e+003,2.202825e-002
2.989173e+003,2.072216e-002
2.991101e+003,1.963089e-002
2.993030e+003,1.865875e-002
2.994958e+003,1.783668e-002
2.996887e+003,1.708703e-002
2.998815e+003,1.650248e-002
3.000744e+003,1.596880e-002
3.002672e+003,1.544666e-002
3.004601e+003,1.494631e-002
3.006529e+003,1.450292e-002
3.008458e+003,1.402199e-002
3.010386e+003,1.358343e-002
3.012315e+003,1.318220e-002
3.014243e+003,1.275101e-002
3.016172e+003,1.238333e-002
3.018100e+003,1.202681e-002
3.020029e+003,1.161247e-002
3.021957e+003,1.128510e-002
3.023886e+003,1.093941e-002
3.025814e+003,1.068592e-002
3.027743e+003,1.045544e-002
3.029671e+003,1.017911e-002
3.031600e+003,9.913512e-003
3.033528e+003,9.680443e-003
3.035457e+003,9.358097e-003
3.037385e+003,8.978710e-003
3.039314e+003,8.566923e-003
3.041242e+003,8.227341e-003
3.043171e+003,7.926334e-003
3.045099e+003,7.574685e-003
3.047028e+003,7.296626e-003
3.048956e+003,7.083569e-003
3.050885e+003,6.871112e-003
3.052813e+003,6.625250e-003
3.054742e+003,6.296147e-003
3.056670e+003,6.053373e-003
3.058599e+003,6.042421e-003
3.060527e+003,5.929258e-003
3.062456e+003,5.711958e-003
3.064384e+003,5.561013e-003
3.066313e+003,5.430143e-003
3.068241e+003,5.343542e-003
3.070170e+003,5.227827e-003
3.072098e+003,5.074020e-003
3.074027e+003,4.922662e-003
3.075955e+003,4.789963e-003
3.077884e+003,4.635524e-003
3.079812e+003,4.536938e-003
3.081741e+003,4.366565e-003
3.083669e+003,4.304618e-003
3.085598e+003,4.175890e-003
3.087526e+003,3.901862e-003
3.089455e+003,3.620252e-003
3.091383e+003,3.428780e-003
3.093312e+003,3.232554e-003
3.095240e+003,2.991259e-003
3.097169e+003,2.673108e-003
3.099097e+003,2.324469e-003
3.101026e+003,2.102319e-003
3.102954e+003,1.938827e-003
3.104883e+003,1.782246e-003
3.106811e+003,1.647655e-003
3.108740e+003,1.530413e-003
3.110668e+003,1.434468e-003
3.112597e+003,1.332462e-003
3.114525e+003,1.299523e-003
3.116454e+003,1.291320e-003
3.118382e+003,1.130305e-003
3.120311e+003,9.479187e-004
3.122239e+003,8.609854e-004
3.124168e+003,8.836016e-004
3.126096e+003,8.532405e-004
3.128025e+003,7.653274e-004
3.129953e+003,6.990917e-004
3.131882e+003,6.870404e-004
3.133810e+003,7.201843e-004
3.135739e+003,6.705858e-004
3.137667e+003,5.759709e-004
3.139596e+003,5.217195e-004
3.141524e+003,4.945099e-004
3.143453e+003,4.715547e-004
3.145381e+003,5.536936e-004
3.147310e+003,5.496331e-004
3.149238e+003,5.258024e-004
3.151167e+003,5.208515e-004
3.153095e+003,4.897602e-004
3.155024e+003,4.325956e-004
3.156952e+003,3.887117e-004
3.158881e+003,3.520921e-004
3.160809e+003,3.991798e-004
3.162738e+003,3.890507e-004
3.164666e+003,4.204549e-004
3.166594e+003,3.421940e-004
3.168523e+003,3.134161e-004
3.170452e+003,3.531538e-004
3.172380e+003,3.512874e-004
3.174309e+003,2.998337e-004
3.176237e+003,3.197007e-004
3.178166e+003,2.345629e-004
3.180094e+003,1.914129e-004
3.182022e+003,3.258213e-004
3.183951e+003,3.380328e-004
3.185880e+003,2.958253e-004
3.187808e+003,2.860725e-004
3.189737e+003,3.622398e-004
3.191665e+003,3.150590e-004
3.193594e+003,2.126172e-004
3.195522e+003,1.657270e-004
3.197450e+003,1.409203e-004
3.199379e+003,2.729595e-004
3.201308e+003,4.018918e-004
3.203236e+003,3.103130e-004
3.205165e+003,1.705363e-004
3.207093e+003,1.049638e-004
3.209021e+003,4.410744e-006
3.210950e+003,7.507205e-005
3.212878e+003,1.732036e-004
3.214807e+003,1.965910e-004
3.216736e+003,2.619065e-004
3.218664e+003,1.726486e-004
3.220593e+003,1.086481e-004
3.222521e+003,1.262166e-004
3.224449e+003,6.728247e-005
3.226378e+003,2.227724e-006
3.228307e+003,2.878159e-005
3.230235e+003,2.320483e-005
3.232164e+003,-1.490116e-008
3.234092e+003,-1.322478e-005
3.236021e+003,2.286211e-005
3.237949e+003,-2.607703e-006
3.239877e+003,-3.032014e-005
3.241806e+003,9.204075e-005
3.243735e+003,1.721866e-004
3.245663e+003,1.388788e-004
3.247592e+003,7.396564e-005
3.249520e+003,1.328476e-004
3.251448e+003,2.158657e-004
3.253377e+003,2.608225e-004
3.255305e+003,2.338924e-004
3.257234e+003,1.513846e-004
3.259163e+003,1.575835e-004
3.261091e+003,1.587868e-004
3.263020e+003,1.645461e-004
3.264948e+003,2.147406e-004
3.266876e+003,1.998134e-004
3.268805e+003,1.706034e-004
3.270733e+003,1.302026e-004
3.272662e+003,1.607314e-004
3.274591e+003,2.053641e-004
3.276519e+003,2.728440e-004
3.278448e+003,3.335848e-004
3.280376e+003,2.747960e-004
3.282304e+003,1.619905e-004
3.284233e+003,2.558082e-004
3.286161e+003,3.652014e-004
3.288090e+003,2.838559e-004
3.290019e+003,1.912005e-004
3.291947e+003,1.651198e-004
3.293875e+003,1.370981e-004
3.295804e+003,2.189614e-004
3.297732e+003,2.184883e-004
3.299661e+003,1.871772e-004
3.301589e+003,2.283417e-004
3.303518e+003,2.589636e-004
3.305447e+003,2.431720e-004
3.307375e+003,2.275854e-004
3.309303e+003,1.943745e-004
3.311232e+003,1.607798e-004
3.313160e+003,1.190230e-004
3.315089e+003,1.397245e-004
3.317018e+003,1.397394e-004
3.318946e+003,1.808554e-004
3.320875e+003,2.570003e-004
3.322803e+003,2.998076e-004
3.324731e+003,3.752112e-004
3.326660e+003,3.305450e-004
3.328588e+003,2.456382e-004
3.330517e+003,2.457127e-004
3.332446e+003,3.052242e-004
3.334374e+003,3.017969e-004
3.336302e+003,3.323965e-004
3.338231e+003,3.065430e-004
3.340159e+003,2.835169e-004
3.342088e+003,2.712868e-004
3.344016e+003,2.412610e-004
3.345945e+003,2.413094e-004
3.347874e+003,1.870096e-004
3.349802e+003,1.269430e-004
3.351730e+003,1.216643e-004
3.353659e+003,1.574382e-004
3.355587e+003,1.823828e-004
3.357516e+003,1.826249e-004
3.359444e+003,1.854934e-004
3.361373e+003,2.768710e-004
3.363302e+003,3.565401e-004
3.365230e+003,3.073961e-004
3.367158e+003,2.670400e-004
3.369087e+003,2.553761e-004
3.371015e+003,2.096519e-004
3.372944e+003,1.584664e-004
3.374872e+003,3.235117e-004
3.376801e+003,4.192963e-004
3.378729e+003,3.125854e-004
3.380658e+003,2.320483e-004
3.382586e+003,2.140626e-004
3.384515e+003,2.354197e-004
3.386443e+003,2.082847e-004
3.388372e+003,1.078621e-004
3.390300e+003,1.879260e-004
3.392229e+003,2.632216e-004
3.394157e+003,1.734048e-004
3.396086e+003,1.310930e-004
3.398014e+003,7.842109e-005
3.399943e+003,-2.555549e-005
3.401871e+003,-1.488999e-004
3.403800e+003,-1.069941e-004
3.405728e+003,-2.659485e-005
3.407657e+003,-2.582371e-005
3.409585e+003,3.203750e-005
3.411514e+003,-2.730638e-005
3.413442e+003,-1.361929e-004
3.415371e+003,-2.118871e-004
3.417299e+003,-1.047142e-004
3.419228e+003,-5.758926e-005
3.421156e+003,-1.119077e-004
3.423085e+003,-1.057610e-005
3.425013e+003,-2.966076e-005
3.426942e+003,-8.359924e-005
3.428870e+003,-1.379400e-004
3.430799e+003,-1.154877e-004
3.432727e+003,-9.991229e-005
3.434656e+003,-7.249787e-005
3.436584e+003,-3.825128e-005
3.438513e+003,-8.663908e-005
3.440441e+003,-7.595122e-005
3.442370e+003,-1.049265e-004
3.444298e+003,-1.662411e-004
3.446227e+003,-1.232587e-004
3.448155e+003,-1.651347e-004
3.450084e+003,-1.497678e-004
3.452012e+003,-1.603924e-004
3.453941e+003,-1.848117e-004
3.455869e+003,-1.425631e-004
3.457798e+003,-1.297407e-004
3.459726e+003,-3.192313e-004
3.461655e+003,-2.614111e-004
3.463583e+003,-2.368316e-004
3.465512e+003,-3.372468e-004
3.467440e+003,-4.292540e-004
3.469369e+003,-3.918372e-004
3.471297e+003,-4.348680e-004
3.473226e+003,-5.058944e-004
3.475154e+003,-4.933439e-004
3.477083e+003,-5.282052e-004
3.479011e+003,-6.493218e-004
3.480940e+003,-5.828477e-004
3.482868e+003,-4.912429e-004
3.484797e+003,-6.353594e-004
3.486725e+003,-7.076040e-004
3.488654e+003,-5.807206e-004
3.490582e+003,-6.396882e-004
3.492511e+003,-7.111020e-004
3.494439e+003,-6.330945e-004
3.496368e+003,-5.806237e-004
3.498296e+003,-6.052628e-004
3.500225e+003,-6.158501e-004
3.502153e+003,-6.660819e-004
3.504082e+003,-7.511415e-004
3.506010e+003,-7.105470e-004
3.507939e+003,-6.119199e-004
3.509867e+003,-6.909892e-004
3.511796e+003,-7.113591e-004
3.513724e+003,-7.300787e-004
3.515653e+003,-5.866550e-004
3.517581e+003,-4.995540e-004
3.519510e+003,-6.877370e-004
3.521438e+003,-8.357763e-004
3.523367e+003,-7.930063e-004
3.525295e+003,-6.600507e-004
3.527224e+003,-5.491860e-004
3.529152e+003,-6.307140e-004
3.531081e+003,-8.683354e-004
3.533009e+003,-1.076672e-003
3.534938e+003,-9.477623e-004
3.536866e+003,-6.999299e-004
3.538795e+003,-6.997287e-004
3.540723e+003,-8.516163e-004
3.542652e+003,-8.321814e-004
3.544580e+003,-8.241981e-004
3.546509e+003,-7.109083e-004
3.548437e+003,-7.854849e-004
3.550366e+003,-1.036331e-003
3.552294e+003,-1.239117e-003
3.554223e+003,-1.050852e-003
3.556151e+003,-8.217506e-004
3.558080e+003,-6.980188e-004
3.560008e+003,-9.092428e-004
3.561937e+003,-1.230780e-003
3.563865e+003,-1.425561e-003
3.565794e+003,-1.055367e-003
3.567722e+003,-4.874989e-004
3.569651e+003,-7.028617e-004
3.571579e+003,-1.190033e-003
3.573508e+003,-1.430757e-003
3.575436e+003,-1.408186e-003
3.577365e+003,-1.223445e-003
3.579293e+003,-1.041047e-003
3.581222e+003,-9.567030e-004
3.583150e+003,-1.036789e-003
3.585079e+003,-1.087140e-003
3.587007e+003,-5.871616e-004
3.588936e+003,2.440587e-004
3.590864e+003,1.406185e-004
3.592793e+003,-4.273281e-004
3.594721e+003,-5.709045e-004
3.596650e+003,1.873933e-004
3.598578e+003,1.141805e-003
3.600507e+003,1.835790e-003
3.602435e+003,1.763877e-003
3.604364e+003,1.311015e-003
3.606292e+003,9.967498e-004
3.608221e+003,1.508255e-003
3.610149e+003,1.480889e-003
3.612078e+003,7.573701e-004
3.614006e+003,-1.368672e-005
3.615935e+003,-2.922453e-004
3.617863e+003,5.129091e-004
3.619792e+003,1.222339e-003
3.621720e+003,5.188510e-004
3.623649e+003,-1.827329e-004
3.625577e+003,-7.408820e-004
3.627506e+003,-5.691946e-004
3.629434e+003,5.965009e-004
3.631363e+003,4.713312e-004
3.633291e+003,-9.397417e-005
3.635220e+003,-1.201555e-004
3.637148e+003,5.971640e-006
3.639077e+003,2.002865e-004
3.641005e+003,3.887303e-004
3.642934e+003,-1.853034e-004
3.644862e+003,-5.193874e-004
3.646791e+003,-4.987493e-004
3.648719e+003,3.693439e-004
3.650648e+003,1.068722e-003
3.652576e+003,1.076944e-004
3.654505e+003,-6.469265e-004
3.656433e+003,-1.049161e-003
3.658362e+003,-4.658327e-004
3.660290e+003,-1.723394e-004
3.662219e+003,-3.250577e-004
3.664147e+003,-3.987104e-004
3.666076e+003,-6.618239e-004
3.668004e+003,-8.532591e-004
3.669933e+003,-3.955737e-004
3.671861e+003,-8.270033e-004
3.673790e+003,-1.647532e-003
3.675718e+003,-1.932587e-003
3.677647e+003,-9.552166e-004
3.679575e+003,-5.677976e-004
3.681504e+003,-1.523867e-004
3.683432e+003,-5.265884e-004
3.685361e+003,-1.501821e-003
3.687289e+003,-2.207328e-003
3.689218e+003,-1.089845e-003
3.691146e+003,2.374947e-004
3.693075e+003,-2.517067e-004
3.695003e+003,-8.803643e-004
3.696932e+003,-1.158249e-003
3.698860e+003,-1.143109e-003
3.700789e+003,-7.630773e-004
3.702717e+003,-1.103915e-004
3.704646e+003,-1.157857e-004
3.706574e+003,-6.269664e-004
3.708503e+003,-1.098197e-003
3.710431e+003,-1.103606e-003
3.712360e+003,-4.205853e-005
3.714288e+003,6.533414e-005
3.716217e+003,-2.979748e-004
3.718145e+003,-8.767284e-004
3.720074e+003,-1.032591e-003
3.722002e+003,-4.026517e-004
3.723931e+003,3.879070e-004
3.725859e+003,5.946755e-004
3.727788e+003,5.817413e-005
3.729716e+003,-6.478764e-004
3.731645e+003,-1.079965e-003
3.733573e+003,-3.472529e-004
3.735502e+003,-1.071393e-005
3.737430e+003,-5.602464e-005
3.739359e+003,-3.965199e-005
3.741287e+003,-7.571019e-004
3.743216e+003,-1.374569e-003
3.745144e+003,-1.112211e-003
3.747073e+003,-8.136407e-004
3.749001e+003,-1.039352e-003
3.750930e+003,-7.914566e-004
3.752858e+003,-1.062937e-003
3.754787e+003,-9.981319e-004
3.756715e+003,-1.150999e-003
3.758644e+003,-8.174367e-004
3.760572e+003,-5.587563e-004
3.762501e+003,-8.075163e-004
3.764429e+003,-7.051788e-004
3.766358e+003,-5.875751e-004
3.768286e+003,-6.096698e-004
3.770215e+003,-5.034655e-004
3.772143e+003,-1.383871e-004
3.774072e+003,-6.321445e-005
3.776000e+003,-2.732910e-004
3.777929e+003,-2.733767e-004
3.779857e+003,-2.332777e-005
3.781786e+003,-4.110113e-005
3.783714e+003,-1.471750e-004
3.785643e+003,2.159774e-004
3.787571e+003,1.167506e-004
3.789500e+003,2.479926e-005
3.791428e+003,5.649887e-004
3.793357e+003,3.163777e-004
3.795285e+003,3.159270e-004
3.797214e+003,3.185868e-004
3.799142e+003,-2.591833e-004
3.801071e+003,-1.390837e-004
3.802999e+003,2.206825e-004
3.804927e+003,-1.199469e-004
3.806856e+003,7.807836e-005
3.808785e+003,7.762685e-004
3.810713e+003,7.441677e-004
3.812642e+003,2.105758e-004
3.814570e+003,1.259744e-004
3.816499e+003,1.665615e-004
3.818427e+003,-4.478171e-005
3.820355e+003,-2.069212e-004
3.822284e+003,8.161105e-004
3.824213e+003,6.608106e-004
3.826141e+003,3.639571e-004
3.828070e+003,5.002804e-004
3.829998e+003,2.224185e-004
3.831927e+003,3.980286e-004
3.833855e+003,7.982552e-004
3.835783e+003,-2.542324e-004
3.837712e+003,-5.129017e-004
3.839641e+003,3.894269e-004
3.841569e+003,9.682737e-004
3.843498e+003,1.245644e-003
3.845426e+003,9.625629e-004
3.847354e+003,2.648383e-004
3.849283e+003,-3.264174e-004
3.851211e+003,-4.834384e-004
3.853140e+003,1.019478e-003
3.855069e+003,1.792993e-003
3.856997e+003,1.025502e-003
3.858926e+003,4.271939e-004
3.860854e+003,8.537993e-005
3.862782e+003,5.813688e-005
3.864711e+003,5.107783e-004
3.866640e+003,1.301989e-004
3.868568e+003,2.036504e-004
3.870497e+003,5.396456e-004
3.872425e+003,7.852204e-004
3.874354e+003,9.875596e-004
3.876282e+003,9.456910e-004
3.878210e+003,2.359636e-004
3.880139e+003,2.786964e-004
3.882068e+003,5.327985e-004
3.883996e+003,3.540814e-004
3.885925e+003,6.956235e-004
3.887853e+003,7.747784e-004
3.889781e+003,1.643077e-004
3.891710e+003,6.960481e-004
3.893638e+003,1.370884e-003
3.895567e+003,9.907149e-004
3.897496e+003,2.675876e-004
3.899424e+003,-2.772920e-004
3.901353e+003,-1.888238e-004
3.903281e+003,5.566962e-004
3.905209e+003,1.157001e-003
3.907138e+003,9.039454e-004
3.909066e+003,4.772171e-004
3.910995e+003,5.195923e-004
3.912924e+003,5.519949e-004
3.914852e+003,6.047376e-004
3.916781e+003,7.073991e-004
3.918709e+003,7.697754e-004
3.920637e+003,5.466118e-004
3.922566e+003,5.338378e-004
3.924494e+003,5.635247e-004
3.926423e+003,5.570464e-004
3.928352e+003,3.521256e-004
3.930280e+003,3.195144e-004
3.932208e+003,6.563589e-004
3.934137e+003,6.105639e-004
3.936065e+003,5.234741e-004
3.937994e+003,5.454496e-004
3.939922e+003,5.358309e-004
3.941851e+003,5.598478e-004
3.943780e+003,6.794706e-004
3.945708e+003,5.164966e-004
3.947636e+003,3.563389e-004
3.949565e+003,5.215891e-004
3.951493e+003,5.107149e-004
3.953422e+003,4.381575e-004
3.955351e+003,4.266910e-004
3.957279e+003,3.366061e-004
3.959208e+003,3.466904e-004
3.961136e+003,4.156046e-004
3.963064e+003,4.931018e-004
3.964993e+003,5.373843e-004
3.966921e+003,4.771799e-004
3.968850e+003,3.867038e-004
3.970779e+003,4.980788e-004
3.972707e+003,6.459206e-004
3.974635e+003,6.127730e-004
3.976564e+003,5.461946e-004
3.978492e+003,5.683750e-004
3.980421e+003,6.714240e-004
3.982349e+003,6.125234e-004
3.984278e+003,6.532595e-004
3.986207e+003,6.899610e-004
3.988135e+003,6.603859e-004
3.990063e+003,5.922243e-004
3.991992e+003,5.365498e-004
3.993920e+003,4.145578e-004
3.995849e+003,4.100241e-004
3.997777e+003,5.606413e-004
3.999706e+003,6.285347e-004
4.001635e+003,0.000000e+000
