3.991992e+002,0.000000e+000
4.011277e+002,0.000000e+000
4.030562e+002,0.000000e+000
4.049846e+002,0.000000e+000
4.069131e+002,0.000000e+000
4.088416e+002,0.000000e+000
4.107701e+002,0.000000e+000
4.126986e+002,0.000000e+000
4.146271e+002,0.000000e+000
4.165556e+002,0.000000e+000
4.184841e+002,0.000000e+000
4.204126e+002,0.000000e+000
4.223411e+002,0.000000e+000
4.242697e+002,0.000000e+000
4.261982e+002,0.000000e+000
4.281266e+002,0.000000e+000
4.300551e+002,0.000000e+000
4.319836e+002,0.000000e+000
4.339121e+002,0.000000e+000
4.358406e+002,0.000000e+000
4.377691e+002,0.000000e+000
4.396976e+002,0.000000e+000
4.416261e+002,0.000000e+000
4.435546e+002,0.000000e+000
4.454831e+002,0.000000e+000
4.474116e+002,0.000000e+000
4.493401e+002,0.000000e+000
4.512686e+002,0.000000e+000
4.531971e+002,0.000000e+000
4.551256e+002,0.000000e+000
4.570541e+002,0.000000e+000
4.589826e+002,0.000000e+000
4.609111e+002,0.000000e+000
4.628396e+002,0.000000e+000
4.647681e+002,0.000000e+000
4.666966e+002,0.000000e+000
4.686251e+002,0.000000e+000
4.705536e+002,0.000000e+000
4.724821e+002,0.000000e+000
4.744106e+002,0.000000e+000
4.763391e+002,0.000000e+000
4.782676e+002,0.000000e+000
4.801961e+002,0.000000e+000
4.821246e+002,0.000000e+000
4.840531e+002,0.000000e+000
4.859816e+002,0.000000e+000
4.879101e+002,0.000000e+000
4.898386e+002,0.000000e+000
4.917671e+002,0.000000e+000
4.936956e+002,0.000000e+000
4.956241e+002,0.000000e+000
4.975526e+002,0.000000e+000
4.994811e+002,0.000000e+000
5.014096e+002,0.000000e+000
5.033381e+002,0.000000e+000
5.052666e+002,0.000000e+000
5.071951e+002,0.000000e+000
5.091236e+002,0.000000e+000
5.110521e+002,0.000000e+000
5.129806e+002,0.000000e+000
5.149091e+002,0.000000e+000
5.168376e+002,0.000000e+000
5.187661e+002,0.000000e+000
5.206946e+002,0.000000e+000
5.226230e+002,0.000000e+000
5.245516e+002,3.300849e-004
5.264800e+002,3.338950e-004
5.284086e+002,2.863165e-004
5.303370e+002,2.348013e-004
5.322656e+002,1.555849e-004
5.341940e+002,3.087148e-005
5.361226e+002,2.878346e-005
5.380510e+002,4.711095e-005
5.399796e+002,1.167869e-004
5.419081e+002,9.781495e-005
5.438365e+002,1.205364e-004
5.457650e+002,1.452733e-004
5.476935e+002,8.263160e-005
5.496221e+002,8.749776e-006
5.515505e+002,3.842264e-005
5.534790e+002,9.554904e-005
5.554075e+002,2.422985e-004
5.573361e+002,2.588117e-004
5.592645e+002,2.925796e-004
5.611931e+002,1.923535e-004
5.631215e+002,5.633850e-005
5.650500e+002,1.464039e-006
5.669785e+002,2.970826e-005
5.689070e+002,-5.131774e-005
5.708355e+002,-1.016203e-004
5.727640e+002,-1.713550e-004
5.746925e+002,-1.396937e-004
5.766210e+002,-7.058308e-005
5.785495e+002,-6.229710e-005
5.804780e+002,-1.616320e-004
5.824065e+002,-1.746528e-004
5.843350e+002,-1.715245e-004
5.862635e+002,-2.376074e-004
5.881920e+002,-2.056938e-004
5.901205e+002,-1.268927e-004
5.920490e+002,-1.346543e-004
5.939775e+002,-1.162030e-004
5.959060e+002,-1.139827e-004
5.978345e+002,-8.101761e-005
5.997630e+002,-1.120055e-004
6.016915e+002,-2.113823e-004
6.036200e+002,-2.265759e-004
6.055485e+002,-8.937344e-005
6.074770e+002,-1.091119e-004
6.094055e+002,-2.394430e-004
6.113340e+002,-3.305068e-004
6.132625e+002,-3.410038e-004
6.151910e+002,-3.279988e-004
6.171195e+002,-2.467688e-004
6.190480e+002,-2.872385e-004
6.209765e+002,-2.963133e-004
6.229050e+002,-2.413467e-004
6.248335e+002,-1.565404e-004
6.267620e+002,-1.435690e-004
6.286905e+002,-3.777631e-005
6.306190e+002,-3.360771e-005
6.325475e+002,-5.455688e-006
6.344760e+002,7.710606e-005
6.364045e+002,1.046974e-004
6.383330e+002,1.416765e-004
6.402615e+002,1.992341e-004
6.421899e+002,1.673196e-004
6.441185e+002,1.717154e-004
6.460470e+002,1.916550e-004
6.479755e+002,2.881866e-004
6.499039e+002,2.220105e-004
6.518325e+002,2.229437e-004
6.537610e+002,1.744125e-004
6.556895e+002,1.670495e-004
6.576179e+002,2.190843e-004
6.595464e+002,3.456119e-004
6.614750e+002,3.242549e-004
6.634034e+002,3.689490e-004
6.653319e+002,3.743041e-004
6.672604e+002,5.907789e-004
6.691890e+002,5.593672e-004
6.711174e+002,4.756339e-004
6.730460e+002,5.022977e-004
6.749745e+002,6.759893e-004
6.769030e+002,7.328894e-004
6.788314e+002,7.582996e-004
6.807599e+002,9.564199e-004
6.826885e+002,1.187379e-003
6.846169e+002,1.249328e-003
6.865454e+002,1.395058e-003
6.884739e+002,1.540702e-003
6.904025e+002,1.880135e-003
6.923309e+002,2.166497e-003
6.942594e+002,2.578212e-003
6.961879e+002,3.054088e-003
6.981165e+002,3.718769e-003
7.000449e+002,4.580919e-003
7.019734e+002,5.807323e-003
7.039019e+002,7.276399e-003
7.058304e+002,9.362342e-003
7.077589e+002,1.223384e-002
7.096874e+002,1.665816e-002
7.116159e+002,2.385071e-002
7.135444e+002,3.751197e-002
7.154729e+002,6.204239e-002
7.174014e+002,9.444961e-002
7.193299e+002,1.082558e-001
7.212584e+002,8.284699e-002
7.231869e+002,5.631447e-002
7.251154e+002,4.691849e-002
7.270439e+002,5.129916e-002
7.289724e+002,6.454764e-002
7.309009e+002,5.906889e-002
7.328294e+002,3.361669e-002
7.347579e+002,1.757981e-002
7.366864e+002,1.182111e-002
7.386149e+002,9.293761e-003
7.405434e+002,7.760560e-003
7.424719e+002,6.750207e-003
7.444004e+002,5.887706e-003
7.463289e+002,5.294455e-003
7.482574e+002,4.780270e-003
7.501859e+002,4.442781e-003
7.521144e+002,4.135894e-003
7.540428e+002,3.920965e-003
7.559714e+002,3.718961e-003
7.578999e+002,3.554367e-003
7.598284e+002,3.366765e-003
7.617568e+002,3.294807e-003
7.636854e+002,3.218360e-003
7.656139e+002,3.147647e-003
7.675424e+002,3.105935e-003
7.694709e+002,3.072750e-003
7.713994e+002,3.004583e-003
7.733279e+002,2.901897e-003
7.752563e+002,2.751401e-003
7.771849e+002,2.623592e-003
7.791134e+002,2.490612e-003
7.810419e+002,2.370924e-003
7.829703e+002,2.300786e-003
7.848989e+002,2.235137e-003
7.868274e+002,2.165474e-003
7.887559e+002,2.139665e-003
7.906843e+002,2.075505e-003
7.926129e+002,2.015149e-003
7.945414e+002,2.034321e-003
7.964698e+002,2.064906e-003
7.983983e+002,2.058070e-003
8.003268e+002,1.978459e-003
8.022554e+002,1.918895e-003
8.041838e+002,1.844868e-003
8.061123e+002,1.792209e-003
8.080408e+002,1.727344e-003
8.099694e+002,1.692995e-003
8.118978e+002,1.685841e-003
8.138263e+002,1.615867e-003
8.157548e+002,1.506733e-003
8.176833e+002,1.459971e-003
8.196118e+002,1.410956e-003
8.215403e+002,1.321500e-003
8.234689e+002,1.237391e-003
8.253973e+002,1.191001e-003
8.273258e+002,1.183297e-003
8.292543e+002,1.185086e-003
8.311829e+002,1.084602e-003
8.331113e+002,1.051415e-003
8.350398e+002,9.987056e-004
8.369683e+002,9.797271e-004
8.388969e+002,9.737648e-004
8.408253e+002,9.884797e-004
8.427538e+002,1.011828e-003
8.446823e+002,1.074204e-003
8.466108e+002,1.019331e-003
8.485393e+002,9.754319e-004
8.504678e+002,1.013808e-003
8.523963e+002,1.047913e-003
8.543248e+002,1.084255e-003
8.562533e+002,1.123691e-003
8.581818e+002,1.097234e-003
8.601103e+002,1.107512e-003
8.620388e+002,1.153620e-003
8.639673e+002,1.122367e-003
8.658958e+002,1.057066e-003
8.678243e+002,1.073582e-003
8.697528e+002,1.113459e-003
8.716813e+002,1.209296e-003
8.736098e+002,1.246037e-003
8.755383e+002,1.326390e-003
8.774668e+002,1.427578e-003
8.793953e+002,1.574563e-003
8.813238e+002,1.706518e-003
8.832523e+002,1.873983e-003
8.851808e+002,2.087919e-003
8.871093e+002,2.334582e-003
8.890378e+002,2.363680e-003
8.909663e+002,2.191503e-003
8.928948e+002,2.003282e-003
8.948232e+002,1.869489e-003
8.967518e+002,1.748655e-003
8.986803e+002,1.716012e-003
9.006088e+002,1.707276e-003
9.025372e+002,1.766086e-003
9.044658e+002,1.833588e-003
9.063943e+002,1.963148e-003
9.083228e+002,2.084482e-003
9.102512e+002,2.055695e-003
9.121797e+002,1.800427e-003
9.141083e+002,1.646452e-003
9.160367e+002,1.501931e-003
9.179653e+002,1.446340e-003
9.198937e+002,1.371026e-003
9.218223e+002,1.355669e-003
9.237507e+002,1.368523e-003
9.256793e+002,1.409799e-003
9.276077e+002,1.372835e-003
9.295363e+002,1.325633e-003
9.314647e+002,1.327137e-003
9.333932e+002,1.399545e-003
9.353217e+002,1.403725e-003
9.372502e+002,1.360200e-003
9.391787e+002,1.346663e-003
9.411072e+002,1.370354e-003
9.430358e+002,1.348173e-003
9.449642e+002,1.337253e-003
9.468928e+002,1.267485e-003
9.488212e+002,1.236718e-003
9.507498e+002,1.272468e-003
9.526782e+002,1.355642e-003
9.546068e+002,1.358610e-003
9.565352e+002,1.426445e-003
9.584637e+002,1.476903e-003
9.603922e+002,1.531070e-003
9.623207e+002,1.546925e-003
9.642492e+002,1.602538e-003
9.661777e+002,1.628792e-003
9.681062e+002,1.653338e-003
9.700347e+002,1.627250e-003
9.719632e+002,1.546063e-003
9.738917e+002,1.463253e-003
9.758202e+002,1.453053e-003
9.777487e+002,1.421237e-003
9.796772e+002,1.416933e-003
9.816057e+002,1.439508e-003
9.835342e+002,1.522141e-003
9.854627e+002,1.578962e-003
9.873912e+002,1.629539e-003
9.893197e+002,1.667758e-003
9.912482e+002,1.734704e-003
9.931767e+002,1.737479e-003
9.951052e+002,1.756968e-003
9.970337e+002,1.780568e-003
9.989622e+002,1.815345e-003
1.000891e+003,1.844283e-003
1.002819e+003,1.942342e-003
1.004748e+003,1.966661e-003
1.006676e+003,2.020210e-003
1.008605e+003,2.095172e-003
1.010533e+003,2.208594e-003
1.012462e+003,2.295356e-003
1.014390e+003,2.388071e-003
1.016319e+003,2.434086e-003
1.018247e+003,2.538161e-003
1.020176e+003,2.568498e-003
1.022104e+003,2.604809e-003
1.024033e+003,2.634900e-003
1.025961e+003,2.706990e-003
1.027890e+003,2.732310e-003
1.029818e+003,2.813986e-003
1.031747e+003,2.847442e-003
1.033675e+003,2.848953e-003
1.035604e+003,2.848962e-003
1.037532e+003,2.910553e-003
1.039461e+003,2.948547e-003
1.041389e+003,3.033549e-003
1.043318e+003,3.064981e-003
1.045246e+003,3.176050e-003
1.047175e+003,3.269805e-003
1.049103e+003,3.454048e-003
1.051032e+003,3.511164e-003
1.052960e+003,3.467716e-003
1.054889e+003,3.490707e-003
1.056817e+003,3.624219e-003
1.058746e+003,3.698848e-003
1.060674e+003,3.837960e-003
1.062603e+003,3.875438e-003
1.064531e+003,3.910536e-003
1.066460e+003,3.932366e-003
1.068388e+003,4.013486e-003
1.070317e+003,4.050286e-003
1.072245e+003,4.160680e-003
1.074174e+003,4.286718e-003
1.076102e+003,4.389539e-003
1.078031e+003,4.457973e-003
1.079959e+003,4.570050e-003
1.081888e+003,4.518950e-003
1.083816e+003,4.499836e-003
1.085745e+003,4.449269e-003
1.087673e+003,4.355244e-003
1.089602e+003,4.211908e-003
1.091530e+003,4.125085e-003
1.093459e+003,4.004424e-003
1.095387e+003,3.929844e-003
1.097316e+003,3.794705e-003
1.099244e+003,3.717855e-003
1.101173e+003,3.659405e-003
1.103101e+003,3.627243e-003
1.105030e+003,3.521679e-003
1.106958e+003,3.447441e-003
1.108887e+003,3.358582e-003
1.110815e+003,3.341757e-003
1.112744e+003,3.238713e-003
1.114672e+003,3.203074e-003
1.116601e+003,3.144244e-003
1.118529e+003,3.082471e-003
1.120458e+003,2.979126e-003
1.122386e+003,2.952365e-003
1.124315e+003,2.939701e-003
1.126243e+003,3.016286e-003
1.128172e+003,3.042145e-003
1.130100e+003,3.087271e-003
1.132029e+003,3.032098e-003
1.133957e+003,3.012404e-003
1.135885e+003,3.003551e-003
1.137814e+003,3.070023e-003
1.139743e+003,3.085140e-003
1.141671e+003,3.158916e-003
1.143600e+003,3.252957e-003
1.145528e+003,3.406249e-003
1.147457e+003,3.581675e-003
1.149385e+003,3.910525e-003
1.151314e+003,4.267322e-003
1.153242e+003,4.719391e-003
1.155171e+003,5.083669e-003
1.157099e+003,5.396307e-003
1.159028e+003,5.614031e-003
1.160956e+003,5.778916e-003
1.162885e+003,5.783089e-003
1.164813e+003,5.679086e-003
1.166742e+003,5.462272e-003
1.168670e+003,5.215866e-003
1.170599e+003,4.871730e-003
1.172527e+003,4.570752e-003
1.174456e+003,4.282795e-003
1.176384e+003,4.109906e-003
1.178313e+003,3.889304e-003
1.180241e+003,3.663184e-003
1.182170e+003,3.471453e-003
1.184098e+003,3.423585e-003
1.186027e+003,3.361901e-003
1.187955e+003,3.387313e-003
1.189884e+003,3.413614e-003
1.191812e+003,3.490018e-003
1.193740e+003,3.584383e-003
1.195669e+003,3.731908e-003
1.197598e+003,3.833059e-003
1.199526e+003,3.989544e-003
1.201455e+003,4.166517e-003
1.203383e+003,4.434705e-003
1.205312e+003,4.689783e-003
1.207240e+003,5.017854e-003
1.209168e+003,5.326966e-003
1.211097e+003,5.653927e-003
1.213026e+003,5.916681e-003
1.214954e+003,6.231656e-003
1.216883e+003,6.493308e-003
1.218811e+003,6.797887e-003
1.220740e+003,7.033652e-003
1.222668e+003,7.303549e-003
1.224596e+003,7.469807e-003
1.226525e+003,7.657222e-003
1.228453e+003,7.805370e-003
1.230382e+003,8.007014e-003
1.232311e+003,8.181883e-003
1.234239e+003,8.346956e-003
1.236167e+003,8.414373e-003
1.238096e+003,8.488424e-003
1.240025e+003,8.421421e-003
1.241953e+003,8.343227e-003
1.243882e+003,8.167561e-003
1.245810e+003,7.944379e-003
1.247739e+003,7.606883e-003
1.249667e+003,7.340020e-003
1.251595e+003,7.038781e-003
1.253524e+003,6.831102e-003
1.255453e+003,6.649539e-003
1.257381e+003,6.562667e-003
1.259310e+003,6.433822e-003
1.261238e+003,6.336836e-003
1.263167e+003,6.140746e-003
1.265095e+003,5.964553e-003
1.267023e+003,5.751707e-003
1.268952e+003,5.639726e-003
1.270880e+003,5.550766e-003
1.272809e+003,5.571809e-003
1.274738e+003,5.597435e-003
1.276666e+003,5.692836e-003
1.278594e+003,5.777050e-003
1.280523e+003,5.945655e-003
1.282451e+003,6.028192e-003
1.284380e+003,6.202979e-003
1.286308e+003,6.381677e-003
1.288237e+003,6.685128e-003
1.290166e+003,6.958641e-003
1.292094e+003,7.354647e-003
1.294022e+003,7.717235e-003
1.295951e+003,8.109529e-003
1.297879e+003,8.403435e-003
1.299808e+003,8.690977e-003
1.301736e+003,8.784629e-003
1.303665e+003,8.833032e-003
1.305594e+003,8.749042e-003
1.307522e+003,8.633062e-003
1.309450e+003,8.366548e-003
1.311379e+003,8.099791e-003
1.313307e+003,7.673427e-003
1.315236e+003,7.275529e-003
1.317164e+003,6.826669e-003
1.319093e+003,6.521922e-003
1.321021e+003,6.124254e-003
1.322950e+003,5.851321e-003
1.324878e+003,5.584013e-003
1.326807e+003,5.491614e-003
1.328735e+003,5.440209e-003
1.330664e+003,5.592551e-003
1.332592e+003,5.818091e-003
1.334521e+003,6.303672e-003
1.336449e+003,6.911617e-003
1.338378e+003,7.773191e-003
1.340306e+003,8.497849e-003
1.342235e+003,8.961279e-003
1.344163e+003,9.331878e-003
1.346092e+003,9.950139e-003
1.348021e+003,1.057295e-002
1.349949e+003,1.125579e-002
1.351877e+003,1.155413e-002
1.353806e+003,1.157745e-002
1.355734e+003,1.137914e-002
1.357663e+003,1.145506e-002
1.359591e+003,1.178604e-002
1.361520e+003,1.265075e-002
1.363448e+003,1.383647e-002
1.365377e+003,1.498999e-002
1.367305e+003,1.590683e-002
1.369234e+003,1.639187e-002
1.371162e+003,1.615533e-002
1.373091e+003,1.645859e-002
1.375019e+003,1.842771e-002
1.376948e+003,1.998335e-002
1.378876e+003,1.834772e-002
1.380805e+003,1.398732e-002
1.382733e+003,9.726722e-003
1.384662e+003,7.276949e-003
1.386590e+003,5.902618e-003
1.388519e+003,5.213380e-003
1.390447e+003,4.695520e-003
1.392376e+003,4.577063e-003
1.394304e+003,4.379779e-003
1.396233e+003,4.467811e-003
1.398161e+003,4.292648e-003
1.400090e+003,4.427690e-003
1.402018e+003,4.299004e-003
1.403947e+003,4.538305e-003
1.405875e+003,4.577838e-003
1.407804e+003,4.779566e-003
1.409732e+003,4.814066e-003
1.411661e+003,5.172923e-003
1.413589e+003,5.241752e-003
1.415518e+003,5.606219e-003
1.417446e+003,5.767267e-003
1.419375e+003,6.656777e-003
1.421303e+003,7.031344e-003
1.423232e+003,8.107312e-003
1.425160e+003,9.531967e-003
1.427089e+003,1.142138e-002
1.429017e+003,1.384163e-002
1.430946e+003,1.758583e-002
1.432874e+003,2.055159e-002
1.434803e+003,2.347033e-002
1.436731e+003,2.677943e-002
1.438660e+003,2.976613e-002
1.440588e+003,3.146714e-002
1.442517e+003,3.396275e-002
1.444445e+003,3.594653e-002
1.446374e+003,3.881384e-002
1.448302e+003,4.280484e-002
1.450231e+003,4.871637e-002
1.452159e+003,5.741113e-002
1.454088e+003,6.852363e-002
1.456016e+003,7.939926e-002
1.457945e+003,1.030229e-001
1.459873e+003,1.420654e-001
1.461802e+003,1.844683e-001
1.463730e+003,1.906953e-001
1.465659e+003,1.541066e-001
1.467587e+003,1.411787e-001
1.469516e+003,1.391651e-001
1.471444e+003,1.547482e-001
1.473373e+003,1.306258e-001
1.475301e+003,7.053754e-002
1.477230e+003,3.164932e-002
1.479158e+003,2.012737e-002
1.481087e+003,1.439437e-002
1.483015e+003,1.172012e-002
1.484944e+003,9.516582e-003
1.486872e+003,8.865822e-003
1.488801e+003,7.383473e-003
1.490729e+003,7.115889e-003
1.492658e+003,5.966425e-003
1.494586e+003,5.907983e-003
1.496515e+003,5.124956e-003
1.498443e+003,5.251646e-003
1.500372e+003,4.512955e-003
1.502300e+003,4.414465e-003
1.504229e+003,3.835484e-003
1.506157e+003,4.653927e-003
1.508086e+003,3.958825e-003
1.510014e+003,3.973290e-003
1.511943e+003,3.464144e-003
1.513871e+003,3.570780e-003
1.515800e+003,3.237963e-003
1.517728e+003,3.512271e-003
1.519657e+003,3.106788e-003
1.521585e+003,3.585439e-003
1.523514e+003,3.076922e-003
1.525442e+003,3.282968e-003
1.527371e+003,2.991378e-003
1.529299e+003,2.994992e-003
1.531228e+003,2.723131e-003
1.533156e+003,3.060911e-003
1.535085e+003,2.779257e-003
1.537013e+003,2.861224e-003
1.538942e+003,2.923194e-003
1.540870e+003,3.734861e-003
1.542799e+003,3.009539e-003
1.544727e+003,2.952710e-003
1.546656e+003,2.526496e-003
1.548584e+003,2.564918e-003
1.550513e+003,2.404790e-003
1.552441e+003,2.450097e-003
1.554370e+003,2.258074e-003
1.556298e+003,2.393801e-003
1.558227e+003,2.531730e-003
1.560155e+003,2.763901e-003
1.562084e+003,2.034817e-003
1.564012e+003,1.974057e-003
1.565941e+003,1.789626e-003
1.567869e+003,1.909856e-003
1.569798e+003,1.962092e-003
1.571726e+003,1.939401e-003
1.573655e+003,1.713045e-003
1.575583e+003,1.958959e-003
1.577512e+003,1.848970e-003
1.579440e+003,1.761626e-003
1.581369e+003,1.631711e-003
1.583297e+003,1.707271e-003
1.585226e+003,1.611218e-003
1.587154e+003,1.677599e-003
1.589083e+003,1.583990e-003
1.591011e+003,1.600500e-003
1.592940e+003,1.528796e-003
1.594868e+003,1.613185e-003
1.596797e+003,1.490988e-003
1.598725e+003,1.527779e-003
1.600654e+003,1.464065e-003
1.602582e+003,1.499414e-003
1.604511e+003,1.396772e-003
1.606439e+003,1.441449e-003
1.608368e+003,1.405161e-003
1.610296e+003,1.493711e-003
1.612225e+003,1.395941e-003
1.614153e+003,1.478493e-003
1.616082e+003,1.577049e-003
1.618010e+003,1.707535e-003
1.619939e+003,1.542468e-003
1.621867e+003,1.669079e-003
1.623796e+003,1.723412e-003
1.625724e+003,1.807932e-003
1.627653e+003,1.805358e-003
1.629581e+003,1.909599e-003
1.631510e+003,1.782905e-003
1.633438e+003,1.928046e-003
1.635367e+003,2.304431e-003
1.637295e+003,2.463665e-003
1.639224e+003,2.175361e-003
1.641152e+003,2.186000e-003
1.643081e+003,2.091426e-003
1.645009e+003,2.310257e-003
1.646938e+003,2.518483e-003
1.648866e+003,2.294339e-003
1.650795e+003,2.050314e-003
1.652723e+003,2.725776e-003
1.654652e+003,2.239011e-003
1.656580e+003,1.858458e-003
1.658509e+003,1.582447e-003
1.660437e+003,1.565699e-003
1.662366e+003,1.527492e-003
1.664294e+003,1.412362e-003
1.666223e+003,1.189485e-003
1.668151e+003,1.379121e-003
1.670080e+003,1.415510e-003
1.672008e+003,1.293417e-003
1.673937e+003,1.148216e-003
1.675865e+003,1.249481e-003
1.677794e+003,9.421520e-004
1.679722e+003,9.169951e-004
1.681651e+003,8.970834e-004
1.683579e+003,1.577299e-003
1.685508e+003,1.136728e-003
1.687436e+003,7.424690e-004
1.689365e+003,5.270280e-004
1.691293e+003,4.413500e-004
1.693222e+003,2.623834e-004
1.695150e+003,4.710220e-004
1.697079e+003,5.452260e-004
1.699007e+003,8.206852e-004
1.700936e+003,8.626133e-004
1.702864e+003,5.063750e-004
1.704793e+003,4.302002e-004
1.706721e+003,5.989484e-004
1.708650e+003,4.543252e-004
1.710578e+003,5.072728e-004
1.712507e+003,5.371943e-004
1.714435e+003,8.193888e-004
1.716364e+003,1.145393e-003
1.718292e+003,1.517825e-003
1.720221e+003,1.142435e-003
1.722149e+003,1.108784e-003
1.724078e+003,9.833165e-004
1.726006e+003,7.743500e-004
1.727935e+003,6.089769e-004
1.729863e+003,7.060096e-004
1.731792e+003,7.150322e-004
1.733720e+003,1.202594e-003
1.735649e+003,7.350072e-004
1.737577e+003,5.397722e-004
1.739506e+003,6.668344e-004
1.741434e+003,6.179251e-004
1.743363e+003,3.296621e-004
1.745291e+003,2.893768e-004
1.747220e+003,2.765879e-004
1.749148e+003,3.822893e-004
1.751077e+003,2.455078e-004
1.753005e+003,3.996119e-005
1.754934e+003,-2.113804e-004
1.756862e+003,-2.037324e-004
1.758791e+003,-4.371218e-004
1.760719e+003,-4.391558e-004
1.762648e+003,-4.875548e-004
1.764576e+003,-6.489567e-004
1.766505e+003,-7.366762e-004
1.768433e+003,-5.324222e-004
1.770362e+003,-4.878379e-004
1.772290e+003,-2.457164e-004
1.774219e+003,-5.817898e-004
1.776147e+003,-6.530546e-004
1.778076e+003,-7.228032e-004
1.780004e+003,-5.548336e-004
1.781933e+003,-5.505346e-004
1.783861e+003,-5.258918e-004
1.785790e+003,-6.406792e-004
1.787718e+003,-7.375143e-004
1.789646e+003,-7.433780e-004
1.791575e+003,-3.267974e-004
1.793504e+003,-3.665686e-004
1.795432e+003,-5.329251e-004
1.797361e+003,-7.431656e-004
1.799289e+003,-5.935356e-004
1.801218e+003,-4.676841e-004
1.803146e+003,-5.924813e-004
1.805074e+003,-8.761585e-004
1.807003e+003,-8.626208e-004
1.808932e+003,-8.424185e-004
1.810860e+003,-6.815903e-004
1.812789e+003,-9.691007e-004
1.814717e+003,-1.264419e-003
1.816646e+003,-1.398087e-003
1.818574e+003,-1.048695e-003
1.820502e+003,-9.178557e-004
1.822431e+003,-7.795841e-004
1.824360e+003,-6.785803e-004
1.826288e+003,-6.174073e-004
1.828217e+003,-6.351396e-004
1.830145e+003,-4.741773e-004
1.832073e+003,-9.746440e-004
1.834002e+003,-1.138225e-003
1.835931e+003,-1.144338e-003
1.837859e+003,-1.029052e-003
1.839788e+003,-1.082912e-003
1.841716e+003,-8.309260e-004
1.843645e+003,-5.856231e-004
1.845573e+003,-5.861744e-004
1.847501e+003,-9.113997e-004
1.849430e+003,-9.761229e-004
1.851359e+003,-1.289155e-003
1.853287e+003,-1.222007e-003
1.855216e+003,-1.267605e-003
1.857144e+003,-1.159146e-003
1.859073e+003,-1.108672e-003
1.861001e+003,-8.479394e-004
1.862929e+003,-1.026381e-003
1.864858e+003,-8.498430e-004
1.866787e+003,-5.827993e-004
1.868715e+003,-1.923777e-004
1.870644e+003,-5.815066e-004
1.872572e+003,-7.248595e-004
1.874500e+003,-9.080693e-004
1.876429e+003,-7.449463e-004
1.878357e+003,-7.650219e-004
1.880286e+003,-6.809048e-004
1.882215e+003,-8.323453e-004
1.884143e+003,-7.013045e-004
1.886072e+003,-7.990636e-004
1.888000e+003,-2.775565e-004
1.889928e+003,-1.346767e-004
1.891857e+003,-9.479746e-005
1.893785e+003,-5.463511e-005
1.895714e+003,3.092848e-004
1.897643e+003,1.918711e-004
1.899571e+003,2.603754e-004
1.901500e+003,2.599321e-004
1.903428e+003,2.594851e-004
1.905356e+003,2.590306e-004
1.907285e+003,2.585612e-004
1.909213e+003,2.580956e-004
1.911142e+003,2.576187e-004
1.913071e+003,2.571307e-004
1.914999e+003,2.566427e-004
1.916927e+003,2.561435e-004
1.918856e+003,2.556369e-004
1.920784e+003,2.551191e-004
1.922713e+003,2.546012e-004
1.924641e+003,2.540722e-004
1.926570e+003,2.535395e-004
1.928499e+003,2.529956e-004
1.930427e+003,2.524443e-004
1.932355e+003,2.518855e-004
1.934284e+003,2.513193e-004
1.936212e+003,2.507493e-004
1.938141e+003,2.501681e-004
1.940070e+003,2.495870e-004
1.941998e+003,2.489947e-004
1.943927e+003,2.483875e-004
1.945855e+003,2.477840e-004
1.947783e+003,2.471693e-004
1.949712e+003,2.465434e-004
1.951640e+003,2.459101e-004
1.953569e+003,2.452768e-004
1.955498e+003,2.446324e-004
1.957426e+003,2.439767e-004
1.959354e+003,2.433173e-004
1.961283e+003,2.426505e-004
1.963211e+003,2.419800e-004
1.965140e+003,2.412982e-004
1.967068e+003,2.406090e-004
1.968997e+003,2.399161e-004
1.970926e+003,2.392121e-004
1.972854e+003,2.385005e-004
1.974782e+003,2.377816e-004
1.976711e+003,2.370588e-004
1.978639e+003,2.363287e-004
1.980568e+003,2.355874e-004
1.982496e+003,2.348386e-004
1.984425e+003,2.340898e-004
1.986354e+003,2.333261e-004
1.988282e+003,2.325550e-004
1.990210e+003,2.317801e-004
1.992139e+003,2.310015e-004
1.994067e+003,2.302080e-004
1.995996e+003,2.294108e-004
1.997924e+003,2.286062e-004
1.999853e+003,2.277978e-004
2.001781e+003,2.269782e-004
2.003710e+003,2.261512e-004
2.005638e+003,2.253130e-004
2.007567e+003,2.244711e-004
2.009495e+003,2.236255e-004
2.011424e+003,2.227686e-004
2.013352e+003,2.219081e-004
2.015281e+003,2.210401e-004
2.017209e+003,2.201609e-004
2.019138e+003,2.192706e-004
2.021066e+003,2.183840e-004
2.022995e+003,2.174862e-004
2.024923e+003,2.165772e-004
2.026852e+003,2.156645e-004
2.028781e+003,2.147444e-004
2.030709e+003,2.138168e-004
2.032637e+003,2.128780e-004
2.034566e+003,2.119318e-004
2.036494e+003,2.109855e-004
2.038423e+003,2.100281e-004
2.040351e+003,2.090633e-004
2.042280e+003,2.080910e-004
2.044208e+003,2.071075e-004
2.046137e+003,2.061240e-004
2.048065e+003,2.051257e-004
2.049994e+003,2.041273e-004
2.051922e+003,2.031215e-004
2.053851e+003,2.021119e-004
2.055779e+003,2.010874e-004
2.057708e+003,2.000555e-004
2.059636e+003,1.990162e-004
2.061565e+003,1.979694e-004
2.063493e+003,1.969151e-004
2.065422e+003,1.958534e-004
2.067350e+003,1.947880e-004
2.069279e+003,1.937188e-004
2.071207e+003,1.926310e-004
2.073136e+003,1.915470e-004
2.075064e+003,1.904517e-004
2.076993e+003,1.893528e-004
2.078921e+003,1.882352e-004
2.080850e+003,1.871213e-004
2.082778e+003,1.859926e-004
2.084707e+003,1.848675e-004
2.086635e+003,1.837239e-004
2.088564e+003,1.825765e-004
2.090492e+003,1.814254e-004
2.092421e+003,1.802631e-004
2.094349e+003,1.790896e-004
2.096278e+003,1.779124e-004
2.098206e+003,1.767352e-004
2.100135e+003,1.755469e-004
2.102063e+003,1.743473e-004
2.103992e+003,1.731403e-004
2.105920e+003,1.719333e-004
2.107849e+003,1.707114e-004
2.109777e+003,1.694821e-004
2.111706e+003,1.682453e-004
2.113634e+003,1.670122e-004
2.115563e+003,1.657642e-004
2.117491e+003,1.645014e-004
2.119420e+003,1.632422e-004
2.121348e+003,1.619682e-004
2.123277e+003,1.606941e-004
2.125205e+003,1.594052e-004
2.127134e+003,1.581125e-004
2.129062e+003,1.568198e-004
2.130991e+003,1.555160e-004
2.132919e+003,1.541935e-004
2.134848e+003,1.528747e-004
2.136776e+003,1.515448e-004
2.138705e+003,1.502112e-004
2.140633e+003,1.488663e-004
2.142562e+003,1.475178e-004
2.144490e+003,1.461618e-004
2.146419e+003,1.447946e-004
2.148347e+003,1.434237e-004
2.150276e+003,1.420416e-004
2.152204e+003,1.406558e-004
2.154133e+003,1.392588e-004
2.156061e+003,1.378618e-004
2.157990e+003,1.364537e-004
2.159918e+003,1.350380e-004
2.161847e+003,1.336150e-004
2.163775e+003,1.321845e-004
2.165704e+003,1.307428e-004
2.167632e+003,1.292974e-004
2.169561e+003,1.278445e-004
2.171489e+003,1.263842e-004
2.173418e+003,1.249239e-004
2.175346e+003,1.234524e-004
2.177275e+003,1.219660e-004
2.179203e+003,1.204759e-004
2.181132e+003,1.189820e-004
2.183060e+003,1.174733e-004
2.184989e+003,1.159646e-004
2.186917e+003,1.144484e-004
2.188846e+003,1.129322e-004
2.190774e+003,1.113936e-004
2.192703e+003,1.098551e-004
2.194631e+003,1.083054e-004
2.196560e+003,1.067519e-004
2.198488e+003,1.051910e-004
2.200417e+003,1.036264e-004
2.202345e+003,1.020506e-004
2.204274e+003,1.004674e-004
2.206202e+003,9.887666e-005
2.208131e+003,9.727851e-005
2.210059e+003,9.566545e-005
2.211988e+003,9.405613e-005
2.213916e+003,9.243563e-005
2.215845e+003,9.080768e-005
2.217773e+003,8.917972e-005
2.219702e+003,8.754060e-005
2.221630e+003,8.589029e-005
2.223559e+003,8.423626e-005
2.225487e+003,8.257106e-005
2.227416e+003,8.089840e-005
2.229344e+003,7.922202e-005
2.231273e+003,7.753819e-005
2.233201e+003,7.584691e-005
2.235130e+003,7.414445e-005
2.237058e+003,7.243827e-005
2.238987e+003,7.072091e-005
2.240915e+003,6.899983e-005
2.242844e+003,6.727129e-005
2.244772e+003,6.554276e-005
2.246701e+003,6.379560e-005
2.248629e+003,6.204471e-005
2.250558e+003,6.029010e-005
2.252486e+003,5.852059e-005
2.254415e+003,5.675107e-005
2.256343e+003,5.497038e-005
2.258272e+003,5.317852e-005
2.260200e+003,5.138665e-005
2.262129e+003,4.959106e-005
2.264057e+003,4.778057e-005
2.265986e+003,4.595891e-005
2.267914e+003,4.413724e-005
2.269843e+003,4.230440e-005
2.271771e+003,4.047155e-005
2.273700e+003,3.862381e-005
2.275628e+003,3.677979e-005
2.277557e+003,3.491715e-005
2.279485e+003,3.304705e-005
2.281414e+003,3.117695e-005
2.283342e+003,2.928823e-005
2.285271e+003,2.740324e-005
2.287199e+003,2.550334e-005
2.289128e+003,2.360716e-005
2.291056e+003,2.169237e-005
2.292985e+003,1.977384e-005
2.294913e+003,1.784787e-005
2.296842e+003,1.591817e-005
2.298770e+003,1.397356e-005
2.300699e+003,1.202896e-005
2.302627e+003,1.008064e-005
2.304556e+003,8.117408e-006
2.306484e+003,6.150454e-006
2.308413e+003,4.168600e-006
2.310341e+003,2.190471e-006
2.312270e+003,1.974404e-007
2.314198e+003,-1.803041e-006
2.316127e+003,-3.810972e-006
2.318055e+003,-5.822629e-006
2.319984e+003,-7.838011e-006
2.321912e+003,-9.868294e-006
2.323841e+003,-1.189858e-005
2.325769e+003,-1.394004e-005
2.327698e+003,-1.598895e-005
2.329626e+003,-1.804158e-005
2.331555e+003,-2.011284e-005
2.333483e+003,-2.217665e-005
2.335412e+003,-2.425537e-005
2.337340e+003,-2.634153e-005
2.339269e+003,-2.843514e-005
2.341197e+003,-3.053248e-005
2.343126e+003,-3.264472e-005
2.345054e+003,-3.476068e-005
2.346983e+003,-3.687665e-005
2.348911e+003,-3.900379e-005
2.350840e+003,-4.113838e-005
2.352768e+003,-4.328787e-005
2.354697e+003,-4.542992e-005
2.356625e+003,-4.759431e-005
2.358554e+003,-4.975870e-005
2.360482e+003,-5.193055e-005
2.362411e+003,-5.411357e-005
2.364339e+003,-5.629659e-005
2.366268e+003,-5.848706e-005
2.368196e+003,-6.069615e-005
2.370125e+003,-6.290525e-005
2.372053e+003,-6.511807e-005
2.373982e+003,-6.734580e-005
2.375910e+003,-6.957352e-005
2.377839e+003,-7.180870e-005
2.379767e+003,-7.404760e-005
2.381696e+003,-7.630512e-005
2.383624e+003,-7.856637e-005
2.385553e+003,-8.083507e-005
2.387481e+003,-8.311123e-005
2.389410e+003,-8.538738e-005
2.391338e+003,-8.767471e-005
2.393267e+003,-8.996949e-005
2.395195e+003,-9.227917e-005
2.397124e+003,-9.458885e-005
2.399052e+003,-9.690970e-005
2.400981e+003,5.812943e-005
2.402909e+003,1.056418e-004
2.404838e+003,9.958073e-005
2.406766e+003,1.993664e-004
2.408695e+003,3.360324e-004
2.410623e+003,3.856868e-004
2.412552e+003,5.955882e-004
2.414480e+003,6.413013e-004
2.416409e+003,6.500892e-004
2.418337e+003,6.709173e-004
2.420266e+003,7.136650e-004
2.422194e+003,7.457845e-004
2.424123e+003,7.230565e-004
2.426051e+003,5.500987e-004
2.427979e+003,7.048994e-004
2.429908e+003,8.048601e-004
2.431837e+003,8.033961e-004
2.433765e+003,8.236915e-004
2.435694e+003,8.910224e-004
2.437622e+003,7.730946e-004
2.439551e+003,6.808937e-004
2.441479e+003,5.420893e-004
2.443407e+003,5.755723e-004
2.445336e+003,7.171445e-004
2.447265e+003,7.927492e-004
2.449193e+003,6.115139e-004
2.451122e+003,7.035397e-004
2.453050e+003,8.330420e-004
2.454979e+003,8.812547e-004
2.456907e+003,7.798932e-004
2.458836e+003,7.375777e-004
2.460764e+003,6.972551e-004
2.462693e+003,6.188974e-004
2.464621e+003,6.027669e-004
2.466550e+003,6.728694e-004
2.468478e+003,6.460138e-004
2.470406e+003,9.143353e-004
2.472335e+003,1.181137e-003
2.474264e+003,1.179915e-003
2.476192e+003,1.028620e-003
2.478121e+003,1.011033e-003
2.480049e+003,1.094952e-003
2.481978e+003,1.069628e-003
2.483906e+003,9.569488e-004
2.485835e+003,1.218777e-003
2.487763e+003,1.408223e-003
2.489692e+003,1.312070e-003
2.491620e+003,1.267925e-003
2.493549e+003,1.223002e-003
2.495477e+003,1.149934e-003
2.497406e+003,1.351319e-003
2.499334e+003,1.499757e-003
2.501263e+003,1.559414e-003
2.503191e+003,1.543030e-003
2.505120e+003,1.629852e-003
2.507048e+003,1.791563e-003
2.508977e+003,1.857061e-003
2.510905e+003,1.773026e-003
2.512833e+003,1.769859e-003
2.514762e+003,1.775317e-003
2.516691e+003,1.836311e-003
2.518619e+003,1.920886e-003
2.520548e+003,2.161968e-003
2.522476e+003,2.381589e-003
2.524405e+003,2.602559e-003
2.526333e+003,2.749600e-003
2.528261e+003,2.889127e-003
2.530190e+003,2.890188e-003
2.532119e+003,2.769988e-003
2.534047e+003,2.697468e-003
2.535976e+003,2.663642e-003
2.537904e+003,2.575066e-003
2.539833e+003,2.577379e-003
2.541761e+003,2.692558e-003
2.543689e+003,2.969150e-003
2.545618e+003,3.214296e-003
2.547547e+003,3.474444e-003
2.549475e+003,3.508050e-003
2.551404e+003,3.632419e-003
2.553332e+003,3.793139e-003
2.555260e+003,3.913619e-003
2.557189e+003,3.933258e-003
2.559117e+003,3.981259e-003
2.561046e+003,4.015274e-003
2.562975e+003,4.136179e-003
2.564903e+003,4.166026e-003
2.566832e+003,4.268005e-003
2.568760e+003,4.506983e-003
2.570688e+003,4.706688e-003
2.572617e+003,4.890937e-003
2.574546e+003,5.081590e-003
2.576474e+003,5.148690e-003
2.578403e+003,5.250726e-003
2.580331e+003,5.482137e-003
2.582260e+003,5.845562e-003
2.584188e+003,6.041564e-003
2.586116e+003,6.124496e-003
2.588045e+003,6.241359e-003
2.589974e+003,6.339237e-003
2.591902e+003,6.482728e-003
2.593831e+003,6.714635e-003
2.595759e+003,6.939217e-003
2.597688e+003,7.198066e-003
2.599616e+003,7.328488e-003
2.601544e+003,7.458545e-003
2.603473e+003,7.661693e-003
2.605402e+003,7.909283e-003
2.607330e+003,8.209616e-003
2.609259e+003,8.506119e-003
2.611187e+003,8.741379e-003
2.613115e+003,9.035312e-003
2.615044e+003,9.307124e-003
2.616972e+003,9.614334e-003
2.618901e+003,9.961762e-003
2.620830e+003,1.035425e-002
2.622758e+003,1.072341e-002
2.624687e+003,1.115625e-002
2.626615e+003,1.158838e-002
2.628543e+003,1.194073e-002
2.630472e+003,1.235934e-002
2.632400e+003,1.273059e-002
2.634329e+003,1.284743e-002
2.636258e+003,1.287873e-002
2.638186e+003,1.291592e-002
2.640115e+003,1.292156e-002
2.642043e+003,1.285606e-002
2.643971e+003,1.283240e-002
2.645900e+003,1.287411e-002
2.647828e+003,1.297176e-002
2.649757e+003,1.310474e-002
2.651686e+003,1.322044e-002
2.653614e+003,1.333386e-002
2.655542e+003,1.340980e-002
2.657471e+003,1.346897e-002
2.659399e+003,1.347658e-002
2.661328e+003,1.335987e-002
2.663256e+003,1.320054e-002
2.665185e+003,1.306637e-002
2.667114e+003,1.290161e-002
2.669042e+003,1.270559e-002
2.670970e+003,1.252559e-002
2.672899e+003,1.236586e-002
2.674827e+003,1.221075e-002
2.676756e+003,1.210288e-002
2.678685e+003,1.205146e-002
2.680613e+003,1.192462e-002
2.682542e+003,1.176105e-002
2.684470e+003,1.166156e-002
2.686398e+003,1.159792e-002
2.688327e+003,1.146249e-002
2.690255e+003,1.131441e-002
2.692184e+003,1.117440e-002
2.694113e+003,1.114469e-002
2.696041e+003,1.117377e-002
2.697969e+003,1.117548e-002
2.699898e+003,1.121336e-002
2.701826e+003,1.136166e-002
2.703755e+003,1.149420e-002
2.705683e+003,1.165573e-002
2.707612e+003,1.181789e-002
2.709541e+003,1.203053e-002
2.711469e+003,1.226815e-002
2.713397e+003,1.245197e-002
2.715326e+003,1.255789e-002
2.717254e+003,1.274027e-002
2.719183e+003,1.300995e-002
2.721111e+003,1.329917e-002
2.723040e+003,1.357340e-002
2.724969e+003,1.386902e-002
2.726897e+003,1.420408e-002
2.728825e+003,1.449284e-002
2.730754e+003,1.471649e-002
2.732682e+003,1.488736e-002
2.734611e+003,1.501346e-002
2.736539e+003,1.514538e-002
2.738468e+003,1.525103e-002
2.740396e+003,1.533698e-002
2.742325e+003,1.536874e-002
2.744253e+003,1.532312e-002
2.746182e+003,1.532350e-002
2.748110e+003,1.537985e-002
2.750039e+003,1.541927e-002
2.751967e+003,1.555885e-002
2.753896e+003,1.573818e-002
2.755824e+003,1.597667e-002
2.757753e+003,1.628673e-002
2.759681e+003,1.665393e-002
2.761610e+003,1.705381e-002
2.763538e+003,1.745898e-002
2.765467e+003,1.786473e-002
2.767395e+003,1.834872e-002
2.769324e+003,1.889061e-002
2.771252e+003,1.951003e-002
2.773181e+003,2.022158e-002
2.775109e+003,2.101959e-002
2.777038e+003,2.185604e-002
2.778966e+003,2.280212e-002
2.780895e+003,2.389899e-002
2.782823e+003,2.503882e-002
2.784752e+003,2.631194e-002
2.786680e+003,2.770997e-002
2.788609e+003,2.918226e-002
2.790537e+003,3.072897e-002
2.792466e+003,3.242923e-002
2.794394e+003,3.420785e-002
2.796323e+003,3.598995e-002
2.798251e+003,3.786680e-002
2.800180e+003,3.988733e-002
2.802108e+003,4.198388e-002
2.804037e+003,4.418592e-002
2.805965e+003,4.653548e-002
2.807894e+003,4.917344e-002
2.809822e+003,5.213480e-002
2.811751e+003,5.549651e-002
2.813679e+003,5.927581e-002
2.815608e+003,6.358729e-002
2.817536e+003,6.868669e-002
2.819465e+003,7.475156e-002
2.821393e+003,8.182038e-002
2.823322e+003,9.035403e-002
2.825250e+003,1.009270e-001
2.827179e+003,1.142691e-001
2.829107e+003,1.315106e-001
2.831036e+003,1.544462e-001
2.832964e+003,1.860234e-001
2.834893e+003,2.308184e-001
2.836821e+003,2.950193e-001
2.838750e+003,3.883440e-001
2.840678e+003,5.260174e-001
2.842607e+003,7.273077e-001
2.844535e+003,9.994205e-001
2.846464e+003,1.272091e+000
2.848392e+003,1.320638e+000
2.850321e+003,1.084486e+000
2.852249e+003,8.057155e-001
2.854178e+003,6.032462e-001
2.856106e+003,4.653101e-001
2.858035e+003,3.684349e-001
2.859963e+003,2.996347e-001
2.861892e+003,2.515319e-001
2.863820e+003,2.194697e-001
2.865749e+003,2.002285e-001
2.867677e+003,1.910438e-001
2.869606e+003,1.885639e-001
2.871534e+003,1.897754e-001
2.873463e+003,1.940711e-001
2.875391e+003,2.028845e-001
2.877320e+003,2.174752e-001
2.879248e+003,2.377884e-001
2.881177e+003,2.629299e-001
2.883105e+003,2.918747e-001
2.885034e+003,3.240633e-001
2.886962e+003,3.589258e-001
2.888891e+003,3.956006e-001
2.890819e+003,4.331231e-001
2.892748e+003,4.706115e-001
2.894676e+003,5.078310e-001
2.896605e+003,5.456645e-001
2.898533e+003,5.854826e-001
2.900462e+003,6.299850e-001
2.902390e+003,6.837857e-001
2.904319e+003,7.533225e-001
2.906247e+003,8.472438e-001
2.908176e+003,9.755883e-001
2.910104e+003,1.144895e+000
2.912033e+003,1.340543e+000
2.913961e+003,1.493637e+000
2.915890e+003,1.502060e+000
2.917818e+003,1.356830e+000
2.919747e+003,1.154165e+000
2.921675e+003,9.651257e-001
2.923604e+003,8.087767e-001
2.925532e+003,6.831282e-001
2.927461e+003,5.806828e-001
2.929389e+003,4.946356e-001
2.931318e+003,4.211015e-001
2.933246e+003,3.577774e-001
2.935175e+003,3.033966e-001
2.937103e+003,2.570583e-001
2.939032e+003,2.175922e-001
2.940960e+003,1.845207e-001
2.942889e+003,1.577548e-001
2.944817e+003,1.372334e-001
2.946746e+003,1.227590e-001
2.948674e+003,1.137416e-001
2.950603e+003,1.087218e-001
2.952531e+003,1.055089e-001
2.954460e+003,1.023867e-001
2.956388e+003,9.837613e-002
2.958317e+003,9.328032e-002
2.960245e+003,8.711865e-002
2.962174e+003,7.992968e-002
2.964102e+003,7.204296e-002
2.966031e+003,6.397249e-002
2.967959e+003,5.621537e-002
2.969888e+003,4.909656e-002
2.971816e+003,4.285023e-002
2.973745e+003,3.750663e-002
2.975673e+003,3.313015e-002
2.977602e+003,2.956597e-002
2.979530e+003,2.663023e-002
2.981459e+003,2.418619e-002
2.983387e+003,2.209727e-002
2.985316e+003,2.034660e-002
2.987244e+003,1.890730e-002
2.989173e+003,1.770367e-002
2.991101e+003,1.664249e-002
2.993030e+003,1.574374e-002
2.994958e+003,1.500400e-002
2.996887e+003,1.426426e-002
2.998815e+003,1.355954e-002
3.000744e+003,1.292259e-002
3.002672e+003,1.239974e-002
3.004601e+003,1.189563e-002
3.006529e+003,1.149831e-002
3.008458e+003,1.114237e-002
3.010386e+003,1.077065e-002
3.012315e+003,1.042513e-002
3.014243e+003,1.009640e-002
3.016172e+003,9.758592e-003
3.018100e+003,9.507045e-003
3.020029e+003,9.338878e-003
3.021957e+003,9.154931e-003
3.023886e+003,8.874632e-003
3.025814e+003,8.684032e-003
3.027743e+003,8.446835e-003
3.029671e+003,8.154362e-003
3.031600e+003,7.899508e-003
3.033528e+003,7.588349e-003
3.035457e+003,7.236741e-003
3.037385e+003,6.932288e-003
3.039314e+003,6.632552e-003
3.041242e+003,6.396957e-003
3.043171e+003,6.144375e-003
3.045099e+003,5.891524e-003
3.047028e+003,5.656511e-003
3.048956e+003,5.438186e-003
3.050885e+003,5.211674e-003
3.052813e+003,5.014107e-003
3.054742e+003,4.820511e-003
3.056670e+003,4.663669e-003
3.058599e+003,4.525036e-003
3.060527e+003,4.407324e-003
3.062456e+003,4.230805e-003
3.064384e+003,4.163191e-003
3.066313e+003,4.040733e-003
3.068241e+003,3.827110e-003
3.070170e+003,3.651977e-003
3.072098e+003,3.617838e-003
3.074027e+003,3.529109e-003
3.075955e+003,3.463723e-003
3.077884e+003,3.411010e-003
3.079812e+003,3.254674e-003
3.081741e+003,3.042951e-003
3.083669e+003,2.885140e-003
3.085598e+003,2.790429e-003
3.087526e+003,2.633482e-003
3.089455e+003,2.433062e-003
3.091383e+003,2.211690e-003
3.093312e+003,1.922235e-003
3.095240e+003,1.708806e-003
3.097169e+003,1.480378e-003
3.099097e+003,1.163423e-003
3.101026e+003,1.063116e-003
3.102954e+003,9.831339e-004
3.104883e+003,9.228885e-004
3.106811e+003,8.445978e-004
3.108740e+003,6.011501e-004
3.110668e+003,4.002005e-004
3.112597e+003,2.515092e-004
3.114525e+003,2.380088e-004
3.116454e+003,2.089813e-004
3.118382e+003,8.481741e-005
3.120311e+003,-2.614409e-005
3.122239e+003,-5.734712e-005
3.124168e+003,-7.009506e-005
3.126096e+003,-5.710870e-005
3.128025e+003,-8.085370e-005
3.129953e+003,-8.420646e-005
3.131882e+003,-1.314878e-004
3.133810e+003,-1.123771e-004
3.135739e+003,-9.312481e-005
3.137667e+003,-1.317114e-004
3.139596e+003,-2.090558e-004
3.141524e+003,-2.145097e-004
3.143453e+003,-1.933128e-004
3.145381e+003,-2.368987e-004
3.147310e+003,-1.765266e-004
3.149238e+003,-8.518249e-005
3.151167e+003,-1.677796e-004
3.153095e+003,-2.366751e-004
3.155024e+003,-3.343821e-004
3.156952e+003,-3.690347e-004
3.158881e+003,-2.906173e-004
3.160809e+003,-3.011525e-004
3.162738e+003,-3.521666e-004
3.164666e+003,-2.831370e-004
3.166594e+003,-1.854822e-004
3.168523e+003,-7.295609e-005
3.170452e+003,-1.705289e-004
3.172380e+003,-2.517551e-004
3.174309e+003,-1.781210e-004
3.176237e+003,-1.011565e-004
3.178166e+003,-1.277030e-004
3.180094e+003,-1.281872e-004
3.182022e+003,-8.976460e-005
3.183951e+003,-9.883940e-005
3.185880e+003,-1.853034e-004
3.187808e+003,-1.700819e-004
3.189737e+003,-1.058877e-004
3.191665e+003,-8.781254e-005
3.193594e+003,-1.237914e-004
3.195522e+003,-1.766011e-004
3.197450e+003,-1.603365e-004
3.199379e+003,-1.371056e-004
3.201308e+003,-1.625493e-004
3.203236e+003,-1.196414e-004
3.205165e+003,-1.124069e-004
3.207093e+003,-2.133101e-004
3.209021e+003,-2.074838e-004
3.210950e+003,-1.637265e-004
3.212878e+003,-9.468943e-005
3.214807e+003,-3.593415e-005
3.216736e+003,-6.111711e-005
3.218664e+003,-7.695705e-005
3.220593e+003,-1.038909e-004
3.222521e+003,-1.301840e-004
3.224449e+003,-2.236292e-004
3.226378e+003,-2.243519e-004
3.228307e+003,-1.145378e-004
3.230235e+003,-6.413460e-005
3.232164e+003,-1.121387e-004
3.234092e+003,-5.078316e-005
3.236021e+003,-7.297844e-005
3.237949e+003,-3.980100e-005
3.239877e+003,-4.656613e-006
3.241806e+003,-2.436340e-005
3.243735e+003,-5.161017e-005
3.245663e+003,2.816319e-006
3.247592e+003,7.461011e-005
3.249520e+003,1.717731e-004
3.251448e+003,1.160726e-004
3.253377e+003,1.317263e-004
3.255305e+003,2.140403e-004
3.257234e+003,1.790375e-004
3.259163e+003,1.980513e-004
3.261091e+003,2.338961e-004
3.263020e+003,2.440363e-004
3.264948e+003,2.131984e-004
3.266876e+003,1.711026e-004
3.268805e+003,2.325550e-004
3.270733e+003,3.727674e-004
3.272662e+003,5.102828e-004
3.274591e+003,4.585907e-004
3.276519e+003,3.099889e-004
3.278448e+003,2.898574e-004
3.280376e+003,4.211888e-004
3.282304e+003,4.933998e-004
3.284233e+003,4.294589e-004
3.286161e+003,3.768355e-004
3.288090e+003,4.175529e-004
3.290019e+003,4.120395e-004
3.291947e+003,4.133359e-004
3.293875e+003,4.109293e-004
3.295804e+003,3.236979e-004
3.297732e+003,3.647134e-004
3.299661e+003,5.540177e-004
3.301589e+003,6.230175e-004
3.303518e+003,5.009174e-004
3.305447e+003,3.283769e-004
3.307375e+003,2.475008e-004
3.309303e+003,3.382713e-004
3.311232e+003,3.676042e-004
3.313160e+003,4.120991e-004
3.315089e+003,3.890693e-004
3.317018e+003,3.726482e-004
3.318946e+003,4.306957e-004
3.320875e+003,4.281402e-004
3.322803e+003,4.519001e-004
3.324731e+003,5.595312e-004
3.326660e+003,6.198063e-004
3.328588e+003,6.494522e-004
3.330517e+003,6.668568e-004
3.332446e+003,5.647093e-004
3.334374e+003,4.481822e-004
3.336302e+003,4.854947e-004
3.338231e+003,5.422905e-004
3.340159e+003,5.425662e-004
3.342088e+003,5.501136e-004
3.344016e+003,5.039573e-004
3.345945e+003,5.190969e-004
3.347874e+003,5.454272e-004
3.349802e+003,5.170256e-004
3.351730e+003,5.935654e-004
3.353659e+003,5.946755e-004
3.355587e+003,4.963353e-004
3.357516e+003,4.741922e-004
3.359444e+003,4.441217e-004
3.361373e+003,5.243719e-004
3.363302e+003,6.446987e-004
3.365230e+003,5.450323e-004
3.367158e+003,5.571991e-004
3.369087e+003,5.961061e-004
3.371015e+003,5.134940e-004
3.372944e+003,5.218759e-004
3.374872e+003,6.128997e-004
3.376801e+003,5.815402e-004
3.378729e+003,4.784539e-004
3.380658e+003,4.346594e-004
3.382586e+003,3.518984e-004
3.384515e+003,3.417954e-004
3.386443e+003,3.935695e-004
3.388372e+003,3.408343e-004
3.390300e+003,2.251193e-004
3.392229e+003,3.928989e-004
3.394157e+003,4.727840e-004
3.396086e+003,3.741011e-004
3.398014e+003,2.758875e-004
3.399943e+003,2.026185e-004
3.401871e+003,1.902208e-004
3.403800e+003,1.854450e-004
3.405728e+003,1.782775e-004
3.407657e+003,2.536774e-004
3.409585e+003,3.468543e-004
3.411514e+003,3.171489e-004
3.413442e+003,2.307743e-004
3.415371e+003,1.883805e-004
3.417299e+003,6.542355e-005
3.419228e+003,7.924438e-005
3.421156e+003,1.841411e-004
3.423085e+003,7.703900e-005
3.425013e+003,5.533546e-005
3.426942e+003,6.016344e-005
3.428870e+003,1.282394e-004
3.430799e+003,2.231076e-004
3.432727e+003,1.901090e-004
3.434656e+003,1.402125e-004
3.436584e+003,2.518296e-005
3.438513e+003,-9.383261e-005
3.440441e+003,2.937764e-005
3.442370e+003,1.194179e-004
3.444298e+003,9.408593e-005
3.446227e+003,2.468899e-004
3.448155e+003,2.681613e-004
3.450084e+003,6.718189e-005
3.452012e+003,-6.368011e-005
3.453941e+003,-1.504719e-004
3.455869e+003,-5.862117e-005
3.457798e+003,-4.111975e-005
3.459726e+003,-1.668632e-004
3.461655e+003,-1.683459e-004
3.463583e+003,-1.647174e-004
3.465512e+003,-1.924410e-004
3.467440e+003,-2.539977e-004
3.469369e+003,-3.048033e-004
3.471297e+003,-2.788678e-004
3.473226e+003,-3.730878e-004
3.475154e+003,-4.021153e-004
3.477083e+003,-4.321411e-004
3.479011e+003,-4.158542e-004
3.480940e+003,-3.613532e-004
3.482868e+003,-3.229156e-004
3.484797e+003,-3.654361e-004
3.486725e+003,-4.027635e-004
3.488654e+003,-4.398823e-004
3.490582e+003,-5.827546e-004
3.492511e+003,-6.765798e-004
3.494439e+003,-6.490946e-004
3.496368e+003,-6.313995e-004
3.498296e+003,-6.383285e-004
3.500225e+003,-6.042942e-004
3.502153e+003,-4.378632e-004
3.504082e+003,-4.291013e-004
3.506010e+003,-5.405471e-004
3.507939e+003,-6.591156e-004
3.509867e+003,-6.913245e-004
3.511796e+003,-7.108822e-004
3.513724e+003,-7.132292e-004
3.515653e+003,-7.903650e-004
3.517581e+003,-7.763654e-004
3.519510e+003,-7.698685e-004
3.521438e+003,-8.255690e-004
3.523367e+003,-7.220283e-004
3.525295e+003,-8.039623e-004
3.527224e+003,-7.647052e-004
3.529152e+003,-8.592531e-004
3.531081e+003,-1.103781e-003
3.533009e+003,-1.092725e-003
3.534938e+003,-9.383410e-004
3.536866e+003,-8.472353e-004
3.538795e+003,-1.016147e-003
3.540723e+003,-1.189694e-003
3.542652e+003,-1.232557e-003
3.544580e+003,-9.778291e-004
3.546509e+003,-7.197931e-004
3.548437e+003,-9.234548e-004
3.550366e+003,-1.103774e-003
3.552294e+003,-8.790269e-004
3.554223e+003,-8.470118e-004
3.556151e+003,-1.051538e-003
3.558080e+003,-1.076199e-003
3.560008e+003,-9.058565e-004
3.561937e+003,-1.097642e-003
3.563865e+003,-1.237519e-003
3.565794e+003,-6.543994e-004
3.567722e+003,-6.429851e-005
3.569651e+003,-6.167516e-004
3.571579e+003,-1.056209e-003
3.573508e+003,-1.148112e-003
3.575436e+003,-1.084737e-003
3.577365e+003,-1.104176e-003
3.579293e+003,-1.088001e-003
3.581222e+003,-1.135699e-003
3.583150e+003,-1.152180e-003
3.585079e+003,-8.132979e-004
3.587007e+003,1.600608e-004
3.588936e+003,9.626895e-005
3.590864e+003,-5.090833e-004
3.592793e+003,-3.356859e-004
3.594721e+003,3.004447e-004
3.596650e+003,7.327572e-004
3.598578e+003,9.977967e-004
3.600507e+003,1.295410e-003
3.602435e+003,1.277454e-003
3.604364e+003,1.075134e-003
3.606292e+003,1.302376e-003
3.608221e+003,1.502134e-003
3.610149e+003,1.045123e-003
3.612078e+003,1.035348e-003
3.614006e+003,9.929463e-004
3.615935e+003,5.546138e-004
3.617863e+003,6.445795e-004
3.619792e+003,9.363964e-004
3.621720e+003,3.508031e-004
3.623649e+003,-1.697391e-004
3.625577e+003,-2.820641e-004
3.627506e+003,5.776808e-004
3.629434e+003,1.592882e-003
3.631363e+003,5.330220e-004
3.633291e+003,3.927127e-004
3.635220e+003,2.688617e-004
3.637148e+003,1.498684e-004
3.639077e+003,1.571402e-004
3.641005e+003,1.889244e-004
3.642934e+003,6.610900e-005
3.644862e+003,-1.721382e-004
3.646791e+003,5.598590e-004
3.648719e+003,2.271429e-003
3.650648e+003,2.098896e-003
3.652576e+003,6.074756e-004
3.654505e+003,1.745448e-004
3.656433e+003,4.874244e-004
3.658362e+003,1.542270e-004
3.660290e+003,-1.171231e-004
3.662219e+003,-2.731085e-004
3.664147e+003,-3.537014e-004
3.666076e+003,-3.500283e-004
3.668004e+003,2.197996e-004
3.669933e+003,1.327761e-003
3.671861e+003,6.149411e-004
3.673790e+003,5.163923e-004
3.675718e+003,1.534939e-003
3.677647e+003,5.809367e-004
3.679575e+003,2.513602e-004
3.681504e+003,-1.333952e-004
3.683432e+003,-4.328042e-004
3.685361e+003,-6.146282e-004
3.687289e+003,-9.507686e-005
3.689218e+003,9.188652e-004
3.691146e+003,1.009516e-003
3.693075e+003,3.617033e-004
3.695003e+003,-1.072735e-004
3.696932e+003,-2.485663e-004
3.698860e+003,-3.178567e-004
3.700789e+003,1.142547e-004
3.702717e+003,3.057793e-004
3.704646e+003,-1.981109e-005
3.706574e+003,-2.563596e-004
3.708503e+003,-1.525804e-004
3.710431e+003,9.396970e-004
3.712360e+003,1.136430e-003
3.714288e+003,2.824515e-004
3.716217e+003,-1.508147e-004
3.718145e+003,-2.411902e-004
3.720074e+003,-2.208650e-004
3.722002e+003,5.605072e-005
3.723931e+003,1.723245e-004
3.725859e+003,5.822331e-004
3.727788e+003,4.006699e-004
3.729716e+003,-1.329556e-004
3.731645e+003,2.295822e-004
3.733573e+003,1.304768e-003
3.735502e+003,2.579205e-003
3.737430e+003,1.685187e-003
3.739359e+003,6.520078e-004
3.741287e+003,1.132041e-004
3.743216e+003,9.315088e-004
3.745144e+003,2.068631e-003
3.747073e+003,1.002461e-003
3.749001e+003,1.428731e-003
3.750930e+003,2.389900e-003
3.752858e+003,1.804657e-003
3.754787e+003,5.837008e-004
3.756715e+003,3.016666e-004
3.758644e+003,5.648956e-004
3.760572e+003,6.004944e-004
3.762501e+003,6.689876e-005
3.764429e+003,-1.516938e-005
3.766358e+003,1.790151e-004
3.768286e+003,4.035607e-004
3.770215e+003,7.531494e-004
3.772143e+003,3.441125e-004
3.774072e+003,-6.804615e-005
3.776000e+003,-2.623796e-004
3.777929e+003,-7.957220e-005
3.779857e+003,4.749894e-004
3.781786e+003,1.623258e-004
3.783714e+003,1.678988e-004
3.785643e+003,3.565326e-004
3.787571e+003,2.326071e-004
3.789500e+003,1.789033e-004
3.791428e+003,1.598597e-004
3.793357e+003,1.105964e-004
3.795285e+003,4.405901e-004
3.797214e+003,4.818812e-004
3.799142e+003,9.777397e-005
3.801071e+003,9.857267e-004
3.802999e+003,9.458065e-004
3.804927e+003,5.394518e-004
3.806856e+003,1.029812e-003
3.808785e+003,8.530319e-004
3.810713e+003,5.644187e-004
3.812642e+003,3.357604e-004
3.814570e+003,5.141422e-004
3.816499e+003,9.929761e-004
3.818427e+003,7.964298e-004
3.820355e+003,1.845025e-003
3.822284e+003,1.901425e-003
3.824213e+003,9.951591e-004
3.826141e+003,9.066090e-004
3.828070e+003,6.038845e-004
3.829998e+003,5.103573e-004
3.831927e+003,7.807165e-004
3.833855e+003,7.894561e-004
3.835783e+003,1.166686e-003
3.837712e+003,1.948789e-003
3.839641e+003,1.913607e-003
3.841569e+003,1.323834e-003
3.843498e+003,1.214899e-003
3.845426e+003,9.766370e-004
3.847354e+003,5.697459e-004
3.849283e+003,3.843755e-004
3.851211e+003,8.470491e-004
3.853140e+003,3.155269e-003
3.855069e+003,2.503559e-003
3.856997e+003,1.485378e-003
3.858926e+003,8.872747e-004
3.860854e+003,9.016618e-004
3.862782e+003,1.221932e-003
3.864711e+003,1.587905e-003
3.866640e+003,1.151405e-003
3.868568e+003,1.265794e-003
3.870497e+003,1.970239e-003
3.872425e+003,1.551792e-003
3.874354e+003,1.567639e-003
3.876282e+003,9.947345e-004
3.878210e+003,7.317141e-004
3.880139e+003,1.462623e-003
3.882068e+003,1.545124e-003
3.883996e+003,1.372874e-003
3.885925e+003,1.704372e-003
3.887853e+003,1.174264e-003
3.889781e+003,1.232997e-003
3.891710e+003,1.636788e-003
3.893638e+003,1.330957e-003
3.895567e+003,1.079559e-003
3.897496e+003,1.136839e-003
3.899424e+003,1.455903e-003
3.901353e+003,1.733258e-003
3.903281e+003,2.129972e-003
3.905209e+003,2.085149e-003
3.907138e+003,1.480512e-003
3.909066e+003,1.286782e-003
3.910995e+003,1.247644e-003
3.912924e+003,1.004443e-003
3.914852e+003,1.154311e-003
3.916781e+003,1.607813e-003
3.918709e+003,1.556799e-003
3.920637e+003,1.295015e-003
3.922566e+003,1.087844e-003
3.924494e+003,1.414977e-003
3.926423e+003,1.394488e-003
3.928352e+003,1.204841e-003
3.930280e+003,1.257539e-003
3.932208e+003,1.328915e-003
3.934137e+003,1.297303e-003
3.936065e+003,1.127407e-003
3.937994e+003,9.783804e-004
3.939922e+003,8.395910e-004
3.941851e+003,1.089074e-003
3.943780e+003,1.325689e-003
3.945708e+003,1.085795e-003
3.947636e+003,9.860173e-004
3.949565e+003,9.970963e-004
3.951493e+003,9.179786e-004
3.953422e+003,9.819046e-004
3.955351e+003,1.013547e-003
3.957279e+003,9.382069e-004
3.959208e+003,9.495467e-004
3.961136e+003,9.780079e-004
3.963064e+003,9.764209e-004
3.964993e+003,9.754002e-004
3.966921e+003,1.053095e-003
3.968850e+003,1.131274e-003
3.970779e+003,1.126975e-003
3.972707e+003,1.072161e-003
3.974635e+003,1.005277e-003
3.976564e+003,1.153283e-003
3.978492e+003,1.272365e-003
3.980421e+003,1.255952e-003
3.982349e+003,1.230143e-003
3.984278e+003,1.130275e-003
3.986207e+003,1.040280e-003
3.988135e+003,1.047380e-003
3.990063e+003,1.070879e-003
3.991992e+003,1.103655e-003
3.993920e+003,1.102380e-003
3.995849e+003,1.044124e-003
3.997777e+003,1.033284e-003
3.999706e+003,1.104288e-003
4.001635e+003,0.000000e+000
