3.991992e+002,0.000000e+000
4.011277e+002,0.000000e+000
4.030562e+002,0.000000e+000
4.049846e+002,0.000000e+000
4.069131e+002,0.000000e+000
4.088416e+002,0.000000e+000
4.107701e+002,0.000000e+000
4.126986e+002,0.000000e+000
4.146271e+002,0.000000e+000
4.165556e+002,0.000000e+000
4.184841e+002,0.000000e+000
4.204126e+002,0.000000e+000
4.223411e+002,0.000000e+000
4.242697e+002,0.000000e+000
4.261982e+002,0.000000e+000
4.281266e+002,0.000000e+000
4.300551e+002,0.000000e+000
4.319836e+002,0.000000e+000
4.339121e+002,0.000000e+000
4.358406e+002,0.000000e+000
4.377691e+002,0.000000e+000
4.396976e+002,0.000000e+000
4.416261e+002,0.000000e+000
4.435546e+002,0.000000e+000
4.454831e+002,0.000000e+000
4.474116e+002,0.000000e+000
4.493401e+002,0.000000e+000
4.512686e+002,0.000000e+000
4.531971e+002,0.000000e+000
4.551256e+002,0.000000e+000
4.570541e+002,0.000000e+000
4.589826e+002,0.000000e+000
4.609111e+002,0.000000e+000
4.628396e+002,0.000000e+000
4.647681e+002,0.000000e+000
4.666966e+002,0.000000e+000
4.686251e+002,0.000000e+000
4.705536e+002,0.000000e+000
4.724821e+002,0.000000e+000
4.744106e+002,0.000000e+000
4.763391e+002,0.000000e+000
4.782676e+002,0.000000e+000
4.801961e+002,0.000000e+000
4.821246e+002,0.000000e+000
4.840531e+002,0.000000e+000
4.859816e+002,0.000000e+000
4.879101e+002,0.000000e+000
4.898386e+002,0.000000e+000
4.917671e+002,0.000000e+000
4.936956e+002,0.000000e+000
4.956241e+002,0.000000e+000
4.975526e+002,0.000000e+000
4.994811e+002,0.000000e+000
5.014096e+002,0.000000e+000
5.033381e+002,0.000000e+000
5.052666e+002,0.000000e+000
5.071951e+002,0.000000e+000
5.091236e+002,0.000000e+000
5.110521e+002,0.000000e+000
5.129806e+002,0.000000e+000
5.149091e+002,0.000000e+000
5.168376e+002,0.000000e+000
5.187661e+002,0.000000e+000
5.206946e+002,0.000000e+000
5.226230e+002,0.000000e+000
5.245516e+002,-1.134062e-004
5.264800e+002,-1.926878e-004
5.284086e+002,-2.683653e-004
5.303370e+002,-3.250735e-004
5.322656e+002,-2.973219e-004
5.341940e+002,-3.408734e-004
5.361226e+002,-3.596032e-004
5.380510e+002,-5.214047e-004
5.399796e+002,-5.150232e-004
5.419081e+002,-3.847405e-004
5.438365e+002,-3.071679e-004
5.457650e+002,-3.175493e-004
5.476935e+002,-3.617257e-004
5.496221e+002,-2.887128e-004
5.515505e+002,-1.474880e-004
5.534790e+002,-2.300553e-005
5.554075e+002,7.149111e-005
5.573361e+002,-2.810173e-005
5.592645e+002,-1.030732e-004
5.611931e+002,-2.059368e-004
5.631215e+002,-2.249544e-004
5.650500e+002,-2.230713e-004
5.669785e+002,-2.514450e-004
5.689070e+002,-3.881529e-004
5.708355e+002,-4.464462e-004
5.727640e+002,-4.831562e-004
5.746925e+002,-3.742073e-004
5.766210e+002,-3.187452e-004
5.785495e+002,-3.578635e-004
5.804780e+002,-4.259879e-004
5.824065e+002,-4.140222e-004
5.843350e+002,-3.978899e-004
5.862635e+002,-3.482839e-004
5.881920e+002,-3.478937e-004
5.901205e+002,-2.758261e-004
5.920490e+002,-2.147267e-004
5.939775e+002,-1.694262e-004
5.959060e+002,-2.163649e-004
5.978345e+002,-8.098874e-005
5.997630e+002,-7.885881e-005
6.016915e+002,-1.224335e-004
6.036200e+002,-1.631835e-004
6.055485e+002,-2.477877e-005
6.074770e+002,5.587656e-005
6.094055e+002,5.775504e-005
6.113340e+002,5.772896e-005
6.132625e+002,2.099480e-005
6.151910e+002,-8.760672e-005
6.171195e+002,-1.201732e-004
6.190480e+002,-6.246381e-005
6.209765e+002,5.594455e-005
6.229050e+002,1.729419e-004
6.248335e+002,2.822308e-004
6.267620e+002,2.414212e-004
6.286905e+002,2.641007e-004
6.306190e+002,2.677720e-004
6.325475e+002,3.245343e-004
6.344760e+002,3.598928e-004
6.364045e+002,5.533267e-004
6.383330e+002,6.420342e-004
6.402615e+002,6.849784e-004
6.421899e+002,6.029783e-004
6.441185e+002,6.200438e-004
6.460470e+002,6.537996e-004
6.479755e+002,6.655194e-004
6.499039e+002,6.340472e-004
6.518325e+002,6.375508e-004
6.537610e+002,6.690165e-004
6.556895e+002,7.589757e-004
6.576179e+002,8.056518e-004
6.595464e+002,9.032460e-004
6.614750e+002,9.213174e-004
6.634034e+002,8.599842e-004
6.653319e+002,8.089067e-004
6.672604e+002,1.029740e-003
6.691890e+002,1.099447e-003
6.711174e+002,1.189926e-003
6.730460e+002,1.287957e-003
6.749745e+002,1.379035e-003
6.769030e+002,1.406001e-003
6.788314e+002,1.514879e-003
6.807599e+002,1.519421e-003
6.826885e+002,1.677166e-003
6.846169e+002,1.908443e-003
6.865454e+002,2.072984e-003
6.884739e+002,2.095683e-003
6.904025e+002,2.445024e-003
6.923309e+002,2.809166e-003
6.942594e+002,3.209916e-003
6.961879e+002,3.664558e-003
6.981165e+002,4.329710e-003
7.000449e+002,5.192216e-003
7.019734e+002,6.522257e-003
7.039019e+002,8.091250e-003
7.058304e+002,1.033883e-002
7.077589e+002,1.336389e-002
7.096874e+002,1.799238e-002
7.116159e+002,2.534806e-002
7.135444e+002,3.933717e-002
7.154729e+002,6.450535e-002
7.174014e+002,9.919917e-002
7.193299e+002,1.127575e-001
7.212584e+002,8.291354e-002
7.231869e+002,5.423125e-002
7.251154e+002,4.403833e-002
7.270439e+002,4.799253e-002
7.289724e+002,6.317816e-002
7.309009e+002,6.077896e-002
7.328294e+002,3.450043e-002
7.347579e+002,1.693510e-002
7.366864e+002,1.078146e-002
7.386149e+002,8.235529e-003
7.405434e+002,6.741828e-003
7.424719e+002,5.854240e-003
7.444004e+002,5.138050e-003
7.463289e+002,4.659122e-003
7.482574e+002,4.222207e-003
7.501859e+002,3.887247e-003
7.521144e+002,3.601743e-003
7.540428e+002,3.390528e-003
7.559714e+002,3.123091e-003
7.578999e+002,2.965098e-003
7.598284e+002,2.795944e-003
7.617568e+002,2.642333e-003
7.636854e+002,2.483280e-003
7.656139e+002,2.378845e-003
7.675424e+002,2.315165e-003
7.694709e+002,2.301186e-003
7.713994e+002,2.151226e-003
7.733279e+002,1.985732e-003
7.752563e+002,1.918145e-003
7.771849e+002,1.949550e-003
7.791134e+002,1.900922e-003
7.810419e+002,1.893130e-003
7.829703e+002,1.955097e-003
7.848989e+002,1.986272e-003
7.868274e+002,1.985634e-003
7.887559e+002,1.927317e-003
7.906843e+002,1.905383e-003
7.926129e+002,1.963237e-003
7.945414e+002,2.023360e-003
7.964698e+002,2.158236e-003
7.983983e+002,2.199952e-003
8.003268e+002,2.200356e-003
8.022554e+002,2.290890e-003
8.041838e+002,2.353637e-003
8.061123e+002,2.358876e-003
8.080408e+002,2.457914e-003
8.099694e+002,2.569985e-003
8.118978e+002,2.594878e-003
8.138263e+002,2.631796e-003
8.157548e+002,2.578432e-003
8.176833e+002,2.489449e-003
8.196118e+002,2.307268e-003
8.215403e+002,1.996206e-003
8.234689e+002,1.601378e-003
8.253973e+002,1.167972e-003
8.273258e+002,7.575070e-004
8.292543e+002,4.978701e-004
8.311829e+002,3.874656e-004
8.331113e+002,2.899589e-004
8.350398e+002,1.694821e-004
8.369683e+002,7.866044e-005
8.388969e+002,4.166551e-005
8.408253e+002,-1.311861e-005
8.427538e+002,-2.718903e-005
8.446823e+002,-9.702519e-006
8.466108e+002,-9.273645e-005
8.485393e+002,-1.043603e-004
8.504678e+002,-5.104393e-005
8.523963e+002,1.674797e-005
8.543248e+002,7.668603e-005
8.562533e+002,1.356639e-004
8.581818e+002,1.886496e-004
8.601103e+002,3.304817e-004
8.620388e+002,5.324790e-004
8.639673e+002,7.461468e-004
8.658958e+002,9.079110e-004
8.678243e+002,1.044942e-003
8.697528e+002,1.144052e-003
8.716813e+002,1.242127e-003
8.736098e+002,1.228078e-003
8.755383e+002,1.174629e-003
8.774668e+002,1.216769e-003
8.793953e+002,1.258169e-003
8.813238e+002,1.057555e-003
8.832523e+002,9.551421e-004
8.851808e+002,1.051960e-003
8.871093e+002,1.134789e-003
8.890378e+002,1.049134e-003
8.909663e+002,8.934746e-004
8.928948e+002,7.997286e-004
8.948232e+002,7.465836e-004
8.967518e+002,6.893361e-004
8.986803e+002,6.571617e-004
9.006088e+002,6.451635e-004
9.025372e+002,7.364657e-004
9.044658e+002,9.510601e-004
9.063943e+002,1.355330e-003
9.083228e+002,1.630381e-003
9.102512e+002,1.491243e-003
9.121797e+002,1.017689e-003
9.141083e+002,6.273258e-004
9.160367e+002,3.403006e-004
9.179653e+002,2.268720e-004
9.198937e+002,1.195297e-004
9.218223e+002,5.788170e-005
9.237507e+002,4.947744e-005
9.256793e+002,6.888807e-005
9.276077e+002,7.665437e-005
9.295363e+002,1.636939e-004
9.314647e+002,2.473500e-004
9.333932e+002,3.657378e-004
9.353217e+002,4.344424e-004
9.372502e+002,5.119275e-004
9.391787e+002,5.946057e-004
9.411072e+002,6.794799e-004
9.430358e+002,7.326435e-004
9.449642e+002,7.889559e-004
9.468928e+002,8.663265e-004
9.488212e+002,9.503411e-004
9.507498e+002,1.003897e-003
9.526782e+002,1.133954e-003
9.546068e+002,1.269692e-003
9.565352e+002,1.409715e-003
9.584637e+002,1.555256e-003
9.603922e+002,1.699567e-003
9.623207e+002,1.796981e-003
9.642492e+002,1.896814e-003
9.661777e+002,1.895266e-003
9.681062e+002,1.953809e-003
9.700347e+002,2.036979e-003
9.719632e+002,2.084341e-003
9.738917e+002,2.122229e-003
9.758202e+002,2.184315e-003
9.777487e+002,2.182576e-003
9.796772e+002,2.195998e-003
9.816057e+002,2.209502e-003
9.835342e+002,2.288415e-003
9.854627e+002,2.460384e-003
9.873912e+002,2.742413e-003
9.893197e+002,3.031991e-003
9.912482e+002,3.382874e-003
9.931767e+002,3.731528e-003
9.951052e+002,4.147248e-003
9.970337e+002,4.583835e-003
9.989622e+002,5.052354e-003
1.000891e+003,5.532490e-003
1.002819e+003,6.071223e-003
1.004748e+003,6.589122e-003
1.006676e+003,7.121804e-003
1.008605e+003,7.612454e-003
1.010533e+003,8.209337e-003
1.012462e+003,8.760503e-003
1.014390e+003,9.275860e-003
1.016319e+003,9.740422e-003
1.018247e+003,1.015810e-002
1.020176e+003,1.050848e-002
1.022104e+003,1.089518e-002
1.024033e+003,1.119683e-002
1.025961e+003,1.148695e-002
1.027890e+003,1.168453e-002
1.029818e+003,1.183153e-002
1.031747e+003,1.193172e-002
1.033675e+003,1.195878e-002
1.035604e+003,1.180166e-002
1.037532e+003,1.163185e-002
1.039461e+003,1.141849e-002
1.041389e+003,1.122069e-002
1.043318e+003,1.099974e-002
1.045246e+003,1.089258e-002
1.047175e+003,1.090785e-002
1.049103e+003,1.116029e-002
1.051032e+003,1.137534e-002
1.052960e+003,1.149921e-002
1.054889e+003,1.166191e-002
1.056817e+003,1.183962e-002
1.058746e+003,1.202779e-002
1.060674e+003,1.231150e-002
1.062603e+003,1.246372e-002
1.064531e+003,1.254291e-002
1.066460e+003,1.258462e-002
1.068388e+003,1.266664e-002
1.070317e+003,1.276058e-002
1.072245e+003,1.296808e-002
1.074174e+003,1.322774e-002
1.076102e+003,1.344342e-002
1.078031e+003,1.348676e-002
1.079959e+003,1.352711e-002
1.081888e+003,1.346769e-002
1.083816e+003,1.338274e-002
1.085745e+003,1.324046e-002
1.087673e+003,1.305345e-002
1.089602e+003,1.280742e-002
1.091530e+003,1.253921e-002
1.093459e+003,1.221764e-002
1.095387e+003,1.185818e-002
1.097316e+003,1.143544e-002
1.099244e+003,1.112479e-002
1.101173e+003,1.078071e-002
1.103101e+003,1.043153e-002
1.105030e+003,1.009046e-002
1.106958e+003,9.811815e-003
1.108887e+003,9.547846e-003
1.110815e+003,9.304235e-003
1.112744e+003,8.991618e-003
1.114672e+003,8.777333e-003
1.116601e+003,8.544538e-003
1.118529e+003,8.390058e-003
1.120458e+003,8.271469e-003
1.122386e+003,8.175364e-003
1.124315e+003,8.017452e-003
1.126243e+003,7.909013e-003
1.128172e+003,7.828543e-003
1.130100e+003,7.792868e-003
1.132029e+003,7.755095e-003
1.133957e+003,7.806094e-003
1.135885e+003,7.880067e-003
1.137814e+003,8.106956e-003
1.139743e+003,8.340396e-003
1.141671e+003,8.590629e-003
1.143600e+003,8.948470e-003
1.145528e+003,9.430522e-003
1.147457e+003,9.893531e-003
1.149385e+003,1.043703e-002
1.151314e+003,1.093929e-002
1.153242e+003,1.135461e-002
1.155171e+003,1.146456e-002
1.157099e+003,1.130596e-002
1.159028e+003,1.093670e-002
1.160956e+003,1.052263e-002
1.162885e+003,9.970883e-003
1.164813e+003,9.433756e-003
1.166742e+003,8.868216e-003
1.168670e+003,8.326512e-003
1.170599e+003,7.731540e-003
1.172527e+003,7.249119e-003
1.174456e+003,6.810382e-003
1.176384e+003,6.454697e-003
1.178313e+003,6.025819e-003
1.180241e+003,5.630266e-003
1.182170e+003,5.338389e-003
1.184098e+003,5.208408e-003
1.186027e+003,5.094429e-003
1.187955e+003,5.027255e-003
1.189884e+003,4.980864e-003
1.191812e+003,5.040074e-003
1.193740e+003,5.088922e-003
1.195669e+003,5.238147e-003
1.197598e+003,5.399195e-003
1.199526e+003,5.633174e-003
1.201455e+003,5.938990e-003
1.203383e+003,6.379107e-003
1.205312e+003,6.835587e-003
1.207240e+003,7.313274e-003
1.209168e+003,7.694943e-003
1.211097e+003,8.090116e-003
1.213026e+003,8.435968e-003
1.214954e+003,8.821685e-003
1.216883e+003,9.101354e-003
1.218811e+003,9.378519e-003
1.220740e+003,9.610794e-003
1.222668e+003,9.874947e-003
1.224596e+003,1.007138e-002
1.226525e+003,1.028561e-002
1.228453e+003,1.041904e-002
1.230382e+003,1.061908e-002
1.232311e+003,1.082961e-002
1.234239e+003,1.106993e-002
1.236167e+003,1.118799e-002
1.238096e+003,1.131298e-002
1.240025e+003,1.135123e-002
1.241953e+003,1.135725e-002
1.243882e+003,1.127210e-002
1.245810e+003,1.113233e-002
1.247739e+003,1.084607e-002
1.249667e+003,1.058024e-002
1.251595e+003,1.026572e-002
1.253524e+003,1.000213e-002
1.255453e+003,9.691030e-003
1.257381e+003,9.420890e-003
1.259310e+003,9.105098e-003
1.261238e+003,8.826850e-003
1.263167e+003,8.471224e-003
1.265095e+003,8.172868e-003
1.267023e+003,7.849842e-003
1.268952e+003,7.663077e-003
1.270880e+003,7.530376e-003
1.272809e+003,7.487362e-003
1.274738e+003,7.420074e-003
1.276666e+003,7.447235e-003
1.278594e+003,7.406943e-003
1.280523e+003,7.459113e-003
1.282451e+003,7.530859e-003
1.284380e+003,7.688994e-003
1.286308e+003,7.829810e-003
1.288237e+003,8.083748e-003
1.290166e+003,8.357706e-003
1.292094e+003,8.774990e-003
1.294022e+003,9.197511e-003
1.295951e+003,9.711701e-003
1.297879e+003,1.010187e-002
1.299808e+003,1.042699e-002
1.301736e+003,1.056929e-002
1.303665e+003,1.067792e-002
1.305594e+003,1.064328e-002
1.307522e+003,1.056531e-002
1.309450e+003,1.030332e-002
1.311379e+003,9.976119e-003
1.313307e+003,9.482343e-003
1.315236e+003,9.083919e-003
1.317164e+003,8.666487e-003
1.319093e+003,8.277837e-003
1.321021e+003,7.820342e-003
1.322950e+003,7.520664e-003
1.324878e+003,7.244909e-003
1.326807e+003,7.167041e-003
1.328735e+003,7.070027e-003
1.330664e+003,7.113291e-003
1.332592e+003,7.285334e-003
1.334521e+003,7.690763e-003
1.336449e+003,8.227788e-003
1.338378e+003,9.031948e-003
1.340306e+003,9.666383e-003
1.342235e+003,1.009489e-002
1.344163e+003,1.051723e-002
1.346092e+003,1.117841e-002
1.348021e+003,1.183540e-002
1.349949e+003,1.253358e-002
1.351877e+003,1.290446e-002
1.353806e+003,1.299669e-002
1.355734e+003,1.279734e-002
1.357663e+003,1.288028e-002
1.359591e+003,1.325839e-002
1.361520e+003,1.410110e-002
1.363448e+003,1.530587e-002
1.365377e+003,1.650534e-002
1.367305e+003,1.732402e-002
1.369234e+003,1.738706e-002
1.371162e+003,1.642374e-002
1.373091e+003,1.541363e-002
1.375019e+003,1.495870e-002
1.376948e+003,1.495330e-002
1.378876e+003,1.343422e-002
1.380805e+003,1.089668e-002
1.382733e+003,8.926595e-003
1.384662e+003,8.048376e-003
1.386590e+003,7.528132e-003
1.388519e+003,7.209992e-003
1.390447e+003,6.865324e-003
1.392376e+003,6.829172e-003
1.394304e+003,6.702522e-003
1.396233e+003,6.784746e-003
1.398161e+003,6.712245e-003
1.400090e+003,6.856101e-003
1.402018e+003,6.791515e-003
1.403947e+003,7.029733e-003
1.405875e+003,7.097989e-003
1.407804e+003,7.413415e-003
1.409732e+003,7.562501e-003
1.411661e+003,7.887386e-003
1.413589e+003,8.010644e-003
1.415518e+003,8.461010e-003
1.417446e+003,8.744765e-003
1.419375e+003,9.529809e-003
1.421303e+003,9.890180e-003
1.423232e+003,1.088973e-002
1.425160e+003,1.217931e-002
1.427089e+003,1.399221e-002
1.429017e+003,1.628964e-002
1.430946e+003,1.969301e-002
1.432874e+003,2.241031e-002
1.434803e+003,2.503322e-002
1.436731e+003,2.776887e-002
1.438660e+003,3.018116e-002
1.440588e+003,3.149185e-002
1.442517e+003,3.329053e-002
1.444445e+003,3.462055e-002
1.446374e+003,3.678601e-002
1.448302e+003,3.989613e-002
1.450231e+003,4.484235e-002
1.452159e+003,5.233306e-002
1.454088e+003,6.221370e-002
1.456016e+003,7.245803e-002
1.457945e+003,9.800304e-002
1.459873e+003,1.431227e-001
1.461802e+003,1.857037e-001
1.463730e+003,1.822290e-001
1.465659e+003,1.396820e-001
1.467587e+003,1.272119e-001
1.469516e+003,1.248961e-001
1.471444e+003,1.417319e-001
1.473373e+003,1.260063e-001
1.475301e+003,6.794547e-002
1.477230e+003,2.952672e-002
1.479158e+003,1.850304e-002
1.481087e+003,1.329365e-002
1.483015e+003,1.087627e-002
1.484944e+003,8.948267e-003
1.486872e+003,8.380907e-003
1.488801e+003,7.067440e-003
1.490729e+003,6.723456e-003
1.492658e+003,5.648164e-003
1.494586e+003,5.625829e-003
1.496515e+003,4.872715e-003
1.498443e+003,4.899997e-003
1.500372e+003,4.285984e-003
1.502300e+003,4.281648e-003
1.504229e+003,3.877055e-003
1.506157e+003,4.453048e-003
1.508086e+003,3.657354e-003
1.510014e+003,3.855670e-003
1.511943e+003,3.412940e-003
1.513871e+003,3.562713e-003
1.515800e+003,3.390808e-003
1.517728e+003,3.680555e-003
1.519657e+003,3.325971e-003
1.521585e+003,3.593110e-003
1.523514e+003,3.208686e-003
1.525442e+003,3.471885e-003
1.527371e+003,3.152030e-003
1.529299e+003,3.209678e-003
1.531228e+003,3.080856e-003
1.533156e+003,3.499180e-003
1.535085e+003,3.330760e-003
1.537013e+003,3.550254e-003
1.538942e+003,3.572222e-003
1.540870e+003,4.031437e-003
1.542799e+003,3.540367e-003
1.544727e+003,3.473284e-003
1.546656e+003,3.018480e-003
1.548584e+003,3.118103e-003
1.550513e+003,2.987731e-003
1.552441e+003,3.048034e-003
1.554370e+003,2.881963e-003
1.556298e+003,3.051335e-003
1.558227e+003,2.977390e-003
1.560155e+003,2.907198e-003
1.562084e+003,2.487000e-003
1.564012e+003,2.528436e-003
1.565941e+003,2.443187e-003
1.567869e+003,2.693387e-003
1.569798e+003,2.724567e-003
1.571726e+003,2.737604e-003
1.573655e+003,2.721600e-003
1.575583e+003,3.035622e-003
1.577512e+003,2.891455e-003
1.579440e+003,2.913952e-003
1.581369e+003,2.878198e-003
1.583297e+003,2.955215e-003
1.585226e+003,2.947917e-003
1.587154e+003,3.077174e-003
1.589083e+003,3.014874e-003
1.591011e+003,3.055375e-003
1.592940e+003,2.996869e-003
1.594868e+003,3.124682e-003
1.596797e+003,3.108606e-003
1.598725e+003,3.199527e-003
1.600654e+003,3.237177e-003
1.602582e+003,3.359610e-003
1.604511e+003,3.299251e-003
1.606439e+003,3.432734e-003
1.608368e+003,3.508387e-003
1.610296e+003,3.622107e-003
1.612225e+003,3.616495e-003
1.614153e+003,3.868809e-003
1.616082e+003,4.076768e-003
1.618010e+003,4.185349e-003
1.619939e+003,4.151914e-003
1.621867e+003,4.395328e-003
1.623796e+003,4.535886e-003
1.625724e+003,4.709519e-003
1.627653e+003,4.815679e-003
1.629581e+003,4.978975e-003
1.631510e+003,5.015753e-003
1.633438e+003,5.263299e-003
1.635367e+003,5.603358e-003
1.637295e+003,5.746836e-003
1.639224e+003,5.586952e-003
1.641152e+003,5.604042e-003
1.643081e+003,5.530462e-003
1.645009e+003,5.787047e-003
1.646938e+003,5.892087e-003
1.648866e+003,5.562767e-003
1.650795e+003,5.447662e-003
1.652723e+003,5.937750e-003
1.654652e+003,5.183585e-003
1.656580e+003,4.938323e-003
1.658509e+003,4.765514e-003
1.660437e+003,4.765537e-003
1.662366e+003,4.618349e-003
1.664294e+003,4.415836e-003
1.666223e+003,4.204663e-003
1.668151e+003,4.263470e-003
1.670080e+003,3.950104e-003
1.672008e+003,3.728487e-003
1.673937e+003,3.579115e-003
1.675865e+003,3.338890e-003
1.677794e+003,3.014868e-003
1.679722e+003,3.039954e-003
1.681651e+003,2.937615e-003
1.683579e+003,3.107464e-003
1.685508e+003,2.283253e-003
1.687436e+003,2.131552e-003
1.689365e+003,1.841960e-003
1.691293e+003,1.622362e-003
1.693222e+003,1.520362e-003
1.695150e+003,1.727160e-003
1.697079e+003,1.596112e-003
1.699007e+003,1.706768e-003
1.700936e+003,1.263356e-003
1.702864e+003,1.070190e-003
1.704793e+003,1.023674e-003
1.706721e+003,1.017764e-003
1.708650e+003,8.947551e-004
1.710578e+003,9.694546e-004
1.712507e+003,1.005497e-003
1.714435e+003,1.379974e-003
1.716364e+003,1.624441e-003
1.718292e+003,1.592908e-003
1.720221e+003,1.147795e-003
1.722149e+003,1.135686e-003
1.724078e+003,1.077034e-003
1.726006e+003,1.163544e-003
1.727935e+003,1.266407e-003
1.729863e+003,1.482222e-003
1.731792e+003,1.612647e-003
1.733720e+003,2.045494e-003
1.735649e+003,1.612416e-003
1.737577e+003,1.579113e-003
1.739506e+003,1.590461e-003
1.741434e+003,1.533525e-003
1.743363e+003,1.489010e-003
1.745291e+003,1.471918e-003
1.747220e+003,1.379574e-003
1.749148e+003,1.322621e-003
1.751077e+003,8.761920e-004
1.753005e+003,4.619732e-004
1.754934e+003,1.351256e-004
1.756862e+003,-3.386661e-005
1.758791e+003,-3.136192e-004
1.760719e+003,-2.012532e-004
1.762648e+003,-3.867634e-004
1.764576e+003,-6.202571e-004
1.766505e+003,-7.238425e-004
1.768433e+003,-6.483030e-004
1.770362e+003,-5.832799e-004
1.772290e+003,-4.488062e-004
1.774219e+003,-8.722115e-004
1.776147e+003,-9.354372e-004
1.778076e+003,-9.853747e-004
1.780004e+003,-8.571912e-004
1.781933e+003,-9.176768e-004
1.783861e+003,-8.789375e-004
1.785790e+003,-1.074817e-003
1.787718e+003,-1.082938e-003
1.789646e+003,-9.070933e-004
1.791575e+003,-5.223844e-004
1.793504e+003,-7.690843e-004
1.795432e+003,-8.895900e-004
1.797361e+003,-1.000497e-003
1.799289e+003,-9.143408e-004
1.801218e+003,-9.523761e-004
1.803146e+003,-9.622704e-004
1.805074e+003,-1.092521e-003
1.807003e+003,-1.075855e-003
1.808932e+003,-1.104858e-003
1.810860e+003,-1.022667e-003
1.812789e+003,-1.274571e-003
1.814717e+003,-1.502747e-003
1.816646e+003,-1.628958e-003
1.818574e+003,-1.261499e-003
1.820502e+003,-1.244618e-003
1.822431e+003,-1.137581e-003
1.824360e+003,-1.068946e-003
1.826288e+003,-1.065707e-003
1.828217e+003,-1.043238e-003
1.830145e+003,-8.663256e-004
1.832073e+003,-1.376517e-003
1.834002e+003,-1.404967e-003
1.835931e+003,-1.430988e-003
1.837859e+003,-1.329439e-003
1.839788e+003,-1.524858e-003
1.841716e+003,-1.403050e-003
1.843645e+003,-1.181087e-003
1.845573e+003,-1.075784e-003
1.847501e+003,-1.414524e-003
1.849430e+003,-1.371484e-003
1.851359e+003,-1.433322e-003
1.853287e+003,-1.321496e-003
1.855216e+003,-1.471816e-003
1.857144e+003,-1.287719e-003
1.859073e+003,-1.276452e-003
1.861001e+003,-1.166178e-003
1.862929e+003,-1.253389e-003
1.864858e+003,-9.750314e-004
1.866787e+003,-7.226579e-004
1.868715e+003,-2.768412e-004
1.870644e+003,-8.017011e-004
1.872572e+003,-1.064725e-003
1.874500e+003,-1.303529e-003
1.876429e+003,-1.044478e-003
1.878357e+003,-1.144227e-003
1.880286e+003,-1.064334e-003
1.882215e+003,-9.867866e-004
1.884143e+003,-8.627623e-004
1.886072e+003,-1.167174e-003
1.888000e+003,-6.257053e-004
1.889928e+003,-3.833454e-004
1.891857e+003,-3.514364e-004
1.893785e+003,-3.270861e-004
1.895714e+003,1.405291e-004
1.897643e+003,-1.052227e-004
1.899571e+003,-4.271045e-005
1.901500e+003,-3.934465e-005
1.903428e+003,-3.599189e-005
1.905356e+003,-3.265217e-005
1.907285e+003,-2.932549e-005
1.909213e+003,-2.601184e-005
1.911142e+003,-2.271123e-005
1.913071e+003,-1.942553e-005
1.914999e+003,-1.615286e-005
1.916927e+003,-1.289323e-005
1.918856e+003,-9.644777e-006
1.920784e+003,-6.411225e-006
1.922713e+003,-3.192574e-006
1.924641e+003,1.490116e-008
1.926570e+003,3.209338e-006
1.928499e+003,6.392598e-006
1.930427e+003,9.560958e-006
1.932355e+003,1.271442e-005
1.934284e+003,1.585670e-005
1.936212e+003,1.898408e-005
1.938141e+003,2.209656e-005
1.940070e+003,2.519973e-005
1.941998e+003,2.828985e-005
1.943927e+003,3.136322e-005
1.945855e+003,3.442541e-005
1.947783e+003,3.747456e-005
1.949712e+003,4.050881e-005
1.951640e+003,4.353002e-005
1.953569e+003,4.654005e-005
1.955498e+003,4.953705e-005
1.957426e+003,5.251914e-005
1.959354e+003,5.549006e-005
1.961283e+003,5.844422e-005
1.963211e+003,6.138720e-005
1.965140e+003,6.431714e-005
1.967068e+003,6.723218e-005
1.968997e+003,7.013418e-005
1.970926e+003,7.302873e-005
1.972854e+003,7.590465e-005
1.974782e+003,7.876568e-005
1.976711e+003,8.161739e-005
1.978639e+003,8.445606e-005
1.980568e+003,8.727983e-005
1.982496e+003,9.008870e-005
1.984425e+003,9.288639e-005
1.986354e+003,9.567291e-005
1.988282e+003,9.844080e-005
1.990210e+003,1.011994e-004
1.992139e+003,1.039449e-004
1.994067e+003,1.066756e-004
1.995996e+003,1.093931e-004
1.997924e+003,1.120958e-004
1.999853e+003,1.147892e-004
2.001781e+003,1.174696e-004
2.003710e+003,1.201350e-004
2.005638e+003,1.227856e-004
2.007567e+003,1.254249e-004
2.009495e+003,1.280513e-004
2.011424e+003,1.306627e-004
2.013352e+003,1.332611e-004
2.015281e+003,1.358464e-004
2.017209e+003,1.384187e-004
2.019138e+003,1.409762e-004
2.021066e+003,1.435280e-004
2.022995e+003,1.460575e-004
2.024923e+003,1.485795e-004
2.026852e+003,1.510847e-004
2.028781e+003,1.535788e-004
2.030709e+003,1.560580e-004
2.032637e+003,1.585279e-004
2.034566e+003,1.609791e-004
2.036494e+003,1.634192e-004
2.038423e+003,1.658462e-004
2.040351e+003,1.682583e-004
2.042280e+003,1.706611e-004
2.044208e+003,1.730490e-004
2.046137e+003,1.754202e-004
2.048065e+003,1.777820e-004
2.049994e+003,1.801290e-004
2.051922e+003,1.824647e-004
2.053851e+003,1.847893e-004
2.055779e+003,1.870971e-004
2.057708e+003,1.893919e-004
2.059636e+003,1.916736e-004
2.061565e+003,1.939405e-004
2.063493e+003,1.961961e-004
2.065422e+003,1.984388e-004
2.067350e+003,2.006646e-004
2.069279e+003,2.028849e-004
2.071207e+003,2.050847e-004
2.073136e+003,2.072752e-004
2.075064e+003,2.094489e-004
2.076993e+003,2.116114e-004
2.078921e+003,2.137609e-004
2.080850e+003,2.158955e-004
2.082778e+003,2.180208e-004
2.084707e+003,2.201311e-004
2.086635e+003,2.222285e-004
2.088564e+003,2.243090e-004
2.090492e+003,2.263803e-004
2.092421e+003,2.284367e-004
2.094349e+003,2.304818e-004
2.096278e+003,2.325103e-004
2.098206e+003,2.345312e-004
2.100135e+003,2.365336e-004
2.102063e+003,2.385247e-004
2.103992e+003,2.405029e-004
2.105920e+003,2.424642e-004
2.107849e+003,2.444163e-004
2.109777e+003,2.463516e-004
2.111706e+003,2.482776e-004
2.113634e+003,2.501924e-004
2.115563e+003,2.520904e-004
2.117491e+003,2.539754e-004
2.119420e+003,2.558455e-004
2.121348e+003,2.577025e-004
2.123277e+003,2.595466e-004
2.125205e+003,2.613831e-004
2.127134e+003,2.631992e-004
2.129062e+003,2.650078e-004
2.130991e+003,2.667997e-004
2.132919e+003,2.685785e-004
2.134848e+003,2.703443e-004
2.136776e+003,2.720952e-004
2.138705e+003,2.738349e-004
2.140633e+003,2.755597e-004
2.142562e+003,2.772771e-004
2.144490e+003,2.789758e-004
2.146419e+003,2.806615e-004
2.148347e+003,2.823342e-004
2.150276e+003,2.839956e-004
2.152204e+003,2.856441e-004
2.154133e+003,2.872758e-004
2.156061e+003,2.889019e-004
2.157990e+003,2.905056e-004
2.159918e+003,2.920981e-004
2.161847e+003,2.936795e-004
2.163775e+003,2.952479e-004
2.165704e+003,2.967995e-004
2.167632e+003,2.983399e-004
2.169561e+003,2.998672e-004
2.171489e+003,3.013816e-004
2.173418e+003,3.028847e-004
2.175346e+003,3.043730e-004
2.177275e+003,3.058501e-004
2.179203e+003,3.073104e-004
2.181132e+003,3.087576e-004
2.183060e+003,3.101937e-004
2.184989e+003,3.116187e-004
2.186917e+003,3.130287e-004
2.188846e+003,3.144238e-004
2.190774e+003,3.158040e-004
2.192703e+003,3.171731e-004
2.194631e+003,3.185272e-004
2.196560e+003,3.198721e-004
2.198488e+003,3.212001e-004
2.200417e+003,3.225189e-004
2.202345e+003,3.238209e-004
2.204274e+003,3.251098e-004
2.206202e+003,3.263857e-004
2.208131e+003,3.276523e-004
2.210059e+003,3.289022e-004
2.211988e+003,3.301352e-004
2.213916e+003,3.313590e-004
2.215845e+003,3.325697e-004
2.217773e+003,3.337711e-004
2.219702e+003,3.349539e-004
2.221630e+003,3.361255e-004
2.223559e+003,3.372822e-004
2.225487e+003,3.384259e-004
2.227416e+003,3.395583e-004
2.229344e+003,3.406741e-004
2.231273e+003,3.417805e-004
2.233201e+003,3.428739e-004
2.235130e+003,3.439505e-004
2.237058e+003,3.450122e-004
2.238987e+003,3.460683e-004
2.240915e+003,3.471039e-004
2.242844e+003,3.481302e-004
2.244772e+003,3.491454e-004
2.246701e+003,3.501456e-004
2.248629e+003,3.511291e-004
2.250558e+003,3.521014e-004
2.252486e+003,3.530607e-004
2.254415e+003,3.540069e-004
2.256343e+003,3.549382e-004
2.258272e+003,3.558565e-004
2.260200e+003,3.567636e-004
2.262129e+003,3.576577e-004
2.264057e+003,3.585387e-004
2.265986e+003,3.594030e-004
2.267914e+003,3.602561e-004
2.269843e+003,3.610980e-004
2.271771e+003,3.619231e-004
2.273700e+003,3.627371e-004
2.275628e+003,3.635399e-004
2.277557e+003,3.643278e-004
2.279485e+003,3.651045e-004
2.281414e+003,3.658645e-004
2.283342e+003,3.666095e-004
2.285271e+003,3.673434e-004
2.287199e+003,3.680624e-004
2.289128e+003,3.687758e-004
2.291056e+003,3.694706e-004
2.292985e+003,3.701504e-004
2.294913e+003,3.708173e-004
2.296842e+003,3.714710e-004
2.298770e+003,3.721118e-004
2.300699e+003,3.727432e-004
2.302627e+003,3.733616e-004
2.304556e+003,3.739633e-004
2.306484e+003,3.745519e-004
2.308413e+003,3.751274e-004
2.310341e+003,3.756899e-004
2.312270e+003,3.762413e-004
2.314198e+003,3.767759e-004
2.316127e+003,3.772955e-004
2.318055e+003,3.778040e-004
2.319984e+003,3.783032e-004
2.321912e+003,3.787857e-004
2.323841e+003,3.792550e-004
2.325769e+003,3.797133e-004
2.327698e+003,3.801547e-004
2.329626e+003,3.805850e-004
2.331555e+003,3.810022e-004
2.333483e+003,3.814083e-004
2.335412e+003,3.817976e-004
2.337340e+003,3.821775e-004
2.339269e+003,3.825426e-004
2.341197e+003,3.828928e-004
2.343126e+003,3.832281e-004
2.345054e+003,3.835522e-004
2.346983e+003,3.838670e-004
2.348911e+003,3.841650e-004
2.350840e+003,3.844500e-004
2.352768e+003,3.847200e-004
2.354697e+003,3.849771e-004
2.356625e+003,3.852192e-004
2.358554e+003,3.854521e-004
2.360482e+003,3.856700e-004
2.362411e+003,3.858786e-004
2.364339e+003,3.860742e-004
2.366268e+003,3.862530e-004
2.368196e+003,3.864150e-004
2.370125e+003,3.865715e-004
2.372053e+003,3.867093e-004
2.373982e+003,3.868341e-004
2.375910e+003,3.869459e-004
2.377839e+003,3.870483e-004
2.379767e+003,3.871340e-004
2.381696e+003,3.872048e-004
2.383624e+003,3.872663e-004
2.385553e+003,3.873128e-004
2.387481e+003,3.873464e-004
2.389410e+003,3.873650e-004
2.391338e+003,3.873762e-004
2.393267e+003,3.873706e-004
2.395195e+003,3.873501e-004
2.397124e+003,3.873166e-004
2.399052e+003,3.872700e-004
2.400981e+003,3.779810e-004
2.402909e+003,4.222710e-004
2.404838e+003,4.547276e-004
2.406766e+003,5.142372e-004
2.408695e+003,8.824375e-004
2.410623e+003,1.065386e-003
2.412552e+003,1.045087e-003
2.414480e+003,1.015598e-003
2.416409e+003,1.110010e-003
2.418337e+003,1.081990e-003
2.420266e+003,1.066228e-003
2.422194e+003,1.016291e-003
2.424123e+003,1.030708e-003
2.426051e+003,1.028579e-003
2.427979e+003,1.063978e-003
2.429908e+003,9.837262e-004
2.431837e+003,9.478312e-004
2.433765e+003,8.928534e-004
2.435694e+003,8.124243e-004
2.437622e+003,9.044632e-004
2.439551e+003,9.745806e-004
2.441479e+003,9.029061e-004
2.443407e+003,9.964649e-004
2.445336e+003,1.094922e-003
2.447265e+003,1.123371e-003
2.449193e+003,1.063488e-003
2.451122e+003,1.066584e-003
2.453050e+003,1.066085e-003
2.454979e+003,1.115924e-003
2.456907e+003,1.149144e-003
2.458836e+003,1.075234e-003
2.460764e+003,1.049742e-003
2.462693e+003,1.172734e-003
2.464621e+003,1.129929e-003
2.466550e+003,1.112396e-003
2.468478e+003,1.144862e-003
2.470406e+003,1.533056e-003
2.472335e+003,1.764314e-003
2.474264e+003,1.698319e-003
2.476192e+003,1.526944e-003
2.478121e+003,1.440605e-003
2.480049e+003,1.482923e-003
2.481978e+003,1.711341e-003
2.483906e+003,1.731617e-003
2.485835e+003,1.603175e-003
2.487763e+003,1.555916e-003
2.489692e+003,1.645543e-003
2.491620e+003,1.737347e-003
2.493549e+003,1.936957e-003
2.495477e+003,2.058292e-003
2.497406e+003,2.059849e-003
2.499334e+003,2.069078e-003
2.501263e+003,2.084473e-003
2.503191e+003,2.008196e-003
2.505120e+003,2.111174e-003
2.507048e+003,2.126947e-003
2.508977e+003,2.246711e-003
2.510905e+003,2.312444e-003
2.512833e+003,2.264407e-003
2.514762e+003,2.412986e-003
2.516691e+003,2.585720e-003
2.518619e+003,2.666347e-003
2.520548e+003,2.826031e-003
2.522476e+003,2.934217e-003
2.524405e+003,3.103517e-003
2.526333e+003,3.190923e-003
2.528261e+003,3.237721e-003
2.530190e+003,3.309075e-003
2.532119e+003,3.279373e-003
2.534047e+003,3.154367e-003
2.535976e+003,3.038533e-003
2.537904e+003,2.961405e-003
2.539833e+003,3.103185e-003
2.541761e+003,3.319774e-003
2.543689e+003,3.474332e-003
2.545618e+003,3.629223e-003
2.547547e+003,3.824893e-003
2.549475e+003,3.884945e-003
2.551404e+003,4.039120e-003
2.553332e+003,4.177891e-003
2.555260e+003,4.170712e-003
2.557189e+003,4.233360e-003
2.559117e+003,4.348576e-003
2.561046e+003,4.377238e-003
2.562975e+003,4.387945e-003
2.564903e+003,4.534077e-003
2.566832e+003,4.750494e-003
2.568760e+003,4.872676e-003
2.570688e+003,5.036704e-003
2.572617e+003,5.157966e-003
2.574546e+003,5.406816e-003
2.576474e+003,5.534198e-003
2.578403e+003,5.711716e-003
2.580331e+003,5.865097e-003
2.582260e+003,6.004985e-003
2.584188e+003,6.266944e-003
2.586116e+003,6.503966e-003
2.588045e+003,6.647617e-003
2.589974e+003,6.888345e-003
2.591902e+003,6.960645e-003
2.593831e+003,7.083956e-003
2.595759e+003,7.272933e-003
2.597688e+003,7.513937e-003
2.599616e+003,7.728733e-003
2.601544e+003,7.971384e-003
2.603473e+003,8.184209e-003
2.605402e+003,8.379467e-003
2.607330e+003,8.628432e-003
2.609259e+003,8.878969e-003
2.611187e+003,9.136017e-003
2.613115e+003,9.390783e-003
2.615044e+003,9.678081e-003
2.616972e+003,9.998001e-003
2.618901e+003,1.040428e-002
2.620830e+003,1.078492e-002
2.622758e+003,1.116135e-002
2.624687e+003,1.158040e-002
2.626615e+003,1.204319e-002
2.628543e+003,1.247566e-002
2.630472e+003,1.286943e-002
2.632400e+003,1.320748e-002
2.634329e+003,1.342491e-002
2.636258e+003,1.349793e-002
2.638186e+003,1.351020e-002
2.640115e+003,1.357688e-002
2.642043e+003,1.356110e-002
2.643971e+003,1.358351e-002
2.645900e+003,1.362585e-002
2.647828e+003,1.376245e-002
2.649757e+003,1.394974e-002
2.651686e+003,1.417301e-002
2.653614e+003,1.437739e-002
2.655542e+003,1.449366e-002
2.657471e+003,1.459391e-002
2.659399e+003,1.471855e-002
2.661328e+003,1.472697e-002
2.663256e+003,1.458450e-002
2.665185e+003,1.440417e-002
2.667114e+003,1.427885e-002
2.669042e+003,1.415508e-002
2.670970e+003,1.406101e-002
2.672899e+003,1.394095e-002
2.674827e+003,1.378535e-002
2.676756e+003,1.367590e-002
2.678685e+003,1.361353e-002
2.680613e+003,1.350711e-002
2.682542e+003,1.339496e-002
2.684470e+003,1.331636e-002
2.686398e+003,1.320788e-002
2.688327e+003,1.309961e-002
2.690255e+003,1.305502e-002
2.692184e+003,1.300124e-002
2.694113e+003,1.293064e-002
2.696041e+003,1.289982e-002
2.697969e+003,1.295835e-002
2.699898e+003,1.303027e-002
2.701826e+003,1.313638e-002
2.703755e+003,1.331297e-002
2.705683e+003,1.353760e-002
2.707612e+003,1.376875e-002
2.709541e+003,1.393554e-002
2.711469e+003,1.409590e-002
2.713397e+003,1.432142e-002
2.715326e+003,1.451138e-002
2.717254e+003,1.465420e-002
2.719183e+003,1.482662e-002
2.721111e+003,1.507122e-002
2.723040e+003,1.536343e-002
2.724969e+003,1.565910e-002
2.726897e+003,1.598570e-002
2.728825e+003,1.635568e-002
2.730754e+003,1.664662e-002
2.732682e+003,1.683656e-002
2.734611e+003,1.701740e-002
2.736539e+003,1.720021e-002
2.738468e+003,1.733759e-002
2.740396e+003,1.747514e-002
2.742325e+003,1.760614e-002
2.744253e+003,1.762890e-002
2.746182e+003,1.760831e-002
2.748110e+003,1.765522e-002
2.750039e+003,1.778864e-002
2.751967e+003,1.793424e-002
2.753896e+003,1.810540e-002
2.755824e+003,1.842783e-002
2.757753e+003,1.879053e-002
2.759681e+003,1.916337e-002
2.761610e+003,1.957217e-002
2.763538e+003,2.001826e-002
2.765467e+003,2.047412e-002
2.767395e+003,2.097458e-002
2.769324e+003,2.157776e-002
2.771252e+003,2.222471e-002
2.773181e+003,2.289389e-002
2.775109e+003,2.367912e-002
2.777038e+003,2.455265e-002
2.778966e+003,2.548045e-002
2.780895e+003,2.654686e-002
2.782823e+003,2.771452e-002
2.784752e+003,2.898032e-002
2.786680e+003,3.041330e-002
2.788609e+003,3.192570e-002
2.790537e+003,3.352343e-002
2.792466e+003,3.520248e-002
2.794394e+003,3.694802e-002
2.796323e+003,3.876043e-002
2.798251e+003,4.054419e-002
2.800180e+003,4.250496e-002
2.802108e+003,4.461040e-002
2.804037e+003,4.678599e-002
2.805965e+003,4.914085e-002
2.807894e+003,5.181359e-002
2.809822e+003,5.486294e-002
2.811751e+003,5.828751e-002
2.813679e+003,6.209812e-002
2.815608e+003,6.652402e-002
2.817536e+003,7.173112e-002
2.819465e+003,7.782780e-002
2.821393e+003,8.503500e-002
2.823322e+003,9.384288e-002
2.825250e+003,1.046594e-001
2.827179e+003,1.183308e-001
2.829107e+003,1.359043e-001
2.831036e+003,1.588748e-001
2.832964e+003,1.899679e-001
2.834893e+003,2.335449e-001
2.836821e+003,2.953046e-001
2.838750e+003,3.847360e-001
2.840678e+003,5.169064e-001
2.842607e+003,7.099670e-001
2.844535e+003,9.693829e-001
2.846464e+003,1.222037e+000
2.848392e+003,1.248625e+000
2.850321e+003,1.009127e+000
2.852249e+003,7.433392e-001
2.854178e+003,5.554445e-001
2.856106e+003,4.273441e-001
2.858035e+003,3.361974e-001
2.859963e+003,2.710870e-001
2.861892e+003,2.257995e-001
2.863820e+003,1.957180e-001
2.865749e+003,1.775192e-001
2.867677e+003,1.685262e-001
2.869606e+003,1.659382e-001
2.871534e+003,1.676400e-001
2.873463e+003,1.732010e-001
2.875391e+003,1.837510e-001
2.877320e+003,2.001810e-001
2.879248e+003,2.220414e-001
2.881177e+003,2.480379e-001
2.883105e+003,2.772345e-001
2.885034e+003,3.089092e-001
2.886962e+003,3.425028e-001
2.888891e+003,3.773328e-001
2.890819e+003,4.124480e-001
2.892748e+003,4.472321e-001
2.894676e+003,4.814846e-001
2.896605e+003,5.158740e-001
2.898533e+003,5.519571e-001
2.900462e+003,5.923814e-001
2.902390e+003,6.413628e-001
2.904319e+003,7.052292e-001
2.906247e+003,7.925850e-001
2.908176e+003,9.126801e-001
2.910104e+003,1.072242e+000
2.912033e+003,1.259517e+000
2.913961e+003,1.409427e+000
2.915890e+003,1.419040e+000
2.917818e+003,1.278225e+000
2.919747e+003,1.083106e+000
2.921675e+003,9.023336e-001
2.923604e+003,7.532402e-001
2.925532e+003,6.334981e-001
2.927461e+003,5.359225e-001
2.929389e+003,4.542167e-001
2.931318e+003,3.845210e-001
2.933246e+003,3.246984e-001
2.935175e+003,2.735517e-001
2.937103e+003,2.301200e-001
2.939032e+003,1.934034e-001
2.940960e+003,1.628252e-001
2.942889e+003,1.380700e-001
2.944817e+003,1.186725e-001
2.946746e+003,1.042840e-001
2.948674e+003,9.430019e-002
2.950603e+003,8.751350e-002
2.952531e+003,8.242504e-002
2.954460e+003,7.766540e-002
2.956388e+003,7.263520e-002
2.958317e+003,6.718352e-002
2.960245e+003,6.142224e-002
2.962174e+003,5.554053e-002
2.964102e+003,4.970281e-002
2.966031e+003,4.412951e-002
2.967959e+003,3.912356e-002
2.969888e+003,3.480762e-002
2.971816e+003,3.111212e-002
2.973745e+003,2.802221e-002
2.975673e+003,2.553877e-002
2.977602e+003,2.349118e-002
2.979530e+003,2.171892e-002
2.981459e+003,2.016496e-002
2.983387e+003,1.896172e-002
2.985316e+003,1.786730e-002
2.987244e+003,1.687879e-002
2.989173e+003,1.599633e-002
2.991101e+003,1.523137e-002
2.993030e+003,1.462868e-002
2.994958e+003,1.413843e-002
2.996887e+003,1.367458e-002
2.998815e+003,1.325155e-002
3.000744e+003,1.281859e-002
3.002672e+003,1.243362e-002
3.004601e+003,1.216139e-002
3.006529e+003,1.195834e-002
3.008458e+003,1.163766e-002
3.010386e+003,1.136192e-002
3.012315e+003,1.119746e-002
3.014243e+003,1.104555e-002
3.016172e+003,1.082037e-002
3.018100e+003,1.063242e-002
3.020029e+003,1.054494e-002
3.021957e+003,1.044725e-002
3.023886e+003,1.033756e-002
3.025814e+003,1.014384e-002
3.027743e+003,9.961024e-003
3.029671e+003,9.876661e-003
3.031600e+003,9.819075e-003
3.033528e+003,9.686623e-003
3.035457e+003,9.430103e-003
3.037385e+003,9.215277e-003
3.039314e+003,9.025693e-003
3.041242e+003,8.784767e-003
3.043171e+003,8.565422e-003
3.045099e+003,8.362975e-003
3.047028e+003,8.223090e-003
3.048956e+003,8.171838e-003
3.050885e+003,8.025259e-003
3.052813e+003,7.933531e-003
3.054742e+003,7.867489e-003
3.056670e+003,7.770181e-003
3.058599e+003,7.657729e-003
3.060527e+003,7.522963e-003
3.062456e+003,7.483497e-003
3.064384e+003,7.461101e-003
3.066313e+003,7.417835e-003
3.068241e+003,7.425688e-003
3.070170e+003,7.398553e-003
3.072098e+003,7.382024e-003
3.074027e+003,7.334962e-003
3.075955e+003,7.305995e-003
3.077884e+003,7.419296e-003
3.079812e+003,7.503878e-003
3.081741e+003,7.439904e-003
3.083669e+003,7.440526e-003
3.085598e+003,7.420052e-003
3.087526e+003,7.294938e-003
3.089455e+003,7.153761e-003
3.091383e+003,6.997768e-003
3.093312e+003,6.885856e-003
3.095240e+003,6.794296e-003
3.097169e+003,6.674565e-003
3.099097e+003,6.539799e-003
3.101026e+003,6.355401e-003
3.102954e+003,6.342784e-003
3.104883e+003,6.333224e-003
3.106811e+003,6.278787e-003
3.108740e+003,6.290589e-003
3.110668e+003,6.250966e-003
3.112597e+003,6.257623e-003
3.114525e+003,6.384891e-003
3.116454e+003,6.412569e-003
3.118382e+003,6.424658e-003
3.120311e+003,6.486092e-003
3.122239e+003,6.585203e-003
3.124168e+003,6.718837e-003
3.126096e+003,6.915186e-003
3.128025e+003,6.949253e-003
3.129953e+003,6.971974e-003
3.131882e+003,7.045984e-003
3.133810e+003,7.216774e-003
3.135739e+003,7.393822e-003
3.137667e+003,7.475752e-003
3.139596e+003,7.573415e-003
3.141524e+003,7.768493e-003
3.143453e+003,7.929824e-003
3.145381e+003,8.019730e-003
3.147310e+003,8.137200e-003
3.149238e+003,8.313991e-003
3.151167e+003,8.405812e-003
3.153095e+003,8.553531e-003
3.155024e+003,8.727234e-003
3.156952e+003,8.910503e-003
3.158881e+003,9.099752e-003
3.160809e+003,9.303480e-003
3.162738e+003,9.477247e-003
3.164666e+003,9.721212e-003
3.166594e+003,9.969980e-003
3.168523e+003,1.009569e-002
3.170452e+003,1.022330e-002
3.172380e+003,1.035576e-002
3.174309e+003,1.052398e-002
3.176237e+003,1.078565e-002
3.178166e+003,1.095458e-002
3.180094e+003,1.113600e-002
3.182022e+003,1.132070e-002
3.183951e+003,1.154895e-002
3.185880e+003,1.179406e-002
3.187808e+003,1.196045e-002
3.189737e+003,1.215078e-002
3.191665e+003,1.232594e-002
3.193594e+003,1.242310e-002
3.195522e+003,1.261253e-002
3.197450e+003,1.299066e-002
3.199379e+003,1.319493e-002
3.201308e+003,1.322551e-002
3.203236e+003,1.328043e-002
3.205165e+003,1.347321e-002
3.207093e+003,1.373291e-002
3.209021e+003,1.394737e-002
3.210950e+003,1.417805e-002
3.212878e+003,1.440591e-002
3.214807e+003,1.457761e-002
3.216736e+003,1.472766e-002
3.218664e+003,1.491253e-002
3.220593e+003,1.508319e-002
3.222521e+003,1.532082e-002
3.224449e+003,1.554729e-002
3.226378e+003,1.578462e-002
3.228307e+003,1.594978e-002
3.230235e+003,1.609740e-002
3.232164e+003,1.626853e-002
3.234092e+003,1.644167e-002
3.236021e+003,1.671476e-002
3.237949e+003,1.688199e-002
3.239877e+003,1.703410e-002
3.241806e+003,1.719770e-002
3.243735e+003,1.746053e-002
3.245663e+003,1.772258e-002
3.247592e+003,1.792668e-002
3.249520e+003,1.812304e-002
3.251448e+003,1.829320e-002
3.253377e+003,1.848925e-002
3.255305e+003,1.871414e-002
3.257234e+003,1.895455e-002
3.259163e+003,1.910285e-002
3.261091e+003,1.934085e-002
3.263020e+003,1.965035e-002
3.264948e+003,1.987194e-002
3.266876e+003,1.994839e-002
3.268805e+003,2.005639e-002
3.270733e+003,2.031431e-002
3.272662e+003,2.057054e-002
3.274591e+003,2.070120e-002
3.276519e+003,2.090652e-002
3.278448e+003,2.113153e-002
3.280376e+003,2.130404e-002
3.282304e+003,2.146480e-002
3.284233e+003,2.159387e-002
3.286161e+003,2.176616e-002
3.288090e+003,2.200764e-002
3.290019e+003,2.215539e-002
3.291947e+003,2.229267e-002
3.293875e+003,2.242771e-002
3.295804e+003,2.255753e-002
3.297732e+003,2.265350e-002
3.299661e+003,2.276823e-002
3.301589e+003,2.293064e-002
3.303518e+003,2.309370e-002
3.305447e+003,2.332292e-002
3.307375e+003,2.354313e-002
3.309303e+003,2.358329e-002
3.311232e+003,2.362188e-002
3.313160e+003,2.373102e-002
3.315089e+003,2.392420e-002
3.317018e+003,2.405319e-002
3.318946e+003,2.417428e-002
3.320875e+003,2.437670e-002
3.322803e+003,2.454818e-002
3.324731e+003,2.476597e-002
3.326660e+003,2.490136e-002
3.328588e+003,2.495810e-002
3.330517e+003,2.515936e-002
3.332446e+003,2.526900e-002
3.334374e+003,2.538360e-002
3.336302e+003,2.556005e-002
3.338231e+003,2.569896e-002
3.340159e+003,2.578100e-002
3.342088e+003,2.590159e-002
3.344016e+003,2.596638e-002
3.345945e+003,2.607495e-002
3.347874e+003,2.615383e-002
3.349802e+003,2.621426e-002
3.351730e+003,2.645990e-002
3.353659e+003,2.657502e-002
3.355587e+003,2.657165e-002
3.357516e+003,2.662246e-002
3.359444e+003,2.669340e-002
3.361373e+003,2.679167e-002
3.363302e+003,2.678165e-002
3.365230e+003,2.688869e-002
3.367158e+003,2.696105e-002
3.369087e+003,2.700124e-002
3.371015e+003,2.704002e-002
3.372944e+003,2.708118e-002
3.374872e+003,2.705437e-002
3.376801e+003,2.700083e-002
3.378729e+003,2.697460e-002
3.380658e+003,2.698397e-002
3.382586e+003,2.703958e-002
3.384515e+003,2.708086e-002
3.386443e+003,2.701635e-002
3.388372e+003,2.697227e-002
3.390300e+003,2.695264e-002
3.392229e+003,2.692778e-002
3.394157e+003,2.678147e-002
3.396086e+003,2.676647e-002
3.398014e+003,2.681766e-002
3.399943e+003,2.677887e-002
3.401871e+003,2.664401e-002
3.403800e+003,2.656656e-002
3.405728e+003,2.647442e-002
3.407657e+003,2.634399e-002
3.409585e+003,2.621413e-002
3.411514e+003,2.611483e-002
3.413442e+003,2.601790e-002
3.415371e+003,2.597701e-002
3.417299e+003,2.579788e-002
3.419228e+003,2.565649e-002
3.421156e+003,2.559494e-002
3.423085e+003,2.553510e-002
3.425013e+003,2.531564e-002
3.426942e+003,2.509691e-002
3.428870e+003,2.493632e-002
3.430799e+003,2.490239e-002
3.432727e+003,2.473434e-002
3.434656e+003,2.450633e-002
3.436584e+003,2.438754e-002
3.438513e+003,2.435279e-002
3.440441e+003,2.415059e-002
3.442370e+003,2.385482e-002
3.444298e+003,2.363660e-002
3.446227e+003,2.353395e-002
3.448155e+003,2.329881e-002
3.450084e+003,2.307514e-002
3.452012e+003,2.292204e-002
3.453941e+003,2.277775e-002
3.455869e+003,2.244711e-002
3.457798e+003,2.221151e-002
3.459726e+003,2.207163e-002
3.461655e+003,2.191948e-002
3.463583e+003,2.174650e-002
3.465512e+003,2.152611e-002
3.467440e+003,2.115192e-002
3.469369e+003,2.085227e-002
3.471297e+003,2.063651e-002
3.473226e+003,2.043268e-002
3.475154e+003,2.020890e-002
3.477083e+003,1.994683e-002
3.479011e+003,1.969270e-002
3.480940e+003,1.953254e-002
3.482868e+003,1.925635e-002
3.484797e+003,1.906505e-002
3.486725e+003,1.890852e-002
3.488654e+003,1.861795e-002
3.490582e+003,1.824828e-002
3.492511e+003,1.801655e-002
3.494439e+003,1.789069e-002
3.496368e+003,1.777387e-002
3.498296e+003,1.752482e-002
3.500225e+003,1.743297e-002
3.502153e+003,1.710638e-002
3.504082e+003,1.658432e-002
3.506010e+003,1.639322e-002
3.507939e+003,1.629386e-002
3.509867e+003,1.593401e-002
3.511796e+003,1.550011e-002
3.513724e+003,1.515838e-002
3.515653e+003,1.493962e-002
3.517581e+003,1.474442e-002
3.519510e+003,1.450141e-002
3.521438e+003,1.423655e-002
3.523367e+003,1.398236e-002
3.525295e+003,1.369012e-002
3.527224e+003,1.350389e-002
3.529152e+003,1.311258e-002
3.531081e+003,1.267809e-002
3.533009e+003,1.230424e-002
3.534938e+003,1.207411e-002
3.536866e+003,1.170011e-002
3.538795e+003,1.131812e-002
3.540723e+003,1.106182e-002
3.542652e+003,1.093771e-002
3.544580e+003,1.075319e-002
3.546509e+003,1.044680e-002
3.548437e+003,1.018603e-002
3.550366e+003,1.004300e-002
3.552294e+003,9.714086e-003
3.554223e+003,9.228908e-003
3.556151e+003,8.975748e-003
3.558080e+003,8.709755e-003
3.560008e+003,8.441668e-003
3.561937e+003,8.167204e-003
3.563865e+003,8.111920e-003
3.565794e+003,8.242697e-003
3.567722e+003,7.789094e-003
3.569651e+003,7.226262e-003
3.571579e+003,6.828550e-003
3.573508e+003,6.446570e-003
3.575436e+003,6.202914e-003
3.577365e+003,6.128434e-003
3.579293e+003,5.892113e-003
3.581222e+003,5.552359e-003
3.583150e+003,5.360898e-003
3.585079e+003,5.476426e-003
3.587007e+003,5.654965e-003
3.588936e+003,5.362008e-003
3.590864e+003,5.180988e-003
3.592793e+003,5.325213e-003
3.594721e+003,5.424723e-003
3.596650e+003,5.440809e-003
3.598578e+003,5.502570e-003
3.600507e+003,5.522039e-003
3.602435e+003,5.167700e-003
3.604364e+003,4.955817e-003
3.606292e+003,4.994903e-003
3.608221e+003,4.827872e-003
3.610149e+003,4.561767e-003
3.612078e+003,4.587919e-003
3.614006e+003,3.846247e-003
3.615935e+003,2.971351e-003
3.617863e+003,2.737664e-003
3.619792e+003,2.775475e-003
3.621720e+003,2.321094e-003
3.623649e+003,1.969043e-003
3.625577e+003,1.914386e-003
3.627506e+003,2.541345e-003
3.629434e+003,2.602983e-003
3.631363e+003,1.982223e-003
3.633291e+003,1.621261e-003
3.635220e+003,1.054648e-003
3.637148e+003,1.031179e-003
3.639077e+003,1.373254e-003
3.641005e+003,1.310661e-003
3.642934e+003,1.000352e-003
3.644862e+003,1.051348e-003
3.646791e+003,1.505218e-003
3.648719e+003,1.751117e-003
3.650648e+003,1.429524e-003
3.652576e+003,5.355142e-004
3.654505e+003,3.536418e-004
3.656433e+003,4.559755e-006
3.658362e+003,-2.627820e-004
3.660290e+003,-2.164431e-004
3.662219e+003,-4.703887e-004
3.664147e+003,-6.566942e-004
3.666076e+003,-5.248003e-004
3.668004e+003,-4.602224e-005
3.669933e+003,2.742484e-004
3.671861e+003,8.520111e-005
3.673790e+003,6.996915e-004
3.675718e+003,2.963915e-004
3.677647e+003,-6.661788e-004
3.679575e+003,-6.548204e-004
3.681504e+003,-8.460246e-004
3.683432e+003,-1.009975e-003
3.685361e+003,-9.913556e-004
3.687289e+003,-5.542003e-004
3.689218e+003,-2.175011e-004
3.691146e+003,-6.100535e-004
3.693075e+003,-9.714998e-004
3.695003e+003,-9.678602e-004
3.696932e+003,-1.025867e-003
3.698860e+003,-1.040578e-003
3.700789e+003,-6.895326e-004
3.702717e+003,-6.439835e-004
3.704646e+003,-8.387156e-004
3.706574e+003,-7.981434e-004
3.708503e+003,-2.525784e-004
3.710431e+003,4.182383e-004
3.712360e+003,-3.268048e-004
3.714288e+003,-1.004126e-003
3.716217e+003,-1.095504e-003
3.718145e+003,-9.450577e-004
3.720074e+003,-5.437881e-004
3.722002e+003,-3.357045e-004
3.723931e+003,-3.047585e-004
3.725859e+003,-1.169518e-004
3.727788e+003,-5.476288e-004
3.729716e+003,-6.522909e-004
3.731645e+003,-1.769550e-004
3.733573e+003,5.965978e-004
3.735502e+003,1.022819e-003
3.737430e+003,-1.840256e-004
3.739359e+003,-5.979463e-004
3.741287e+003,-3.769472e-004
3.743216e+003,5.840920e-004
3.745144e+003,4.643612e-004
3.747073e+003,-8.712709e-005
3.749001e+003,2.244152e-004
3.750930e+003,3.310330e-004
3.752858e+003,-4.178211e-004
3.754787e+003,-8.067340e-004
3.756715e+003,-7.931590e-004
3.758644e+003,-6.517172e-004
3.760572e+003,-7.549189e-004
3.762501e+003,-1.017958e-003
3.764429e+003,-9.986833e-004
3.766358e+003,-9.866059e-004
3.768286e+003,-7.694438e-004
3.770215e+003,-5.926415e-004
3.772143e+003,-8.430295e-004
3.774072e+003,-8.972995e-004
3.776000e+003,-7.682070e-004
3.777929e+003,-3.811270e-004
3.779857e+003,-3.830567e-004
3.781786e+003,-6.150268e-004
3.783714e+003,-4.190058e-004
3.785643e+003,-5.585589e-004
3.787571e+003,-7.837191e-004
3.789500e+003,-7.643625e-004
3.791428e+003,-7.376038e-004
3.793357e+003,-7.235296e-004
3.795285e+003,-4.595071e-004
3.797214e+003,-2.425723e-004
3.799142e+003,1.014434e-004
3.801071e+003,4.747510e-004
3.802999e+003,-2.394356e-004
3.804927e+003,-2.115443e-004
3.806856e+003,-6.305426e-005
3.808785e+003,-4.615337e-004
3.810713e+003,-4.373789e-004
3.812642e+003,-2.054796e-004
3.814570e+003,3.638938e-004
3.816499e+003,1.827292e-004
3.818427e+003,9.465590e-005
3.820355e+003,6.962717e-004
3.822284e+003,1.690425e-004
3.824213e+003,-9.424984e-007
3.826141e+003,1.491867e-004
3.828070e+003,-9.733811e-005
3.829998e+003,-1.501925e-004
3.831927e+003,-8.456409e-007
3.833855e+003,4.713461e-004
3.835783e+003,7.906817e-004
3.837712e+003,9.319969e-004
3.839641e+003,5.997084e-004
3.841569e+003,1.723692e-004
3.843498e+003,2.051741e-004
3.845426e+003,1.987442e-005
3.847354e+003,-1.234896e-004
3.849283e+003,1.703575e-005
3.851211e+003,8.311756e-004
3.853140e+003,1.808297e-003
3.855069e+003,5.434826e-004
3.856997e+003,1.949817e-005
3.858926e+003,-1.384504e-004
3.860854e+003,-4.626065e-005
3.862782e+003,3.316402e-004
3.864711e+003,5.770661e-004
3.866640e+003,2.974197e-004
3.868568e+003,7.533208e-004
3.870497e+003,6.353185e-004
3.872425e+003,5.671605e-004
3.874354e+003,7.088445e-004
3.876282e+003,2.208054e-004
3.878210e+003,2.519973e-004
3.880139e+003,5.635396e-004
3.882068e+003,5.436614e-004
3.883996e+003,7.473491e-004
3.885925e+003,4.890524e-004
3.887853e+003,2.121814e-004
3.889781e+003,5.027577e-004
3.891710e+003,7.262677e-004
3.893638e+003,5.039498e-004
3.895567e+003,3.891475e-004
3.897496e+003,6.327890e-004
3.899424e+003,6.818213e-004
3.901353e+003,6.355457e-004
3.903281e+003,9.054877e-004
3.905209e+003,5.472787e-004
3.907138e+003,1.471899e-004
3.909066e+003,1.315884e-004
3.910995e+003,2.939776e-004
3.912924e+003,3.137849e-004
3.914852e+003,3.739372e-004
3.916781e+003,4.803911e-004
3.918709e+003,3.884584e-004
3.920637e+003,2.851523e-004
3.922566e+003,4.039258e-004
3.924494e+003,5.421713e-004
3.926423e+003,3.688894e-004
3.928352e+003,3.546365e-004
3.930280e+003,4.473068e-004
3.932208e+003,4.169121e-004
3.934137e+003,1.725331e-004
3.936065e+003,9.268150e-005
3.937994e+003,9.171665e-005
3.939922e+003,1.496635e-004
3.941851e+003,3.463626e-004
3.943780e+003,1.384541e-004
3.945708e+003,2.190471e-006
3.947636e+003,9.274855e-005
3.949565e+003,-3.812090e-005
3.951493e+003,-1.178794e-004
3.953422e+003,-2.171472e-005
3.955351e+003,5.111098e-006
3.957279e+003,6.780028e-007
3.959208e+003,7.387251e-005
3.961136e+003,1.255870e-004
3.963064e+003,1.112893e-004
3.964993e+003,9.765476e-005
3.966921e+003,1.292229e-004
3.968850e+003,5.675852e-005
3.970779e+003,2.921000e-005
3.972707e+003,2.409294e-004
3.974635e+003,3.083982e-004
3.976564e+003,2.688020e-004
3.978492e+003,1.919903e-004
3.980421e+003,2.006628e-004
3.982349e+003,2.541766e-004
3.984278e+003,2.387390e-004
3.986207e+003,1.220554e-004
3.988135e+003,7.459149e-005
3.990063e+003,7.896870e-005
3.991992e+003,1.153238e-004
3.993920e+003,2.754368e-004
3.995849e+003,2.127551e-004
3.997777e+003,1.155362e-004
3.999706e+003,1.345761e-004
4.001635e+003,0.000000e+000
