3.991992e+002,0.000000e+000
4.011277e+002,0.000000e+000
4.030562e+002,0.000000e+000
4.049846e+002,0.000000e+000
4.069131e+002,0.000000e+000
4.088416e+002,0.000000e+000
4.107701e+002,0.000000e+000
4.126986e+002,0.000000e+000
4.146271e+002,0.000000e+000
4.165556e+002,0.000000e+000
4.184841e+002,0.000000e+000
4.204126e+002,0.000000e+000
4.223411e+002,0.000000e+000
4.242697e+002,0.000000e+000
4.261982e+002,0.000000e+000
4.281266e+002,0.000000e+000
4.300551e+002,0.000000e+000
4.319836e+002,0.000000e+000
4.339121e+002,0.000000e+000
4.358406e+002,0.000000e+000
4.377691e+002,0.000000e+000
4.396976e+002,0.000000e+000
4.416261e+002,0.000000e+000
4.435546e+002,0.000000e+000
4.454831e+002,0.000000e+000
4.474116e+002,0.000000e+000
4.493401e+002,0.000000e+000
4.512686e+002,0.000000e+000
4.531971e+002,0.000000e+000
4.551256e+002,0.000000e+000
4.570541e+002,0.000000e+000
4.589826e+002,0.000000e+000
4.609111e+002,0.000000e+000
4.628396e+002,0.000000e+000
4.647681e+002,0.000000e+000
4.666966e+002,0.000000e+000
4.686251e+002,0.000000e+000
4.705536e+002,0.000000e+000
4.724821e+002,0.000000e+000
4.744106e+002,0.000000e+000
4.763391e+002,0.000000e+000
4.782676e+002,0.000000e+000
4.801961e+002,0.000000e+000
4.821246e+002,0.000000e+000
4.840531e+002,0.000000e+000
4.859816e+002,0.000000e+000
4.879101e+002,0.000000e+000
4.898386e+002,0.000000e+000
4.917671e+002,0.000000e+000
4.936956e+002,0.000000e+000
4.956241e+002,0.000000e+000
4.975526e+002,0.000000e+000
4.994811e+002,0.000000e+000
5.014096e+002,0.000000e+000
5.033381e+002,0.000000e+000
5.052666e+002,0.000000e+000
5.071951e+002,0.000000e+000
5.091236e+002,0.000000e+000
5.110521e+002,0.000000e+000
5.129806e+002,0.000000e+000
5.149091e+002,0.000000e+000
5.168376e+002,0.000000e+000
5.187661e+002,0.000000e+000
5.206946e+002,0.000000e+000
5.226230e+002,0.000000e+000
5.245516e+002,5.010027e-005
5.264800e+002,3.472925e-005
5.284086e+002,2.542550e-004
5.303370e+002,3.087926e-004
5.322656e+002,2.693501e-004
5.341940e+002,1.825024e-004
5.361226e+002,1.257097e-004
5.380510e+002,1.345170e-004
5.399796e+002,1.515965e-004
5.419081e+002,1.404183e-004
5.438365e+002,2.076817e-004
5.457650e+002,2.125474e-004
5.476935e+002,9.304984e-005
5.496221e+002,9.888131e-005
5.515505e+002,1.983186e-004
5.534790e+002,2.214951e-004
5.554075e+002,2.409047e-004
5.573361e+002,1.864210e-004
5.592645e+002,7.596193e-005
5.611931e+002,6.947108e-005
5.631215e+002,1.401859e-004
5.650500e+002,1.111478e-004
5.669785e+002,1.409501e-004
5.689070e+002,2.884679e-005
5.708355e+002,-1.044432e-005
5.727640e+002,3.297161e-005
5.746925e+002,-3.988529e-005
5.766210e+002,-2.189996e-004
5.785495e+002,-1.479988e-004
5.804780e+002,-1.889002e-004
5.824065e+002,-1.381123e-004
5.843350e+002,-1.007267e-004
5.862635e+002,-1.098667e-004
5.881920e+002,-3.274390e-005
5.901205e+002,8.677505e-005
5.920490e+002,6.923079e-005
5.939775e+002,4.362082e-005
5.959060e+002,1.084991e-004
5.978345e+002,1.389207e-004
5.997630e+002,1.510992e-004
6.016915e+002,1.426227e-004
6.036200e+002,1.937123e-004
6.055485e+002,2.739825e-004
6.074770e+002,2.624262e-004
6.094055e+002,2.662092e-004
6.113340e+002,2.401061e-004
6.132625e+002,2.394938e-004
6.151910e+002,1.425124e-004
6.171195e+002,1.009828e-004
6.190480e+002,5.686656e-005
6.209765e+002,1.309332e-004
6.229050e+002,2.763448e-004
6.248335e+002,4.230924e-004
6.267620e+002,4.734728e-004
6.286905e+002,4.860340e-004
6.306190e+002,4.759552e-004
6.325475e+002,5.071401e-004
6.344760e+002,5.791830e-004
6.364045e+002,7.387754e-004
6.383330e+002,8.835401e-004
6.402615e+002,1.051436e-003
6.421899e+002,1.068594e-003
6.441185e+002,9.892602e-004
6.460470e+002,9.287293e-004
6.479755e+002,9.436170e-004
6.499039e+002,9.132414e-004
6.518325e+002,9.611612e-004
6.537610e+002,9.808331e-004
6.556895e+002,1.089600e-003
6.576179e+002,1.201956e-003
6.595464e+002,1.222701e-003
6.614750e+002,1.115335e-003
6.634034e+002,1.107956e-003
6.653319e+002,1.085710e-003
6.672604e+002,1.268032e-003
6.691890e+002,1.390031e-003
6.711174e+002,1.429091e-003
6.730460e+002,1.344903e-003
6.749745e+002,1.460815e-003
6.769030e+002,1.531507e-003
6.788314e+002,1.624791e-003
6.807599e+002,1.813478e-003
6.826885e+002,2.045277e-003
6.846169e+002,2.026245e-003
6.865454e+002,2.167209e-003
6.884739e+002,2.359264e-003
6.904025e+002,2.646224e-003
6.923309e+002,2.948791e-003
6.942594e+002,3.389202e-003
6.961879e+002,3.871082e-003
6.981165e+002,4.647128e-003
7.000449e+002,5.535027e-003
7.019734e+002,6.747913e-003
7.039019e+002,8.287142e-003
7.058304e+002,1.048448e-002
7.077589e+002,1.347210e-002
7.096874e+002,1.801353e-002
7.116159e+002,2.526898e-002
7.135444e+002,3.889996e-002
7.154729e+002,6.355733e-002
7.174014e+002,9.813228e-002
7.193299e+002,1.121536e-001
7.212584e+002,8.229958e-002
7.231869e+002,5.362536e-002
7.251154e+002,4.360421e-002
7.270439e+002,4.741898e-002
7.289724e+002,6.251462e-002
7.309009e+002,6.056368e-002
7.328294e+002,3.474376e-002
7.347579e+002,1.732734e-002
7.366864e+002,1.122255e-002
7.386149e+002,8.715396e-003
7.405434e+002,7.329052e-003
7.424719e+002,6.541483e-003
7.444004e+002,5.827202e-003
7.463289e+002,5.382515e-003
7.482574e+002,4.939964e-003
7.501859e+002,4.581299e-003
7.521144e+002,4.246066e-003
7.540428e+002,4.027992e-003
7.559714e+002,3.763529e-003
7.578999e+002,3.568952e-003
7.598284e+002,3.434391e-003
7.617568e+002,3.296688e-003
7.636854e+002,3.042775e-003
7.656139e+002,2.858411e-003
7.675424e+002,2.735979e-003
7.694709e+002,2.610881e-003
7.713994e+002,2.533669e-003
7.733279e+002,2.507248e-003
7.752563e+002,2.450468e-003
7.771849e+002,2.406638e-003
7.791134e+002,2.379624e-003
7.810419e+002,2.374810e-003
7.829703e+002,2.337078e-003
7.848989e+002,2.298135e-003
7.868274e+002,2.301474e-003
7.887559e+002,2.354293e-003
7.906843e+002,2.363627e-003
7.926129e+002,2.359625e-003
7.945414e+002,2.392982e-003
7.964698e+002,2.391402e-003
7.983983e+002,2.360008e-003
8.003268e+002,2.356900e-003
8.022554e+002,2.384010e-003
8.041838e+002,2.341988e-003
8.061123e+002,2.239035e-003
8.080408e+002,2.174720e-003
8.099694e+002,2.175039e-003
8.118978e+002,2.104796e-003
8.138263e+002,1.987228e-003
8.157548e+002,1.896731e-003
8.176833e+002,1.805867e-003
8.196118e+002,1.843171e-003
8.215403e+002,1.881037e-003
8.234689e+002,1.800047e-003
8.253973e+002,1.670884e-003
8.273258e+002,1.600110e-003
8.292543e+002,1.612456e-003
8.311829e+002,1.617821e-003
8.331113e+002,1.529663e-003
8.350398e+002,1.500922e-003
8.369683e+002,1.551955e-003
8.388969e+002,1.577676e-003
8.408253e+002,1.613497e-003
8.427538e+002,1.591200e-003
8.446823e+002,1.597648e-003
8.466108e+002,1.649416e-003
8.485393e+002,1.641272e-003
8.504678e+002,1.584608e-003
8.523963e+002,1.619893e-003
8.543248e+002,1.669409e-003
8.562533e+002,1.674156e-003
8.581818e+002,1.618044e-003
8.601103e+002,1.558003e-003
8.620388e+002,1.591073e-003
8.639673e+002,1.706509e-003
8.658958e+002,1.705633e-003
8.678243e+002,1.676746e-003
8.697528e+002,1.694454e-003
8.716813e+002,1.692639e-003
8.736098e+002,1.697079e-003
8.755383e+002,1.813606e-003
8.774668e+002,1.863850e-003
8.793953e+002,1.911265e-003
8.813238e+002,1.913283e-003
8.832523e+002,1.897077e-003
8.851808e+002,1.996320e-003
8.871093e+002,2.059967e-003
8.890378e+002,2.102088e-003
8.909663e+002,2.126663e-003
8.928948e+002,2.020685e-003
8.948232e+002,1.935855e-003
8.967518e+002,1.872823e-003
8.986803e+002,1.885688e-003
9.006088e+002,1.960150e-003
9.025372e+002,2.146095e-003
9.044658e+002,2.395411e-003
9.063943e+002,2.777566e-003
9.083228e+002,2.983638e-003
9.102512e+002,2.826361e-003
9.121797e+002,2.462645e-003
9.141083e+002,2.105961e-003
9.160367e+002,1.811569e-003
9.179653e+002,1.776147e-003
9.198937e+002,1.830902e-003
9.218223e+002,1.853374e-003
9.237507e+002,1.769226e-003
9.256793e+002,1.678702e-003
9.276077e+002,1.552438e-003
9.295363e+002,1.551642e-003
9.314647e+002,1.592048e-003
9.333932e+002,1.638586e-003
9.353217e+002,1.643874e-003
9.372502e+002,1.608388e-003
9.391787e+002,1.546305e-003
9.411072e+002,1.561033e-003
9.430358e+002,1.599928e-003
9.449642e+002,1.637623e-003
9.468928e+002,1.638154e-003
9.488212e+002,1.645676e-003
9.507498e+002,1.584606e-003
9.526782e+002,1.588138e-003
9.546068e+002,1.635125e-003
9.565352e+002,1.714559e-003
9.584637e+002,1.765882e-003
9.603922e+002,1.840377e-003
9.623207e+002,1.852434e-003
9.642492e+002,1.918449e-003
9.661777e+002,1.955201e-003
9.681062e+002,1.993620e-003
9.700347e+002,2.056025e-003
9.719632e+002,2.067808e-003
9.738917e+002,2.008842e-003
9.758202e+002,2.016310e-003
9.777487e+002,1.997141e-003
9.796772e+002,1.998831e-003
9.816057e+002,2.068743e-003
9.835342e+002,2.196074e-003
9.854627e+002,2.224826e-003
9.873912e+002,2.282637e-003
9.893197e+002,2.403955e-003
9.912482e+002,2.543257e-003
9.931767e+002,2.571109e-003
9.951052e+002,2.555187e-003
9.970337e+002,2.545486e-003
9.989622e+002,2.577181e-003
1.000891e+003,2.582946e-003
1.002819e+003,2.612473e-003
1.004748e+003,2.689481e-003
1.006676e+003,2.846236e-003
1.008605e+003,2.999586e-003
1.010533e+003,3.208628e-003
1.012462e+003,3.378571e-003
1.014390e+003,3.518603e-003
1.016319e+003,3.654078e-003
1.018247e+003,3.797834e-003
1.020176e+003,3.842284e-003
1.022104e+003,3.804118e-003
1.024033e+003,3.647791e-003
1.025961e+003,3.577320e-003
1.027890e+003,3.541638e-003
1.029818e+003,3.514513e-003
1.031747e+003,3.488099e-003
1.033675e+003,3.529293e-003
1.035604e+003,3.567656e-003
1.037532e+003,3.659914e-003
1.039461e+003,3.695529e-003
1.041389e+003,3.803381e-003
1.043318e+003,3.877039e-003
1.045246e+003,3.900174e-003
1.047175e+003,3.948044e-003
1.049103e+003,4.059040e-003
1.051032e+003,4.030328e-003
1.052960e+003,3.896200e-003
1.054889e+003,3.799256e-003
1.056817e+003,3.801776e-003
1.058746e+003,3.820381e-003
1.060674e+003,3.929930e-003
1.062603e+003,4.028413e-003
1.064531e+003,4.081515e-003
1.066460e+003,3.972294e-003
1.068388e+003,3.912928e-003
1.070317e+003,4.030047e-003
1.072245e+003,4.299253e-003
1.074174e+003,4.442984e-003
1.076102e+003,4.562570e-003
1.078031e+003,4.630746e-003
1.079959e+003,4.650865e-003
1.081888e+003,4.565384e-003
1.083816e+003,4.529735e-003
1.085745e+003,4.454208e-003
1.087673e+003,4.373005e-003
1.089602e+003,4.292060e-003
1.091530e+003,4.262076e-003
1.093459e+003,4.202796e-003
1.095387e+003,4.199170e-003
1.097316e+003,4.143418e-003
1.099244e+003,4.128618e-003
1.101173e+003,4.111710e-003
1.103101e+003,4.139820e-003
1.105030e+003,4.126631e-003
1.106958e+003,4.160299e-003
1.108887e+003,4.140231e-003
1.110815e+003,4.112713e-003
1.112744e+003,4.072606e-003
1.114672e+003,3.985951e-003
1.116601e+003,3.816001e-003
1.118529e+003,3.765356e-003
1.120458e+003,3.696331e-003
1.122386e+003,3.665664e-003
1.124315e+003,3.654313e-003
1.126243e+003,3.652981e-003
1.128172e+003,3.650615e-003
1.130100e+003,3.705240e-003
1.132029e+003,3.691595e-003
1.133957e+003,3.720558e-003
1.135885e+003,3.684756e-003
1.137814e+003,3.648020e-003
1.139743e+003,3.614599e-003
1.141671e+003,3.739113e-003
1.143600e+003,3.868609e-003
1.145528e+003,4.014581e-003
1.147457e+003,4.198125e-003
1.149385e+003,4.537075e-003
1.151314e+003,4.838590e-003
1.153242e+003,5.082742e-003
1.155171e+003,5.235808e-003
1.157099e+003,5.304349e-003
1.159028e+003,5.270723e-003
1.160956e+003,5.243537e-003
1.162885e+003,5.158899e-003
1.164813e+003,5.100733e-003
1.166742e+003,4.963124e-003
1.168670e+003,4.829087e-003
1.170599e+003,4.601117e-003
1.172527e+003,4.423183e-003
1.174456e+003,4.304131e-003
1.176384e+003,4.290306e-003
1.178313e+003,4.087673e-003
1.180241e+003,3.902725e-003
1.182170e+003,3.781613e-003
1.184098e+003,3.782178e-003
1.186027e+003,3.814207e-003
1.187955e+003,3.928759e-003
1.189884e+003,4.006108e-003
1.191812e+003,4.127285e-003
1.193740e+003,4.169540e-003
1.195669e+003,4.290364e-003
1.197598e+003,4.399647e-003
1.199526e+003,4.606764e-003
1.201455e+003,4.779204e-003
1.203383e+003,5.000206e-003
1.205312e+003,5.238451e-003
1.207240e+003,5.492052e-003
1.209168e+003,5.658060e-003
1.211097e+003,5.837840e-003
1.213026e+003,5.976669e-003
1.214954e+003,6.140989e-003
1.216883e+003,6.249513e-003
1.218811e+003,6.373934e-003
1.220740e+003,6.439446e-003
1.222668e+003,6.581953e-003
1.224596e+003,6.703803e-003
1.226525e+003,6.811745e-003
1.228453e+003,6.844059e-003
1.230382e+003,6.956014e-003
1.232311e+003,7.028532e-003
1.234239e+003,7.112123e-003
1.236167e+003,7.125180e-003
1.238096e+003,7.146053e-003
1.240025e+003,7.092959e-003
1.241953e+003,7.099091e-003
1.243882e+003,7.082494e-003
1.245810e+003,7.061910e-003
1.247739e+003,6.947020e-003
1.249667e+003,6.878018e-003
1.251595e+003,6.754345e-003
1.253524e+003,6.711924e-003
1.255453e+003,6.682165e-003
1.257381e+003,6.711277e-003
1.259310e+003,6.691026e-003
1.261238e+003,6.671586e-003
1.263167e+003,6.513072e-003
1.265095e+003,6.375439e-003
1.267023e+003,6.245458e-003
1.268952e+003,6.210417e-003
1.270880e+003,6.150626e-003
1.272809e+003,6.140542e-003
1.274738e+003,6.073035e-003
1.276666e+003,6.131780e-003
1.278594e+003,6.182906e-003
1.280523e+003,6.288124e-003
1.282451e+003,6.384079e-003
1.284380e+003,6.571496e-003
1.286308e+003,6.775551e-003
1.288237e+003,7.098433e-003
1.290166e+003,7.342469e-003
1.292094e+003,7.699492e-003
1.294022e+003,8.036235e-003
1.295951e+003,8.471098e-003
1.297879e+003,8.779871e-003
1.299808e+003,9.074578e-003
1.301736e+003,9.197798e-003
1.303665e+003,9.232912e-003
1.305594e+003,9.124569e-003
1.307522e+003,9.033689e-003
1.309450e+003,8.748162e-003
1.311379e+003,8.490070e-003
1.313307e+003,8.076319e-003
1.315236e+003,7.653838e-003
1.317164e+003,7.283361e-003
1.319093e+003,6.946942e-003
1.321021e+003,6.446594e-003
1.322950e+003,6.122994e-003
1.324878e+003,5.891229e-003
1.326807e+003,5.826149e-003
1.328735e+003,5.743041e-003
1.330664e+003,5.802187e-003
1.332592e+003,5.920382e-003
1.334521e+003,6.344553e-003
1.336449e+003,7.012228e-003
1.338378e+003,8.049969e-003
1.340306e+003,8.661922e-003
1.342235e+003,8.815003e-003
1.344163e+003,9.102865e-003
1.346092e+003,9.713188e-003
1.348021e+003,1.036092e-002
1.349949e+003,1.103901e-002
1.351877e+003,1.133232e-002
1.353806e+003,1.142597e-002
1.355734e+003,1.123171e-002
1.357663e+003,1.123745e-002
1.359591e+003,1.156429e-002
1.361520e+003,1.253915e-002
1.363448e+003,1.364362e-002
1.365377e+003,1.446335e-002
1.367305e+003,1.513943e-002
1.369234e+003,1.519857e-002
1.371162e+003,1.426539e-002
1.373091e+003,1.361096e-002
1.375019e+003,1.356398e-002
1.376948e+003,1.340787e-002
1.378876e+003,1.157048e-002
1.380805e+003,8.789041e-003
1.382733e+003,6.765543e-003
1.384662e+003,6.047793e-003
1.386590e+003,5.834132e-003
1.388519e+003,5.582258e-003
1.390447e+003,5.118163e-003
1.392376e+003,5.108744e-003
1.394304e+003,5.281725e-003
1.396233e+003,5.511271e-003
1.398161e+003,5.410993e-003
1.400090e+003,5.321389e-003
1.402018e+003,5.051292e-003
1.403947e+003,5.418858e-003
1.405875e+003,5.432394e-003
1.407804e+003,5.543923e-003
1.409732e+003,5.657131e-003
1.411661e+003,5.993123e-003
1.413589e+003,6.078171e-003
1.415518e+003,6.602346e-003
1.417446e+003,7.225321e-003
1.419375e+003,8.301314e-003
1.421303e+003,8.478241e-003
1.423232e+003,9.472499e-003
1.425160e+003,1.058668e-002
1.427089e+003,1.219053e-002
1.429017e+003,1.448416e-002
1.430946e+003,1.775387e-002
1.432874e+003,2.032975e-002
1.434803e+003,2.303024e-002
1.436731e+003,2.597631e-002
1.438660e+003,2.813129e-002
1.440588e+003,2.927677e-002
1.442517e+003,3.114164e-002
1.444445e+003,3.255912e-002
1.446374e+003,3.499438e-002
1.448302e+003,3.837111e-002
1.450231e+003,4.323599e-002
1.452159e+003,5.067293e-002
1.454088e+003,6.063341e-002
1.456016e+003,7.139852e-002
1.457945e+003,9.742296e-002
1.459873e+003,1.432632e-001
1.461802e+003,1.872325e-001
1.463730e+003,1.825332e-001
1.465659e+003,1.375251e-001
1.467587e+003,1.242711e-001
1.469516e+003,1.218708e-001
1.471444e+003,1.390508e-001
1.473373e+003,1.240881e-001
1.475301e+003,6.676593e-002
1.477230e+003,2.885452e-002
1.479158e+003,1.794109e-002
1.481087e+003,1.301506e-002
1.483015e+003,1.069962e-002
1.484944e+003,8.903794e-003
1.486872e+003,8.768602e-003
1.488801e+003,8.123746e-003
1.490729e+003,7.870808e-003
1.492658e+003,6.395255e-003
1.494586e+003,6.373340e-003
1.496515e+003,6.009909e-003
1.498443e+003,6.097422e-003
1.500372e+003,5.263603e-003
1.502300e+003,5.053674e-003
1.504229e+003,4.702676e-003
1.506157e+003,6.380540e-003
1.508086e+003,6.288467e-003
1.510014e+003,5.620183e-003
1.511943e+003,4.633314e-003
1.513871e+003,4.590756e-003
1.515800e+003,4.684634e-003
1.517728e+003,4.869709e-003
1.519657e+003,4.544124e-003
1.521585e+003,5.323857e-003
1.523514e+003,4.663772e-003
1.525442e+003,4.810757e-003
1.527371e+003,4.289346e-003
1.529299e+003,3.972289e-003
1.531228e+003,3.745737e-003
1.533156e+003,4.318523e-003
1.535085e+003,3.794425e-003
1.537013e+003,3.807421e-003
1.538942e+003,4.369712e-003
1.540870e+003,5.890936e-003
1.542799e+003,5.173195e-003
1.544727e+003,4.744483e-003
1.546656e+003,3.640003e-003
1.548584e+003,3.654255e-003
1.550513e+003,3.549147e-003
1.552441e+003,3.496058e-003
1.554370e+003,3.495116e-003
1.556298e+003,3.769703e-003
1.558227e+003,4.843336e-003
1.560155e+003,4.813339e-003
1.562084e+003,3.407049e-003
1.564012e+003,3.185758e-003
1.565941e+003,2.977055e-003
1.567869e+003,3.258299e-003
1.569798e+003,3.432311e-003
1.571726e+003,3.073495e-003
1.573655e+003,2.915923e-003
1.575583e+003,3.630485e-003
1.577512e+003,3.577850e-003
1.579440e+003,3.131342e-003
1.581369e+003,2.835192e-003
1.583297e+003,2.829458e-003
1.585226e+003,2.761430e-003
1.587154e+003,2.811020e-003
1.589083e+003,2.764581e-003
1.591011e+003,2.858193e-003
1.592940e+003,2.876627e-003
1.594868e+003,2.975629e-003
1.596797e+003,2.793921e-003
1.598725e+003,2.708864e-003
1.600654e+003,2.682544e-003
1.602582e+003,2.779615e-003
1.604511e+003,2.656077e-003
1.606439e+003,2.828143e-003
1.608368e+003,2.917952e-003
1.610296e+003,2.862567e-003
1.612225e+003,2.669112e-003
1.614153e+003,2.832072e-003
1.616082e+003,3.224938e-003
1.618010e+003,3.351313e-003
1.619939e+003,3.065782e-003
1.621867e+003,3.391742e-003
1.623796e+003,3.669964e-003
1.625724e+003,3.604844e-003
1.627653e+003,3.627934e-003
1.629581e+003,3.557527e-003
1.631510e+003,3.366828e-003
1.633438e+003,3.580010e-003
1.635367e+003,4.572223e-003
1.637295e+003,5.173211e-003
1.639224e+003,4.971539e-003
1.641152e+003,5.362365e-003
1.643081e+003,5.955173e-003
1.645009e+003,6.797263e-003
1.646938e+003,6.937500e-003
1.648866e+003,5.375264e-003
1.650795e+003,4.661008e-003
1.652723e+003,5.492981e-003
1.654652e+003,4.610236e-003
1.656580e+003,3.648775e-003
1.658509e+003,3.009668e-003
1.660437e+003,2.944602e-003
1.662366e+003,3.011386e-003
1.664294e+003,2.731014e-003
1.666223e+003,2.475868e-003
1.668151e+003,2.884398e-003
1.670080e+003,3.134143e-003
1.672008e+003,2.793931e-003
1.673937e+003,2.584018e-003
1.675865e+003,2.475043e-003
1.677794e+003,2.088590e-003
1.679722e+003,2.231463e-003
1.681651e+003,2.248711e-003
1.683579e+003,2.870329e-003
1.685508e+003,2.464070e-003
1.687436e+003,2.183245e-003
1.689365e+003,1.937066e-003
1.691293e+003,1.525309e-003
1.693222e+003,1.239089e-003
1.695150e+003,1.741471e-003
1.697079e+003,2.125747e-003
1.699007e+003,2.315735e-003
1.700936e+003,2.243867e-003
1.702864e+003,1.919975e-003
1.704793e+003,1.861828e-003
1.706721e+003,1.741279e-003
1.708650e+003,1.325317e-003
1.710578e+003,1.141048e-003
1.712507e+003,1.060676e-003
1.714435e+003,1.550240e-003
1.716364e+003,2.127723e-003
1.718292e+003,2.216013e-003
1.720221e+003,1.241496e-003
1.722149e+003,9.403545e-004
1.724078e+003,7.544560e-004
1.726006e+003,5.509090e-004
1.727935e+003,4.057223e-004
1.729863e+003,5.951608e-004
1.731792e+003,6.570835e-004
1.733720e+003,9.940853e-004
1.735649e+003,-2.110684e-004
1.737577e+003,-8.084876e-004
1.739506e+003,-1.263340e-003
1.741434e+003,-1.602269e-003
1.743363e+003,-1.690126e-003
1.745291e+003,-1.566079e-003
1.747220e+003,-1.189903e-003
1.749148e+003,-4.908675e-004
1.751077e+003,-2.242317e-004
1.753005e+003,-3.678231e-004
1.754934e+003,-4.331833e-004
1.756862e+003,-1.330394e-005
1.758791e+003,-7.280521e-005
1.760719e+003,1.085214e-004
1.762648e+003,1.502028e-004
1.764576e+003,-1.178868e-005
1.766505e+003,-1.737010e-005
1.768433e+003,1.996122e-004
1.770362e+003,3.734166e-004
1.772290e+003,7.910812e-004
1.774219e+003,3.861152e-004
1.776147e+003,1.420164e-004
1.778076e+003,-1.040660e-005
1.780004e+003,1.337528e-004
1.781933e+003,-6.605871e-005
1.783861e+003,-1.890585e-006
1.785790e+003,-1.051519e-004
1.787718e+003,-2.489612e-004
1.789646e+003,-1.934078e-004
1.791575e+003,3.135484e-004
1.793504e+003,2.580611e-004
1.795432e+003,2.040267e-004
1.797361e+003,4.133210e-006
1.799289e+003,8.502603e-005
1.801218e+003,1.347978e-004
1.803146e+003,-6.762892e-005
1.805074e+003,-4.482418e-004
1.807003e+003,-4.325863e-004
1.808932e+003,-3.893711e-004
1.810860e+003,-3.165584e-004
1.812789e+003,-5.474612e-004
1.814717e+003,-7.756073e-004
1.816646e+003,-9.521600e-004
1.818574e+003,-6.973632e-004
1.820502e+003,-6.566681e-004
1.822431e+003,-5.617253e-004
1.824360e+003,-5.075391e-004
1.826288e+003,-4.640836e-004
1.828217e+003,-4.289020e-004
1.830145e+003,-3.277194e-004
1.832073e+003,-8.438714e-004
1.834002e+003,-9.685513e-004
1.835931e+003,-9.750538e-004
1.837859e+003,-9.495653e-004
1.839788e+003,-1.346931e-003
1.841716e+003,-1.244951e-003
1.843645e+003,-1.027241e-003
1.845573e+003,-7.631592e-004
1.847501e+003,-9.920131e-004
1.849430e+003,-1.119338e-003
1.851359e+003,-1.277400e-003
1.853287e+003,-1.125611e-003
1.855216e+003,-1.331652e-003
1.857144e+003,-1.291072e-003
1.859073e+003,-1.292778e-003
1.861001e+003,-1.207728e-003
1.862929e+003,-1.400387e-003
1.864858e+003,-1.306213e-003
1.866787e+003,-1.070851e-003
1.868715e+003,-5.950257e-004
1.870644e+003,-9.097327e-004
1.872572e+003,-1.096122e-003
1.874500e+003,-1.305897e-003
1.876429e+003,-1.208784e-003
1.878357e+003,-1.239737e-003
1.880286e+003,-1.137108e-003
1.882215e+003,-1.284016e-003
1.884143e+003,-1.082797e-003
1.886072e+003,-1.079753e-003
1.888000e+003,-6.196182e-004
1.889928e+003,-4.842337e-004
1.891857e+003,-3.070962e-004
1.893785e+003,-3.435165e-004
1.895714e+003,-3.372468e-004
1.897643e+003,-5.039815e-004
1.899571e+003,-4.345551e-004
1.901500e+003,-4.291367e-004
1.903428e+003,-4.237220e-004
1.905356e+003,-4.183184e-004
1.907285e+003,-4.129261e-004
1.909213e+003,-4.075393e-004
1.911142e+003,-4.021619e-004
1.913071e+003,-3.967956e-004
1.914999e+003,-3.914349e-004
1.916927e+003,-3.860854e-004
1.918856e+003,-3.807452e-004
1.920784e+003,-3.754124e-004
1.922713e+003,-3.700852e-004
1.924641e+003,-3.647730e-004
1.926570e+003,-3.594663e-004
1.928499e+003,-3.541708e-004
1.930427e+003,-3.488809e-004
1.932355e+003,-3.436003e-004
1.934284e+003,-3.383309e-004
1.936212e+003,-3.330689e-004
1.938141e+003,-3.278162e-004
1.940070e+003,-3.225710e-004
1.941998e+003,-3.173351e-004
1.943927e+003,-3.121085e-004
1.945855e+003,-3.068913e-004
1.947783e+003,-3.016815e-004
1.949712e+003,-2.964828e-004
1.951640e+003,-2.912916e-004
1.953569e+003,-2.861079e-004
1.955498e+003,-2.809353e-004
1.957426e+003,-2.757683e-004
1.959354e+003,-2.706125e-004
1.961283e+003,-2.654679e-004
1.963211e+003,-2.603270e-004
1.965140e+003,-2.551991e-004
1.967068e+003,-2.500769e-004
1.968997e+003,-2.449658e-004
1.970926e+003,-2.398640e-004
1.972854e+003,-2.347678e-004
1.974782e+003,-2.296828e-004
1.976711e+003,-2.246071e-004
1.978639e+003,-2.195388e-004
1.980568e+003,-2.144780e-004
1.982496e+003,-2.094302e-004
1.984425e+003,-2.043862e-004
1.986354e+003,-1.993570e-004
1.988282e+003,-1.943335e-004
1.990210e+003,-1.893155e-004
1.992139e+003,-1.843106e-004
1.994067e+003,-1.793131e-004
1.995996e+003,-1.743268e-004
1.997924e+003,-1.693461e-004
1.999853e+003,-1.643747e-004
2.001781e+003,-1.594126e-004
2.003710e+003,-1.544598e-004
2.005638e+003,-1.495164e-004
2.007567e+003,-1.445804e-004
2.009495e+003,-1.396518e-004
2.011424e+003,-1.347344e-004
2.013352e+003,-1.298282e-004
2.015281e+003,-1.249276e-004
2.017209e+003,-1.200363e-004
2.019138e+003,-1.151524e-004
2.021066e+003,-1.102798e-004
2.022995e+003,-1.054164e-004
2.024923e+003,-1.005586e-004
2.026852e+003,-9.571016e-005
2.028781e+003,-9.087287e-005
2.030709e+003,-8.604303e-005
2.032637e+003,-8.122064e-005
2.034566e+003,-7.641129e-005
2.036494e+003,-7.160753e-005
2.038423e+003,-6.681308e-005
2.040351e+003,-6.202795e-005
2.042280e+003,-5.725212e-005
2.044208e+003,-5.248375e-005
2.046137e+003,-4.772283e-005
2.048065e+003,-4.297495e-005
2.049994e+003,-3.823265e-005
2.051922e+003,-3.349967e-005
2.053851e+003,-2.877600e-005
2.055779e+003,-2.406351e-005
2.057708e+003,-1.935847e-005
2.059636e+003,-1.465902e-005
2.061565e+003,-9.970739e-006
2.063493e+003,-5.289912e-006
2.065422e+003,-6.202608e-007
2.067350e+003,4.043803e-006
2.069279e+003,8.694828e-006
2.071207e+003,1.334026e-005
2.073136e+003,1.797453e-005
2.075064e+003,2.259947e-005
2.076993e+003,2.721883e-005
2.078921e+003,3.182888e-005
2.080850e+003,3.642775e-005
2.082778e+003,4.101917e-005
2.084707e+003,4.560128e-005
2.086635e+003,5.017594e-005
2.088564e+003,5.473942e-005
2.090492e+003,5.929545e-005
2.092421e+003,6.384216e-005
2.094349e+003,6.838329e-005
2.096278e+003,7.291324e-005
2.098206e+003,7.743202e-005
2.100135e+003,8.194335e-005
2.102063e+003,8.644722e-005
2.103992e+003,9.094179e-005
2.105920e+003,9.542890e-005
2.107849e+003,9.990484e-005
2.109777e+003,1.043715e-004
2.111706e+003,1.088306e-004
2.113634e+003,1.132805e-004
2.115563e+003,1.177229e-004
2.117491e+003,1.221541e-004
2.119420e+003,1.265779e-004
2.121348e+003,1.309924e-004
2.123277e+003,1.353994e-004
2.125205e+003,1.397971e-004
2.127134e+003,1.441836e-004
2.129062e+003,1.485627e-004
2.130991e+003,1.529325e-004
2.132919e+003,1.572967e-004
2.134848e+003,1.616497e-004
2.136776e+003,1.659933e-004
2.138705e+003,1.703277e-004
2.140633e+003,1.746565e-004
2.142562e+003,1.789723e-004
2.144490e+003,1.832806e-004
2.146419e+003,1.875833e-004
2.148347e+003,1.918748e-004
2.150276e+003,1.961552e-004
2.152204e+003,2.004281e-004
2.154133e+003,2.046935e-004
2.156061e+003,2.089497e-004
2.157990e+003,2.131965e-004
2.159918e+003,2.174359e-004
2.161847e+003,2.216641e-004
2.163775e+003,2.258867e-004
2.165704e+003,2.300981e-004
2.167632e+003,2.343021e-004
2.169561e+003,2.384968e-004
2.171489e+003,2.426803e-004
2.173418e+003,2.468564e-004
2.175346e+003,2.510250e-004
2.177275e+003,2.551842e-004
2.179203e+003,2.593324e-004
2.181132e+003,2.634749e-004
2.183060e+003,2.676062e-004
2.184989e+003,2.717320e-004
2.186917e+003,2.758447e-004
2.188846e+003,2.799500e-004
2.190774e+003,2.840515e-004
2.192703e+003,2.881400e-004
2.194631e+003,2.922192e-004
2.196560e+003,2.962872e-004
2.198488e+003,3.003515e-004
2.200417e+003,3.044009e-004
2.202345e+003,3.084484e-004
2.204274e+003,3.124811e-004
2.206202e+003,3.165081e-004
2.208131e+003,3.205258e-004
2.210059e+003,3.245380e-004
2.211988e+003,3.285352e-004
2.213916e+003,3.325269e-004
2.215845e+003,3.365111e-004
2.217773e+003,3.404822e-004
2.219702e+003,3.444497e-004
2.221630e+003,3.484022e-004
2.223559e+003,3.523491e-004
2.225487e+003,3.562886e-004
2.227416e+003,3.602188e-004
2.229344e+003,3.641397e-004
2.231273e+003,3.680494e-004
2.233201e+003,3.719535e-004
2.235130e+003,3.758464e-004
2.237058e+003,3.797337e-004
2.238987e+003,3.836099e-004
2.240915e+003,3.874786e-004
2.242844e+003,3.913380e-004
2.244772e+003,3.951862e-004
2.246701e+003,3.990270e-004
2.248629e+003,4.028603e-004
2.250558e+003,4.066844e-004
2.252486e+003,4.104972e-004
2.254415e+003,4.143063e-004
2.256343e+003,4.181005e-004
2.258272e+003,4.218891e-004
2.260200e+003,4.256703e-004
2.262129e+003,4.294403e-004
2.264057e+003,4.332028e-004
2.265986e+003,4.369561e-004
2.267914e+003,4.407000e-004
2.269843e+003,4.444346e-004
2.271771e+003,4.481636e-004
2.273700e+003,4.518777e-004
2.275628e+003,4.555844e-004
2.277557e+003,4.592873e-004
2.279485e+003,4.629791e-004
2.281414e+003,4.666597e-004
2.283342e+003,4.703365e-004
2.285271e+003,4.740003e-004
2.287199e+003,4.776567e-004
2.289128e+003,4.813038e-004
2.291056e+003,4.849397e-004
2.292985e+003,4.885700e-004
2.294913e+003,4.921909e-004
2.296842e+003,4.958026e-004
2.298770e+003,4.994050e-004
2.300699e+003,5.029999e-004
2.302627e+003,5.065855e-004
2.304556e+003,5.101617e-004
2.306484e+003,5.137287e-004
2.308413e+003,5.172882e-004
2.310341e+003,5.208384e-004
2.312270e+003,5.243812e-004
2.314198e+003,5.279128e-004
2.316127e+003,5.314387e-004
2.318055e+003,5.349517e-004
2.319984e+003,5.384572e-004
2.321912e+003,5.419534e-004
2.323841e+003,5.454440e-004
2.325769e+003,5.489215e-004
2.327698e+003,5.523898e-004
2.329626e+003,5.558524e-004
2.331555e+003,5.593058e-004
2.333483e+003,5.627498e-004
2.335412e+003,5.661864e-004
2.337340e+003,5.696137e-004
2.339269e+003,5.730297e-004
2.341197e+003,5.764402e-004
2.343126e+003,5.798396e-004
2.345054e+003,5.832314e-004
2.346983e+003,5.866140e-004
2.348911e+003,5.899854e-004
2.350840e+003,5.933512e-004
2.352768e+003,5.967077e-004
2.354697e+003,6.000549e-004
2.356625e+003,6.033946e-004
2.358554e+003,6.067231e-004
2.360482e+003,6.100424e-004
2.362411e+003,6.133541e-004
2.364339e+003,6.166585e-004
2.366268e+003,6.199498e-004
2.368196e+003,6.232373e-004
2.370125e+003,6.265137e-004
2.372053e+003,6.297790e-004
2.373982e+003,6.330404e-004
2.375910e+003,6.362926e-004
2.377839e+003,6.395318e-004
2.379767e+003,6.427616e-004
2.381696e+003,6.459858e-004
2.383624e+003,6.492008e-004
2.385553e+003,6.524082e-004
2.387481e+003,6.556045e-004
2.389410e+003,6.587915e-004
2.391338e+003,6.619710e-004
2.393267e+003,6.651431e-004
2.395195e+003,6.683059e-004
2.397124e+003,6.714575e-004
2.399052e+003,6.746016e-004
2.400981e+003,6.481614e-004
2.402909e+003,6.341040e-004
2.404838e+003,6.635040e-004
2.406766e+003,9.194203e-004
2.408695e+003,1.227932e-003
2.410623e+003,1.306208e-003
2.412552e+003,1.367729e-003
2.414480e+003,1.289640e-003
2.416409e+003,1.135236e-003
2.418337e+003,1.092564e-003
2.420266e+003,1.150617e-003
2.422194e+003,1.205686e-003
2.424123e+003,1.096146e-003
2.426051e+003,1.006963e-003
2.427979e+003,1.042280e-003
2.429908e+003,1.065321e-003
2.431837e+003,1.168946e-003
2.433765e+003,1.132725e-003
2.435694e+003,9.511858e-004
2.437622e+003,7.708147e-004
2.439551e+003,8.690134e-004
2.441479e+003,9.455327e-004
2.443407e+003,1.096029e-003
2.445336e+003,1.212806e-003
2.447265e+003,1.272669e-003
2.449193e+003,1.254594e-003
2.451122e+003,1.236407e-003
2.453050e+003,1.145381e-003
2.454979e+003,1.351649e-003
2.456907e+003,1.525726e-003
2.458836e+003,1.545049e-003
2.460764e+003,1.460113e-003
2.462693e+003,1.377851e-003
2.464621e+003,1.283748e-003
2.466550e+003,1.275305e-003
2.468478e+003,1.291271e-003
2.470406e+003,1.454560e-003
2.472335e+003,1.485253e-003
2.474264e+003,1.516150e-003
2.476192e+003,1.619719e-003
2.478121e+003,1.689652e-003
2.480049e+003,1.615809e-003
2.481978e+003,1.692303e-003
2.483906e+003,1.709716e-003
2.485835e+003,1.754265e-003
2.487763e+003,1.655517e-003
2.489692e+003,1.735995e-003
2.491620e+003,1.819599e-003
2.493549e+003,1.732586e-003
2.495477e+003,1.691261e-003
2.497406e+003,1.876010e-003
2.499334e+003,1.992697e-003
2.501263e+003,2.115844e-003
2.503191e+003,2.281349e-003
2.505120e+003,2.319893e-003
2.507048e+003,2.167961e-003
2.508977e+003,2.238257e-003
2.510905e+003,2.343582e-003
2.512833e+003,2.349854e-003
2.514762e+003,2.509842e-003
2.516691e+003,2.624165e-003
2.518619e+003,2.475463e-003
2.520548e+003,2.401112e-003
2.522476e+003,2.647510e-003
2.524405e+003,2.878459e-003
2.526333e+003,2.967240e-003
2.528261e+003,3.211042e-003
2.530190e+003,3.214188e-003
2.532119e+003,3.144266e-003
2.534047e+003,3.081921e-003
2.535976e+003,3.066601e-003
2.537904e+003,3.006496e-003
2.539833e+003,3.189309e-003
2.541761e+003,3.355434e-003
2.543689e+003,3.375582e-003
2.545618e+003,3.540205e-003
2.547547e+003,3.686573e-003
2.549475e+003,3.866687e-003
2.551404e+003,4.088396e-003
2.553332e+003,4.237141e-003
2.555260e+003,4.357522e-003
2.557189e+003,4.300972e-003
2.559117e+003,4.407125e-003
2.561046e+003,4.549472e-003
2.562975e+003,4.689280e-003
2.564903e+003,4.912902e-003
2.566832e+003,5.005527e-003
2.568760e+003,5.075557e-003
2.570688e+003,5.219325e-003
2.572617e+003,5.228948e-003
2.574546e+003,5.437225e-003
2.576474e+003,5.737199e-003
2.578403e+003,6.011566e-003
2.580331e+003,6.132783e-003
2.582260e+003,6.187242e-003
2.584188e+003,6.405775e-003
2.586116e+003,6.637184e-003
2.588045e+003,6.878121e-003
2.589974e+003,7.142935e-003
2.591902e+003,7.304876e-003
2.593831e+003,7.485412e-003
2.595759e+003,7.747894e-003
2.597688e+003,7.907555e-003
2.599616e+003,8.004814e-003
2.601544e+003,8.276364e-003
2.603473e+003,8.511442e-003
2.605402e+003,8.585648e-003
2.607330e+003,8.831165e-003
2.609259e+003,9.185281e-003
2.611187e+003,9.463728e-003
2.613115e+003,9.794749e-003
2.615044e+003,1.009880e-002
2.616972e+003,1.037538e-002
2.618901e+003,1.073450e-002
2.620830e+003,1.111680e-002
2.622758e+003,1.144111e-002
2.624687e+003,1.183004e-002
2.626615e+003,1.235183e-002
2.628543e+003,1.282128e-002
2.630472e+003,1.321501e-002
2.632400e+003,1.352931e-002
2.634329e+003,1.368696e-002
2.636258e+003,1.383800e-002
2.638186e+003,1.386273e-002
2.640115e+003,1.385560e-002
2.642043e+003,1.384653e-002
2.643971e+003,1.379384e-002
2.645900e+003,1.379399e-002
2.647828e+003,1.392362e-002
2.649757e+003,1.408789e-002
2.651686e+003,1.420797e-002
2.653614e+003,1.436352e-002
2.655542e+003,1.452419e-002
2.657471e+003,1.464423e-002
2.659399e+003,1.469795e-002
2.661328e+003,1.459967e-002
2.663256e+003,1.443556e-002
2.665185e+003,1.427166e-002
2.667114e+003,1.415221e-002
2.669042e+003,1.405912e-002
2.670970e+003,1.391059e-002
2.672899e+003,1.373450e-002
2.674827e+003,1.353247e-002
2.676756e+003,1.340950e-002
2.678685e+003,1.332838e-002
2.680613e+003,1.321822e-002
2.682542e+003,1.307711e-002
2.684470e+003,1.296545e-002
2.686398e+003,1.287606e-002
2.688327e+003,1.271274e-002
2.690255e+003,1.257599e-002
2.692184e+003,1.255452e-002
2.694113e+003,1.252300e-002
2.696041e+003,1.253574e-002
2.697969e+003,1.253047e-002
2.699898e+003,1.257612e-002
2.701826e+003,1.273862e-002
2.703755e+003,1.288944e-002
2.705683e+003,1.307412e-002
2.707612e+003,1.325738e-002
2.709541e+003,1.346845e-002
2.711469e+003,1.365710e-002
2.713397e+003,1.386335e-002
2.715326e+003,1.401915e-002
2.717254e+003,1.414960e-002
2.719183e+003,1.434620e-002
2.721111e+003,1.456621e-002
2.723040e+003,1.480565e-002
2.724969e+003,1.518118e-002
2.726897e+003,1.556129e-002
2.728825e+003,1.581873e-002
2.730754e+003,1.602678e-002
2.732682e+003,1.623479e-002
2.734611e+003,1.648513e-002
2.736539e+003,1.660335e-002
2.738468e+003,1.664442e-002
2.740396e+003,1.678866e-002
2.742325e+003,1.693012e-002
2.744253e+003,1.698830e-002
2.746182e+003,1.699435e-002
2.748110e+003,1.702832e-002
2.750039e+003,1.713337e-002
2.751967e+003,1.735624e-002
2.753896e+003,1.760798e-002
2.755824e+003,1.782781e-002
2.757753e+003,1.817053e-002
2.759681e+003,1.861918e-002
2.761610e+003,1.904735e-002
2.763538e+003,1.950263e-002
2.765467e+003,1.993474e-002
2.767395e+003,2.040731e-002
2.769324e+003,2.098748e-002
2.771252e+003,2.163679e-002
2.773181e+003,2.237499e-002
2.775109e+003,2.317876e-002
2.777038e+003,2.399420e-002
2.778966e+003,2.492283e-002
2.780895e+003,2.602411e-002
2.782823e+003,2.712788e-002
2.784752e+003,2.832472e-002
2.786680e+003,2.972388e-002
2.788609e+003,3.119828e-002
2.790537e+003,3.274089e-002
2.792466e+003,3.445487e-002
2.794394e+003,3.619885e-002
2.796323e+003,3.792467e-002
2.798251e+003,3.969172e-002
2.800180e+003,4.155595e-002
2.802108e+003,4.356030e-002
2.804037e+003,4.576444e-002
2.805965e+003,4.818093e-002
2.807894e+003,5.088504e-002
2.809822e+003,5.389185e-002
2.811751e+003,5.722215e-002
2.813679e+003,6.103755e-002
2.815608e+003,6.542472e-002
2.817536e+003,7.047844e-002
2.819465e+003,7.650948e-002
2.821393e+003,8.369786e-002
2.823322e+003,9.233746e-002
2.825250e+003,1.029335e-001
2.827179e+003,1.164141e-001
2.829107e+003,1.337897e-001
2.831036e+003,1.567082e-001
2.832964e+003,1.878349e-001
2.834893e+003,2.315692e-001
2.836821e+003,2.936768e-001
2.838750e+003,3.836744e-001
2.840678e+003,5.175499e-001
2.842607e+003,7.151235e-001
2.844535e+003,9.838457e-001
2.846464e+003,1.247531e+000
2.848392e+003,1.268444e+000
2.850321e+003,1.009465e+000
2.852249e+003,7.331873e-001
2.854178e+003,5.430765e-001
2.856106e+003,4.156301e-001
2.858035e+003,3.258481e-001
2.859963e+003,2.620980e-001
2.861892e+003,2.180306e-001
2.863820e+003,1.888544e-001
2.865749e+003,1.712310e-001
2.867677e+003,1.624918e-001
2.869606e+003,1.599605e-001
2.871534e+003,1.617078e-001
2.873463e+003,1.675130e-001
2.875391e+003,1.785016e-001
2.877320e+003,1.953546e-001
2.879248e+003,2.175985e-001
2.881177e+003,2.440261e-001
2.883105e+003,2.735711e-001
2.885034e+003,3.055323e-001
2.886962e+003,3.395575e-001
2.888891e+003,3.748727e-001
2.890819e+003,4.104578e-001
2.892748e+003,4.456805e-001
2.894676e+003,4.805216e-001
2.896605e+003,5.156373e-001
2.898533e+003,5.524288e-001
2.900462e+003,5.936278e-001
2.902390e+003,6.435605e-001
2.904319e+003,7.087304e-001
2.906247e+003,7.975072e-001
2.908176e+003,9.191692e-001
2.910104e+003,1.079318e+000
2.912033e+003,1.262114e+000
2.913961e+003,1.398881e+000
2.915890e+003,1.393873e+000
2.917818e+003,1.246158e+000
2.919747e+003,1.049469e+000
2.921675e+003,8.686857e-001
2.923604e+003,7.204120e-001
2.925532e+003,6.025134e-001
2.927461e+003,5.074443e-001
2.929389e+003,4.283641e-001
2.931318e+003,3.612022e-001
2.933246e+003,3.037446e-001
2.935175e+003,2.548120e-001
2.937103e+003,2.133289e-001
2.939032e+003,1.783929e-001
2.940960e+003,1.494685e-001
2.942889e+003,1.260896e-001
2.944817e+003,1.079051e-001
2.946746e+003,9.451561e-002
2.948674e+003,8.523384e-002
2.950603e+003,7.884933e-002
2.952531e+003,7.387226e-002
2.954460e+003,6.911629e-002
2.956388e+003,6.420406e-002
2.958317e+003,5.913042e-002
2.960245e+003,5.389548e-002
2.962174e+003,4.838791e-002
2.964102e+003,4.285400e-002
2.966031e+003,3.755656e-002
2.967959e+003,3.281496e-002
2.969888e+003,2.878760e-002
2.971816e+003,2.538493e-002
2.973745e+003,2.260571e-002
2.975673e+003,2.038806e-002
2.977602e+003,1.850165e-002
2.979530e+003,1.693377e-002
2.981459e+003,1.568615e-002
2.983387e+003,1.464448e-002
2.985316e+003,1.362830e-002
2.987244e+003,1.272360e-002
2.989173e+003,1.191514e-002
2.991101e+003,1.119301e-002
2.993030e+003,1.058945e-002
2.994958e+003,1.008595e-002
2.996887e+003,9.529524e-003
2.998815e+003,9.022330e-003
3.000744e+003,8.605991e-003
3.002672e+003,8.221879e-003
3.004601e+003,7.824106e-003
3.006529e+003,7.490085e-003
3.008458e+003,7.314017e-003
3.010386e+003,7.239293e-003
3.012315e+003,7.182311e-003
3.014243e+003,7.105919e-003
3.016172e+003,6.934004e-003
3.018100e+003,6.781433e-003
3.020029e+003,6.696241e-003
3.021957e+003,6.600562e-003
3.023886e+003,6.550748e-003
3.025814e+003,6.522140e-003
3.027743e+003,6.350018e-003
3.029671e+003,6.216424e-003
3.031600e+003,6.027756e-003
3.033528e+003,5.798012e-003
3.035457e+003,5.595988e-003
3.037385e+003,5.317705e-003
3.039314e+003,5.019063e-003
3.041242e+003,4.729439e-003
3.043171e+003,4.484225e-003
3.045099e+003,4.348004e-003
3.047028e+003,4.191425e-003
3.048956e+003,4.027592e-003
3.050885e+003,3.811486e-003
3.052813e+003,3.681416e-003
3.054742e+003,3.608009e-003
3.056670e+003,3.544884e-003
3.058599e+003,3.327684e-003
3.060527e+003,3.085686e-003
3.062456e+003,2.914829e-003
3.064384e+003,2.906492e-003
3.066313e+003,2.889335e-003
3.068241e+003,2.769481e-003
3.070170e+003,2.630161e-003
3.072098e+003,2.592757e-003
3.074027e+003,2.544176e-003
3.075955e+003,2.474766e-003
3.077884e+003,2.380883e-003
3.079812e+003,2.315003e-003
3.081741e+003,2.210058e-003
3.083669e+003,2.032507e-003
3.085598e+003,1.905743e-003
3.087526e+003,1.826528e-003
3.089455e+003,1.695560e-003
3.091383e+003,1.556385e-003
3.093312e+003,1.361506e-003
3.095240e+003,1.249401e-003
3.097169e+003,1.027495e-003
3.099097e+003,6.678812e-004
3.101026e+003,4.819743e-004
3.102954e+003,4.001148e-004
3.104883e+003,2.404246e-004
3.106811e+003,9.005331e-005
3.108740e+003,-1.849420e-005
3.110668e+003,3.967434e-007
3.112597e+003,-1.072269e-004
3.114525e+003,-1.886226e-004
3.116454e+003,-2.123043e-004
3.118382e+003,-2.227239e-004
3.120311e+003,-3.431309e-004
3.122239e+003,-3.887024e-004
3.124168e+003,-2.894551e-004
3.126096e+003,-2.342332e-004
3.128025e+003,-3.516935e-004
3.129953e+003,-4.142951e-004
3.131882e+003,-3.573261e-004
3.133810e+003,-4.259180e-004
3.135739e+003,-5.911253e-004
3.137667e+003,-5.542841e-004
3.139596e+003,-4.432239e-004
3.141524e+003,-4.003104e-004
3.143453e+003,-3.636871e-004
3.145381e+003,-3.430899e-004
3.147310e+003,-3.408045e-004
3.149238e+003,-3.267303e-004
3.151167e+003,-2.641305e-004
3.153095e+003,-1.333058e-004
3.155024e+003,-1.687873e-004
3.156952e+003,-2.926700e-004
3.158881e+003,-3.001187e-004
3.160809e+003,-2.671480e-004
3.162738e+003,-2.267268e-004
3.164666e+003,-1.721438e-004
3.166594e+003,-1.128577e-004
3.168523e+003,-4.462153e-005
3.170452e+003,4.913658e-006
3.172380e+003,7.464550e-005
3.174309e+003,1.502577e-004
3.176237e+003,2.291687e-004
3.178166e+003,3.359150e-004
3.180094e+003,2.801102e-004
3.182022e+003,2.064239e-004
3.183951e+003,3.716126e-004
3.185880e+003,5.424134e-004
3.187808e+003,5.595665e-004
3.189737e+003,6.569456e-004
3.191665e+003,6.740876e-004
3.193594e+003,5.118269e-004
3.195522e+003,4.748851e-004
3.197450e+003,5.152617e-004
3.199379e+003,5.537104e-004
3.201308e+003,4.765801e-004
3.203236e+003,3.336426e-004
3.205165e+003,3.141109e-004
3.207093e+003,3.039557e-004
3.209021e+003,3.526211e-004
3.210950e+003,3.632791e-004
3.212878e+003,3.040619e-004
3.214807e+003,1.225080e-004
3.216736e+003,3.061071e-005
3.218664e+003,1.157075e-004
3.220593e+003,1.213197e-004
3.222521e+003,-3.852509e-005
3.224449e+003,-1.433361e-004
3.226378e+003,2.244487e-006
3.228307e+003,6.728619e-005
3.230235e+003,-1.292545e-004
3.232164e+003,-2.165865e-004
3.234092e+003,-9.040534e-005
3.236021e+003,-5.656108e-005
3.237949e+003,-1.182929e-004
3.239877e+003,-1.412891e-004
3.241806e+003,-7.744879e-005
3.243735e+003,-1.511723e-005
3.245663e+003,-1.590326e-005
3.247592e+003,-1.537185e-004
3.249520e+003,-2.363659e-004
3.251448e+003,-2.183430e-004
3.253377e+003,-1.059659e-005
3.255305e+003,1.392346e-004
3.257234e+003,7.065013e-005
3.259163e+003,-5.320087e-005
3.261091e+003,-5.317293e-005
3.263020e+003,-1.294278e-004
3.264948e+003,-1.814291e-004
3.266876e+003,-6.491132e-005
3.268805e+003,5.005114e-005
3.270733e+003,9.379722e-005
3.272662e+003,1.678634e-004
3.274591e+003,2.420191e-004
3.276519e+003,1.810659e-004
3.278448e+003,8.054078e-005
3.280376e+003,1.218673e-004
3.282304e+003,2.178624e-004
3.284233e+003,2.661608e-004
3.286161e+003,2.096351e-004
3.288090e+003,2.100132e-004
3.290019e+003,3.293268e-004
3.291947e+003,3.430657e-004
3.293875e+003,2.437439e-004
3.295804e+003,2.375841e-004
3.297732e+003,3.444124e-004
3.299661e+003,3.966633e-004
3.301589e+003,2.770200e-004
3.303518e+003,2.160948e-004
3.305447e+003,2.410114e-004
3.307375e+003,3.864970e-004
3.309303e+003,4.450604e-004
3.311232e+003,4.291628e-004
3.313160e+003,4.441068e-004
3.315089e+003,4.703067e-004
3.317018e+003,5.003158e-004
3.318946e+003,4.732665e-004
3.320875e+003,3.710072e-004
3.322803e+003,2.904981e-004
3.324731e+003,2.541877e-004
3.326660e+003,2.893433e-004
3.328588e+003,3.526192e-004
3.330517e+003,3.165957e-004
3.332446e+003,2.664216e-004
3.334374e+003,4.441664e-004
3.336302e+003,6.113742e-004
3.338231e+003,6.376151e-004
3.340159e+003,5.821604e-004
3.342088e+003,5.375333e-004
3.344016e+003,5.609337e-004
3.345945e+003,5.973354e-004
3.347874e+003,6.239656e-004
3.349802e+003,6.041303e-004
3.351730e+003,6.108079e-004
3.353659e+003,5.935598e-004
3.355587e+003,6.686710e-004
3.357516e+003,7.090867e-004
3.359444e+003,7.860027e-004
3.361373e+003,9.528287e-004
3.363302e+003,9.651966e-004
3.365230e+003,9.985287e-004
3.367158e+003,1.022244e-003
3.369087e+003,1.038073e-003
3.371015e+003,1.109954e-003
3.372944e+003,1.134865e-003
3.374872e+003,1.137586e-003
3.376801e+003,1.253124e-003
3.378729e+003,1.322325e-003
3.380658e+003,1.467980e-003
3.382586e+003,1.637639e-003
3.384515e+003,1.826609e-003
3.386443e+003,1.910783e-003
3.388372e+003,2.058042e-003
3.390300e+003,2.260340e-003
3.392229e+003,2.361191e-003
3.394157e+003,2.142731e-003
3.396086e+003,1.960825e-003
3.398014e+003,1.731858e-003
3.399943e+003,1.470733e-003
3.401871e+003,1.270574e-003
3.403800e+003,1.075201e-003
3.405728e+003,9.986162e-004
3.407657e+003,8.643102e-004
3.409585e+003,5.769823e-004
3.411514e+003,4.745498e-004
3.413442e+003,5.099159e-004
3.415371e+003,3.943108e-004
3.417299e+003,2.916045e-004
3.419228e+003,4.770849e-004
3.421156e+003,5.196612e-004
3.423085e+003,3.726743e-004
3.425013e+003,2.081282e-004
3.426942e+003,9.297766e-005
3.428870e+003,5.633011e-005
3.430799e+003,1.277141e-004
3.432727e+003,1.598131e-004
3.434656e+003,6.103888e-005
3.436584e+003,-1.444481e-005
3.438513e+003,-5.248934e-005
3.440441e+003,8.935109e-006
3.442370e+003,5.113892e-005
3.444298e+003,6.478280e-005
3.446227e+003,4.243627e-004
3.448155e+003,3.157742e-004
3.450084e+003,-9.154901e-005
3.452012e+003,-1.851153e-004
3.453941e+003,-2.891291e-004
3.455869e+003,-3.490243e-004
3.457798e+003,-4.170947e-004
3.459726e+003,-3.918391e-004
3.461655e+003,-2.854969e-004
3.463583e+003,-2.757031e-004
3.465512e+003,-2.978425e-004
3.467440e+003,-4.073009e-004
3.469369e+003,-6.480385e-004
3.471297e+003,-6.432924e-004
3.473226e+003,-5.142447e-004
3.475154e+003,-5.876217e-004
3.477083e+003,-7.625222e-004
3.479011e+003,-6.405897e-004
3.480940e+003,-4.399475e-004
3.482868e+003,-4.949644e-004
3.484797e+003,-5.217865e-004
3.486725e+003,-4.282743e-004
3.488654e+003,-5.117804e-004
3.490582e+003,-6.581247e-004
3.492511e+003,-6.495006e-004
3.494439e+003,-6.423499e-004
3.496368e+003,-6.836932e-004
3.498296e+003,-7.222276e-004
3.500225e+003,-6.114934e-004
3.502153e+003,-1.690350e-004
3.504082e+003,-2.129599e-004
3.506010e+003,-5.518906e-004
3.507939e+003,-4.917607e-004
3.509867e+003,-4.519150e-004
3.511796e+003,-6.254446e-004
3.513724e+003,-8.200817e-004
3.515653e+003,-9.515006e-004
3.517581e+003,-1.005402e-003
3.519510e+003,-1.043325e-003
3.521438e+003,-7.924717e-004
3.523367e+003,-4.903395e-004
3.525295e+003,-4.177168e-004
3.527224e+003,-1.754221e-004
3.529152e+003,-2.807248e-004
3.531081e+003,-6.619245e-004
3.533009e+003,-1.067720e-003
3.534938e+003,-1.039784e-003
3.536866e+003,-8.834116e-004
3.538795e+003,-1.068743e-003
3.540723e+003,-1.231428e-003
3.542652e+003,-9.498857e-004
3.544580e+003,-2.868753e-004
3.546509e+003,-8.325465e-005
3.548437e+003,-5.711205e-004
3.550366e+003,-6.665140e-004
3.552294e+003,-3.675893e-004
3.554223e+003,-7.460210e-004
3.556151e+003,-1.031104e-003
3.558080e+003,-1.050472e-003
3.560008e+003,-9.956695e-004
3.561937e+003,-1.034992e-003
3.563865e+003,-6.622411e-004
3.565794e+003,7.776376e-004
3.567722e+003,1.305444e-003
3.569651e+003,7.627159e-005
3.571579e+003,-7.495843e-004
3.573508e+003,-1.038289e-003
3.575436e+003,-1.049146e-003
3.577365e+003,-9.641405e-004
3.579293e+003,-9.108670e-004
3.581222e+003,-9.918809e-004
3.583150e+003,-9.671543e-004
3.585079e+003,-4.279185e-004
3.587007e+003,9.909980e-004
3.588936e+003,6.646756e-004
3.590864e+003,-2.004299e-004
3.592793e+003,1.632981e-005
3.594721e+003,5.488712e-004
3.596650e+003,9.016879e-004
3.598578e+003,1.383357e-003
3.600507e+003,1.838909e-003
3.602435e+003,1.748763e-003
3.604364e+003,1.305124e-003
3.606292e+003,1.449961e-003
3.608221e+003,1.912080e-003
3.610149e+003,1.499312e-003
3.612078e+003,1.801103e-003
3.614006e+003,1.741404e-003
3.615935e+003,9.700321e-004
3.617863e+003,1.536949e-003
3.619792e+003,2.089918e-003
3.621720e+003,9.883810e-004
3.623649e+003,-5.055219e-006
3.625577e+003,-3.280062e-004
3.627506e+003,6.137453e-004
3.629434e+003,2.457349e-003
3.631363e+003,1.508780e-003
3.633291e+003,6.812941e-004
3.635220e+003,1.490470e-004
3.637148e+003,1.157317e-004
3.639077e+003,2.169944e-004
3.641005e+003,3.297664e-004
3.642934e+003,-1.761578e-004
3.644862e+003,-2.968870e-004
3.646791e+003,1.171380e-003
3.648719e+003,3.639232e-003
3.650648e+003,3.456017e-003
3.652576e+003,1.022287e-003
3.654505e+003,2.691206e-004
3.656433e+003,4.332904e-004
3.658362e+003,2.450012e-004
3.660290e+003,2.205931e-005
3.662219e+003,-2.987050e-004
3.664147e+003,-7.386375e-004
3.666076e+003,-9.274501e-004
3.668004e+003,-2.524033e-004
3.669933e+003,1.061697e-003
3.671861e+003,6.434433e-004
3.673790e+003,1.359658e-003
3.675718e+003,3.461452e-003
3.677647e+003,2.312226e-003
3.679575e+003,1.189610e-003
3.681504e+003,1.635589e-004
3.683432e+003,-4.521552e-004
3.685361e+003,-6.608367e-004
3.687289e+003,9.604357e-005
3.689218e+003,1.905300e-003
3.691146e+003,1.986649e-003
3.693075e+003,1.005055e-003
3.695003e+003,3.997870e-004
3.696932e+003,7.431954e-007
3.698860e+003,-2.649501e-004
3.700789e+003,2.101511e-004
3.702717e+003,3.436375e-004
3.704646e+003,-1.512896e-004
3.706574e+003,-2.391972e-004
3.708503e+003,3.301296e-004
3.710431e+003,2.090912e-003
3.712360e+003,2.734633e-003
3.714288e+003,1.373660e-003
3.716217e+003,3.165994e-004
3.718145e+003,2.902057e-004
3.720074e+003,6.818734e-004
3.722002e+003,1.311764e-003
3.723931e+003,1.327012e-003
3.725859e+003,1.540409e-003
3.727788e+003,8.801669e-004
3.729716e+003,2.430975e-004
3.731645e+003,5.451776e-004
3.733573e+003,2.452781e-003
3.735502e+003,4.866244e-003
3.737430e+003,3.527995e-003
3.739359e+003,1.765251e-003
3.741287e+003,1.143377e-003
3.743216e+003,1.854984e-003
3.745144e+003,2.959080e-003
3.747073e+003,2.537129e-003
3.749001e+003,3.111338e-003
3.750930e+003,4.731154e-003
3.752858e+003,3.477469e-003
3.754787e+003,2.005663e-003
3.756715e+003,1.602093e-003
3.758644e+003,1.519488e-003
3.760572e+003,1.204314e-003
3.762501e+003,6.511807e-004
3.764429e+003,6.857254e-004
3.766358e+003,6.521344e-004
3.768286e+003,1.104606e-003
3.770215e+003,1.887033e-003
3.772143e+003,1.220468e-003
3.774072e+003,3.242157e-004
3.776000e+003,6.371550e-005
3.777929e+003,6.787702e-004
3.779857e+003,1.092458e-003
3.781786e+003,8.859709e-004
3.783714e+003,1.183588e-003
3.785643e+003,1.397813e-003
3.787571e+003,9.920690e-004
3.789500e+003,7.091016e-004
3.791428e+003,7.900354e-004
3.793357e+003,3.936421e-004
3.795285e+003,5.940404e-004
3.797214e+003,1.205415e-003
3.799142e+003,1.513883e-003
3.801071e+003,3.068108e-003
3.802999e+003,2.554204e-003
3.804927e+003,2.110485e-003
3.806856e+003,2.829809e-003
3.808785e+003,2.036422e-003
3.810713e+003,1.041207e-003
3.812642e+003,5.317964e-004
3.814570e+003,9.118449e-004
3.816499e+003,1.801379e-003
3.818427e+003,2.187492e-003
3.820355e+003,3.847877e-003
3.822284e+003,3.905848e-003
3.824213e+003,2.740780e-003
3.826141e+003,2.353422e-003
3.828070e+003,1.567323e-003
3.829998e+003,1.168871e-003
3.831927e+003,1.451958e-003
3.833855e+003,1.622770e-003
3.835783e+003,2.332957e-003
3.837712e+003,3.911220e-003
3.839641e+003,4.494959e-003
3.841569e+003,3.615241e-003
3.843498e+003,2.986655e-003
3.845426e+003,1.981417e-003
3.847354e+003,1.139697e-003
3.849283e+003,8.224659e-004
3.851211e+003,1.469539e-003
3.853140e+003,4.950624e-003
3.855069e+003,5.249700e-003
3.856997e+003,3.649466e-003
3.858926e+003,2.116423e-003
3.860854e+003,1.786428e-003
3.862782e+003,2.404151e-003
3.864711e+003,3.125487e-003
3.866640e+003,2.143402e-003
3.868568e+003,2.701720e-003
3.870497e+003,4.052792e-003
3.872425e+003,3.784899e-003
3.874354e+003,3.559820e-003
3.876282e+003,2.241561e-003
3.878210e+003,1.662353e-003
3.880139e+003,2.522344e-003
3.882068e+003,2.545688e-003
3.883996e+003,2.603555e-003
3.885925e+003,2.896411e-003
3.887853e+003,2.038985e-003
3.889781e+003,2.212742e-003
3.891710e+003,3.053108e-003
3.893638e+003,2.374668e-003
3.895567e+003,1.336262e-003
3.897496e+003,1.379555e-003
3.899424e+003,2.185363e-003
3.901353e+003,3.048057e-003
3.903281e+003,4.100107e-003
3.905209e+003,3.995949e-003
3.907138e+003,2.737146e-003
3.909066e+003,1.899738e-003
3.910995e+003,1.523821e-003
3.912924e+003,1.100365e-003
3.914852e+003,1.478575e-003
3.916781e+003,2.223885e-003
3.918709e+003,2.166256e-003
3.920637e+003,1.979539e-003
3.922566e+003,2.125500e-003
3.924494e+003,2.362093e-003
3.926423e+003,1.769820e-003
3.928352e+003,1.612067e-003
3.930280e+003,1.952872e-003
3.932208e+003,2.442012e-003
3.934137e+003,2.109066e-003
3.936065e+003,1.595318e-003
3.937994e+003,1.335684e-003
3.939922e+003,1.224339e-003
3.941851e+003,1.875998e-003
3.943780e+003,2.044180e-003
3.945708e+003,1.658976e-003
3.947636e+003,1.876939e-003
3.949565e+003,1.874106e-003
3.951493e+003,1.482736e-003
3.953422e+003,1.292989e-003
3.955351e+003,1.192270e-003
3.957279e+003,1.175532e-003
3.959208e+003,1.378838e-003
3.961136e+003,1.549134e-003
3.963064e+003,1.382997e-003
3.964993e+003,1.180867e-003
3.966921e+003,1.149699e-003
3.968850e+003,1.171354e-003
3.970779e+003,1.248363e-003
3.972707e+003,1.315469e-003
3.974635e+003,1.304151e-003
3.976564e+003,1.289966e-003
3.978492e+003,1.351602e-003
3.980421e+003,1.366261e-003
3.982349e+003,1.306456e-003
3.984278e+003,1.294319e-003
3.986207e+003,1.323277e-003
3.988135e+003,1.378564e-003
3.990063e+003,1.484316e-003
3.991992e+003,1.323810e-003
3.993920e+003,1.232902e-003
3.995849e+003,1.180643e-003
3.997777e+003,1.105500e-003
3.999706e+003,1.077410e-003
4.001635e+003,0.000000e+000
