3.991992e+002,0.000000e+000
4.011277e+002,0.000000e+000
4.030562e+002,0.000000e+000
4.049846e+002,0.000000e+000
4.069131e+002,0.000000e+000
4.088416e+002,0.000000e+000
4.107701e+002,0.000000e+000
4.126986e+002,0.000000e+000
4.146271e+002,0.000000e+000
4.165556e+002,0.000000e+000
4.184841e+002,0.000000e+000
4.204126e+002,0.000000e+000
4.223411e+002,0.000000e+000
4.242697e+002,0.000000e+000
4.261982e+002,0.000000e+000
4.281266e+002,0.000000e+000
4.300551e+002,0.000000e+000
4.319836e+002,0.000000e+000
4.339121e+002,0.000000e+000
4.358406e+002,0.000000e+000
4.377691e+002,0.000000e+000
4.396976e+002,0.000000e+000
4.416261e+002,0.000000e+000
4.435546e+002,0.000000e+000
4.454831e+002,0.000000e+000
4.474116e+002,0.000000e+000
4.493401e+002,0.000000e+000
4.512686e+002,0.000000e+000
4.531971e+002,0.000000e+000
4.551256e+002,0.000000e+000
4.570541e+002,0.000000e+000
4.589826e+002,0.000000e+000
4.609111e+002,0.000000e+000
4.628396e+002,0.000000e+000
4.647681e+002,0.000000e+000
4.666966e+002,0.000000e+000
4.686251e+002,0.000000e+000
4.705536e+002,0.000000e+000
4.724821e+002,0.000000e+000
4.744106e+002,0.000000e+000
4.763391e+002,0.000000e+000
4.782676e+002,0.000000e+000
4.801961e+002,0.000000e+000
4.821246e+002,0.000000e+000
4.840531e+002,0.000000e+000
4.859816e+002,0.000000e+000
4.879101e+002,0.000000e+000
4.898386e+002,0.000000e+000
4.917671e+002,0.000000e+000
4.936956e+002,0.000000e+000
4.956241e+002,0.000000e+000
4.975526e+002,0.000000e+000
4.994811e+002,0.000000e+000
5.014096e+002,0.000000e+000
5.033381e+002,0.000000e+000
5.052666e+002,0.000000e+000
5.071951e+002,0.000000e+000
5.091236e+002,0.000000e+000
5.110521e+002,0.000000e+000
5.129806e+002,0.000000e+000
5.149091e+002,0.000000e+000
5.168376e+002,0.000000e+000
5.187661e+002,0.000000e+000
5.206946e+002,0.000000e+000
5.226230e+002,0.000000e+000
5.245516e+002,-2.609883e-004
5.264800e+002,-4.428783e-004
5.284086e+002,-5.193530e-004
5.303370e+002,-4.742146e-004
5.322656e+002,-3.487114e-004
5.341940e+002,-3.612954e-004
5.361226e+002,-4.220512e-004
5.380510e+002,-4.044734e-004
5.399796e+002,-3.795344e-004
5.419081e+002,-4.863199e-004
5.438365e+002,-4.357621e-004
5.457650e+002,-3.985390e-004
5.476935e+002,-4.399642e-004
5.496221e+002,-4.851874e-004
5.515505e+002,-4.379358e-004
5.534790e+002,-2.463162e-004
5.554075e+002,-1.438241e-004
5.573361e+002,-3.083833e-004
5.592645e+002,-3.263019e-004
5.611931e+002,-2.799071e-004
5.631215e+002,-4.004519e-004
5.650500e+002,-4.612971e-004
5.669785e+002,-3.789887e-004
5.689070e+002,-3.986340e-004
5.708355e+002,-5.089790e-004
5.727640e+002,-6.568097e-004
5.746925e+002,-6.030016e-004
5.766210e+002,-6.017480e-004
5.785495e+002,-5.336311e-004
5.804780e+002,-5.328022e-004
5.824065e+002,-6.027631e-004
5.843350e+002,-5.261321e-004
5.862635e+002,-4.140418e-004
5.881920e+002,-4.982464e-004
5.901205e+002,-5.126968e-004
5.920490e+002,-5.039107e-004
5.939775e+002,-4.525073e-004
5.959060e+002,-4.742071e-004
5.978345e+002,-4.413798e-004
5.997630e+002,-3.448147e-004
6.016915e+002,-4.010387e-004
6.036200e+002,-4.330240e-004
6.055485e+002,-3.700536e-004
6.074770e+002,-3.218725e-004
6.094055e+002,-2.395306e-004
6.113340e+002,-3.430061e-004
6.132625e+002,-4.226100e-004
6.151910e+002,-4.226342e-004
6.171195e+002,-3.512483e-004
6.190480e+002,-4.095919e-004
6.209765e+002,-3.955942e-004
6.229050e+002,-3.383309e-004
6.248335e+002,-2.389736e-004
6.267620e+002,-1.905598e-004
6.286905e+002,-9.416416e-005
6.306190e+002,-2.728403e-005
6.325475e+002,3.786758e-006
6.344760e+002,-5.310588e-005
6.364045e+002,-9.039789e-005
6.383330e+002,-1.258031e-005
6.402615e+002,5.201623e-005
6.421899e+002,3.493950e-005
6.441185e+002,8.095987e-005
6.460470e+002,9.228662e-005
6.479755e+002,2.121739e-004
6.499039e+002,2.648979e-004
6.518325e+002,2.166070e-004
6.537610e+002,1.508035e-004
6.556895e+002,2.946053e-004
6.576179e+002,3.130417e-004
6.595464e+002,2.691392e-004
6.614750e+002,3.174730e-004
6.634034e+002,4.332960e-004
6.653319e+002,4.811008e-004
6.672604e+002,6.293934e-004
6.691890e+002,6.954838e-004
6.711174e+002,7.410645e-004
6.730460e+002,7.597283e-004
6.749745e+002,8.032098e-004
6.769030e+002,9.175912e-004
6.788314e+002,1.113243e-003
6.807599e+002,1.252623e-003
6.826885e+002,1.439381e-003
6.846169e+002,1.580091e-003
6.865454e+002,1.746122e-003
6.884739e+002,1.824500e-003
6.904025e+002,2.052607e-003
6.923309e+002,2.325688e-003
6.942594e+002,2.804443e-003
6.961879e+002,3.341289e-003
6.981165e+002,4.101463e-003
7.000449e+002,5.009187e-003
7.019734e+002,6.291782e-003
7.039019e+002,7.869801e-003
7.058304e+002,1.009146e-002
7.077589e+002,1.312226e-002
7.096874e+002,1.779453e-002
7.116159e+002,2.534077e-002
7.135444e+002,3.960184e-002
7.154729e+002,6.499071e-002
7.174014e+002,9.900454e-002
7.193299e+002,1.119988e-001
7.212584e+002,8.244120e-002
7.231869e+002,5.395759e-002
7.251154e+002,4.373138e-002
7.270439e+002,4.737490e-002
7.289724e+002,6.211524e-002
7.309009e+002,5.994250e-002
7.328294e+002,3.424497e-002
7.347579e+002,1.684651e-002
7.366864e+002,1.070915e-002
7.386149e+002,8.220445e-003
7.405434e+002,6.729499e-003
7.424719e+002,5.884381e-003
7.444004e+002,5.219011e-003
7.463289e+002,4.736176e-003
7.482574e+002,4.265362e-003
7.501859e+002,3.969163e-003
7.521144e+002,3.701394e-003
7.540428e+002,3.458699e-003
7.559714e+002,3.207354e-003
7.578999e+002,2.973171e-003
7.598284e+002,2.751203e-003
7.617568e+002,2.594657e-003
7.636854e+002,2.325859e-003
7.656139e+002,2.140636e-003
7.675424e+002,2.066668e-003
7.694709e+002,2.003724e-003
7.713994e+002,1.862058e-003
7.733279e+002,1.774225e-003
7.752563e+002,1.726836e-003
7.771849e+002,1.736961e-003
7.791134e+002,1.726169e-003
7.810419e+002,1.746353e-003
7.829703e+002,1.757791e-003
7.848989e+002,1.707295e-003
7.868274e+002,1.678294e-003
7.887559e+002,1.704067e-003
7.906843e+002,1.658816e-003
7.926129e+002,1.611868e-003
7.945414e+002,1.640191e-003
7.964698e+002,1.694042e-003
7.983983e+002,1.695365e-003
8.003268e+002,1.614936e-003
8.022554e+002,1.636192e-003
8.041838e+002,1.707533e-003
8.061123e+002,1.667708e-003
8.080408e+002,1.603728e-003
8.099694e+002,1.473708e-003
8.118978e+002,1.343157e-003
8.138263e+002,1.304172e-003
8.157548e+002,1.280671e-003
8.176833e+002,1.250910e-003
8.196118e+002,1.236815e-003
8.215403e+002,1.180451e-003
8.234689e+002,1.099784e-003
8.253973e+002,1.034498e-003
8.273258e+002,9.477735e-004
8.292543e+002,8.687358e-004
8.311829e+002,8.461494e-004
8.331113e+002,7.956307e-004
8.350398e+002,7.149428e-004
8.369683e+002,7.734299e-004
8.388969e+002,9.545535e-004
8.408253e+002,1.022439e-003
8.427538e+002,9.242930e-004
8.446823e+002,9.092279e-004
8.466108e+002,9.321216e-004
8.485393e+002,9.348299e-004
8.504678e+002,9.357166e-004
8.523963e+002,9.749848e-004
8.543248e+002,9.758808e-004
8.562533e+002,9.535924e-004
8.581818e+002,1.007425e-003
8.601103e+002,1.036519e-003
8.620388e+002,9.807274e-004
8.639673e+002,9.653922e-004
8.658958e+002,9.054039e-004
8.678243e+002,8.662734e-004
8.697528e+002,8.812323e-004
8.716813e+002,9.141713e-004
8.736098e+002,9.274930e-004
8.755383e+002,9.995848e-004
8.774668e+002,1.135610e-003
8.793953e+002,1.231717e-003
8.813238e+002,1.194326e-003
8.832523e+002,1.217289e-003
8.851808e+002,1.285315e-003
8.871093e+002,1.418071e-003
8.890378e+002,1.474794e-003
8.909663e+002,1.473894e-003
8.928948e+002,1.312705e-003
8.948232e+002,1.161546e-003
8.967518e+002,1.116415e-003
8.986803e+002,1.144351e-003
9.006088e+002,1.320751e-003
9.025372e+002,1.524193e-003
9.044658e+002,1.757974e-003
9.063943e+002,2.137087e-003
9.083228e+002,2.344836e-003
9.102512e+002,2.180308e-003
9.121797e+002,1.786621e-003
9.141083e+002,1.500770e-003
9.160367e+002,1.263466e-003
9.179653e+002,1.184009e-003
9.198937e+002,1.154369e-003
9.218223e+002,1.139918e-003
9.237507e+002,1.139734e-003
9.256793e+002,1.050914e-003
9.276077e+002,9.325109e-004
9.295363e+002,9.766109e-004
9.314647e+002,1.028964e-003
9.333932e+002,1.050632e-003
9.353217e+002,1.012936e-003
9.372502e+002,9.840894e-004
9.391787e+002,9.408072e-004
9.411072e+002,9.820480e-004
9.430358e+002,1.002364e-003
9.449642e+002,9.908304e-004
9.468928e+002,1.000315e-003
9.488212e+002,1.052668e-003
9.507498e+002,1.066670e-003
9.526782e+002,1.120429e-003
9.546068e+002,1.134474e-003
9.565352e+002,1.185764e-003
9.584637e+002,1.233192e-003
9.603922e+002,1.360532e-003
9.623207e+002,1.489062e-003
9.642492e+002,1.529662e-003
9.661777e+002,1.519533e-003
9.681062e+002,1.572490e-003
9.700347e+002,1.615081e-003
9.719632e+002,1.637505e-003
9.738917e+002,1.624515e-003
9.758202e+002,1.658557e-003
9.777487e+002,1.669107e-003
9.796772e+002,1.726611e-003
9.816057e+002,1.754967e-003
9.835342e+002,1.839949e-003
9.854627e+002,1.968926e-003
9.873912e+002,2.157891e-003
9.893197e+002,2.339536e-003
9.912482e+002,2.481731e-003
9.931767e+002,2.479170e-003
9.951052e+002,2.510948e-003
9.970337e+002,2.545597e-003
9.989622e+002,2.612678e-003
1.000891e+003,2.684044e-003
1.002819e+003,2.808211e-003
1.004748e+003,2.917664e-003
1.006676e+003,3.076144e-003
1.008605e+003,3.278967e-003
1.010533e+003,3.504030e-003
1.012462e+003,3.739286e-003
1.014390e+003,4.039038e-003
1.016319e+003,4.271399e-003
1.018247e+003,4.418682e-003
1.020176e+003,4.418015e-003
1.022104e+003,4.400209e-003
1.024033e+003,4.299317e-003
1.025961e+003,4.221007e-003
1.027890e+003,4.215579e-003
1.029818e+003,4.256804e-003
1.031747e+003,4.255105e-003
1.033675e+003,4.324868e-003
1.035604e+003,4.350528e-003
1.037532e+003,4.382644e-003
1.039461e+003,4.413500e-003
1.041389e+003,4.537668e-003
1.043318e+003,4.621249e-003
1.045246e+003,4.671477e-003
1.047175e+003,4.720200e-003
1.049103e+003,4.827075e-003
1.051032e+003,4.803289e-003
1.052960e+003,4.714124e-003
1.054889e+003,4.666422e-003
1.056817e+003,4.639603e-003
1.058746e+003,4.634980e-003
1.060674e+003,4.791956e-003
1.062603e+003,4.860032e-003
1.064531e+003,4.838429e-003
1.066460e+003,4.795834e-003
1.068388e+003,4.835736e-003
1.070317e+003,4.903391e-003
1.072245e+003,5.057860e-003
1.074174e+003,5.215202e-003
1.076102e+003,5.359545e-003
1.078031e+003,5.439173e-003
1.079959e+003,5.495582e-003
1.081888e+003,5.402356e-003
1.083816e+003,5.346928e-003
1.085745e+003,5.325295e-003
1.087673e+003,5.323183e-003
1.089602e+003,5.247004e-003
1.091530e+003,5.112395e-003
1.093459e+003,4.964866e-003
1.095387e+003,4.942995e-003
1.097316e+003,4.903335e-003
1.099244e+003,4.865441e-003
1.101173e+003,4.774496e-003
1.103101e+003,4.738655e-003
1.105030e+003,4.653461e-003
1.106958e+003,4.611664e-003
1.108887e+003,4.500013e-003
1.110815e+003,4.371308e-003
1.112744e+003,4.248112e-003
1.114672e+003,4.212335e-003
1.116601e+003,4.121393e-003
1.118529e+003,4.083768e-003
1.120458e+003,4.017808e-003
1.122386e+003,3.958687e-003
1.124315e+003,3.912818e-003
1.126243e+003,3.919065e-003
1.128172e+003,3.908809e-003
1.130100e+003,3.956988e-003
1.132029e+003,3.928892e-003
1.133957e+003,3.935169e-003
1.135885e+003,3.923077e-003
1.137814e+003,3.936060e-003
1.139743e+003,3.910791e-003
1.141671e+003,3.973078e-003
1.143600e+003,4.051935e-003
1.145528e+003,4.231054e-003
1.147457e+003,4.483495e-003
1.149385e+003,4.777770e-003
1.151314e+003,5.019225e-003
1.153242e+003,5.269475e-003
1.155171e+003,5.428966e-003
1.157099e+003,5.577810e-003
1.159028e+003,5.612392e-003
1.160956e+003,5.646084e-003
1.162885e+003,5.621716e-003
1.164813e+003,5.579330e-003
1.166742e+003,5.431335e-003
1.168670e+003,5.252883e-003
1.170599e+003,5.000073e-003
1.172527e+003,4.811220e-003
1.174456e+003,4.647870e-003
1.176384e+003,4.590210e-003
1.178313e+003,4.393414e-003
1.180241e+003,4.197311e-003
1.182170e+003,4.081808e-003
1.184098e+003,4.078604e-003
1.186027e+003,4.064649e-003
1.187955e+003,4.117448e-003
1.189884e+003,4.148241e-003
1.191812e+003,4.235793e-003
1.193740e+003,4.309319e-003
1.195669e+003,4.436076e-003
1.197598e+003,4.547663e-003
1.199526e+003,4.714601e-003
1.201455e+003,4.866667e-003
1.203383e+003,5.087469e-003
1.205312e+003,5.258411e-003
1.207240e+003,5.442023e-003
1.209168e+003,5.591478e-003
1.211097e+003,5.815111e-003
1.213026e+003,5.962577e-003
1.214954e+003,6.149620e-003
1.216883e+003,6.301437e-003
1.218811e+003,6.487828e-003
1.220740e+003,6.639596e-003
1.222668e+003,6.823573e-003
1.224596e+003,6.952167e-003
1.226525e+003,7.093519e-003
1.228453e+003,7.170826e-003
1.230382e+003,7.306997e-003
1.232311e+003,7.382251e-003
1.234239e+003,7.509153e-003
1.236167e+003,7.571071e-003
1.238096e+003,7.627167e-003
1.240025e+003,7.599004e-003
1.241953e+003,7.559892e-003
1.243882e+003,7.495318e-003
1.245810e+003,7.472079e-003
1.247739e+003,7.350467e-003
1.249667e+003,7.264435e-003
1.251595e+003,7.166687e-003
1.253524e+003,7.151369e-003
1.255453e+003,7.126726e-003
1.257381e+003,7.124923e-003
1.259310e+003,7.075172e-003
1.261238e+003,7.040389e-003
1.263167e+003,6.876074e-003
1.265095e+003,6.701879e-003
1.267023e+003,6.467264e-003
1.268952e+003,6.372783e-003
1.270880e+003,6.282739e-003
1.272809e+003,6.283347e-003
1.274738e+003,6.281968e-003
1.276666e+003,6.340042e-003
1.278594e+003,6.334636e-003
1.280523e+003,6.429955e-003
1.282451e+003,6.502323e-003
1.284380e+003,6.692700e-003
1.286308e+003,6.872330e-003
1.288237e+003,7.138636e-003
1.290166e+003,7.370736e-003
1.292094e+003,7.748555e-003
1.294022e+003,8.131899e-003
1.295951e+003,8.571707e-003
1.297879e+003,8.890085e-003
1.299808e+003,9.140089e-003
1.301736e+003,9.229183e-003
1.303665e+003,9.315837e-003
1.305594e+003,9.256192e-003
1.307522e+003,9.150099e-003
1.309450e+003,8.854408e-003
1.311379e+003,8.574497e-003
1.313307e+003,8.130528e-003
1.315236e+003,7.731471e-003
1.317164e+003,7.292923e-003
1.319093e+003,6.896220e-003
1.321021e+003,6.418262e-003
1.322950e+003,6.155703e-003
1.324878e+003,5.930450e-003
1.326807e+003,5.809713e-003
1.328735e+003,5.741756e-003
1.330664e+003,5.863048e-003
1.332592e+003,6.022103e-003
1.334521e+003,6.441575e-003
1.336449e+003,6.989248e-003
1.338378e+003,7.792823e-003
1.340306e+003,8.456670e-003
1.342235e+003,8.848887e-003
1.344163e+003,9.224743e-003
1.346092e+003,9.856831e-003
1.348021e+003,1.049829e-002
1.349949e+003,1.122033e-002
1.351877e+003,1.152111e-002
1.353806e+003,1.159056e-002
1.355734e+003,1.143144e-002
1.357663e+003,1.148008e-002
1.359591e+003,1.178429e-002
1.361520e+003,1.261528e-002
1.363448e+003,1.369955e-002
1.365377e+003,1.470926e-002
1.367305e+003,1.545139e-002
1.369234e+003,1.553080e-002
1.371162e+003,1.458475e-002
1.373091e+003,1.373866e-002
1.375019e+003,1.362061e-002
1.376948e+003,1.365209e-002
1.378876e+003,1.189553e-002
1.380805e+003,9.108823e-003
1.382733e+003,6.965116e-003
1.384662e+003,6.077409e-003
1.386590e+003,5.662326e-003
1.388519e+003,5.503554e-003
1.390447e+003,5.142845e-003
1.392376e+003,5.094130e-003
1.394304e+003,5.070843e-003
1.396233e+003,5.286634e-003
1.398161e+003,5.217291e-003
1.400090e+003,5.315460e-003
1.402018e+003,5.133707e-003
1.403947e+003,5.356468e-003
1.405875e+003,5.411007e-003
1.407804e+003,5.577967e-003
1.409732e+003,5.653925e-003
1.411661e+003,6.002985e-003
1.413589e+003,6.077949e-003
1.415518e+003,6.469291e-003
1.417446e+003,6.740090e-003
1.419375e+003,7.653229e-003
1.421303e+003,7.992476e-003
1.423232e+003,8.975904e-003
1.425160e+003,1.027466e-002
1.427089e+003,1.212020e-002
1.429017e+003,1.451164e-002
1.430946e+003,1.800495e-002
1.432874e+003,2.069782e-002
1.434803e+003,2.333029e-002
1.436731e+003,2.624689e-002
1.438660e+003,2.881216e-002
1.440588e+003,3.008932e-002
1.442517e+003,3.192232e-002
1.444445e+003,3.334692e-002
1.446374e+003,3.577065e-002
1.448302e+003,3.920935e-002
1.450231e+003,4.427566e-002
1.452159e+003,5.178150e-002
1.454088e+003,6.175808e-002
1.456016e+003,7.215712e-002
1.457945e+003,9.798370e-002
1.459873e+003,1.434741e-001
1.461802e+003,1.872044e-001
1.463730e+003,1.839909e-001
1.465659e+003,1.410028e-001
1.467587e+003,1.285750e-001
1.469516e+003,1.267406e-001
1.471444e+003,1.440014e-001
1.473373e+003,1.271041e-001
1.475301e+003,6.837988e-002
1.477230e+003,2.982943e-002
1.479158e+003,1.873302e-002
1.481087e+003,1.363948e-002
1.483015e+003,1.128293e-002
1.484944e+003,9.286482e-003
1.486872e+003,8.843739e-003
1.488801e+003,7.896949e-003
1.490729e+003,7.807143e-003
1.492658e+003,6.542839e-003
1.494586e+003,6.381851e-003
1.496515e+003,5.770922e-003
1.498443e+003,6.007820e-003
1.500372e+003,5.403813e-003
1.502300e+003,5.315010e-003
1.504229e+003,4.711356e-003
1.506157e+003,5.417161e-003
1.508086e+003,5.469553e-003
1.510014e+003,5.417962e-003
1.511943e+003,4.729029e-003
1.513871e+003,4.792020e-003
1.515800e+003,4.658956e-003
1.517728e+003,4.957974e-003
1.519657e+003,4.630797e-003
1.521585e+003,5.170837e-003
1.523514e+003,4.651971e-003
1.525442e+003,4.848629e-003
1.527371e+003,4.593220e-003
1.529299e+003,4.586671e-003
1.531228e+003,4.378088e-003
1.533156e+003,4.840877e-003
1.535085e+003,4.673082e-003
1.537013e+003,4.725058e-003
1.538942e+003,4.748821e-003
1.540870e+003,5.882334e-003
1.542799e+003,5.320743e-003
1.544727e+003,5.171567e-003
1.546656e+003,4.477199e-003
1.548584e+003,4.478537e-003
1.550513e+003,4.354239e-003
1.552441e+003,4.249413e-003
1.554370e+003,3.968529e-003
1.556298e+003,4.048262e-003
1.558227e+003,4.200410e-003
1.560155e+003,4.489847e-003
1.562084e+003,3.674202e-003
1.564012e+003,3.499933e-003
1.565941e+003,3.272358e-003
1.567869e+003,3.439061e-003
1.569798e+003,3.548030e-003
1.571726e+003,3.437892e-003
1.573655e+003,3.193807e-003
1.575583e+003,3.500663e-003
1.577512e+003,3.535308e-003
1.579440e+003,3.357783e-003
1.581369e+003,3.095403e-003
1.583297e+003,3.061593e-003
1.585226e+003,2.944514e-003
1.587154e+003,3.021300e-003
1.589083e+003,2.963457e-003
1.591011e+003,3.022756e-003
1.592940e+003,2.953853e-003
1.594868e+003,3.048647e-003
1.596797e+003,2.945587e-003
1.598725e+003,2.945852e-003
1.600654e+003,2.881143e-003
1.602582e+003,2.987813e-003
1.604511e+003,2.916154e-003
1.606439e+003,3.033932e-003
1.608368e+003,3.044382e-003
1.610296e+003,3.088344e-003
1.612225e+003,3.025305e-003
1.614153e+003,3.177557e-003
1.616082e+003,3.475979e-003
1.618010e+003,3.839184e-003
1.619939e+003,3.637079e-003
1.621867e+003,3.723685e-003
1.623796e+003,3.847379e-003
1.625724e+003,4.070166e-003
1.627653e+003,4.273172e-003
1.629581e+003,4.387937e-003
1.631510e+003,4.253600e-003
1.633438e+003,4.353575e-003
1.635367e+003,4.892353e-003
1.637295e+003,5.515467e-003
1.639224e+003,5.288456e-003
1.641152e+003,5.162004e-003
1.643081e+003,5.030181e-003
1.645009e+003,5.334578e-003
1.646938e+003,5.911201e-003
1.648866e+003,5.687151e-003
1.650795e+003,5.280457e-003
1.652723e+003,5.981658e-003
1.654652e+003,6.035812e-003
1.656580e+003,5.598105e-003
1.658509e+003,5.195301e-003
1.660437e+003,5.131457e-003
1.662366e+003,5.133975e-003
1.664294e+003,5.009767e-003
1.666223e+003,4.669517e-003
1.668151e+003,4.667595e-003
1.670080e+003,4.575547e-003
1.672008e+003,4.289042e-003
1.673937e+003,3.962029e-003
1.675865e+003,3.972366e-003
1.677794e+003,3.655143e-003
1.679722e+003,3.544196e-003
1.681651e+003,3.385600e-003
1.683579e+003,3.680483e-003
1.685508e+003,3.375109e-003
1.687436e+003,3.057338e-003
1.689365e+003,2.678152e-003
1.691293e+003,2.404694e-003
1.693222e+003,2.088800e-003
1.695150e+003,2.155159e-003
1.697079e+003,2.156358e-003
1.699007e+003,2.154421e-003
1.700936e+003,2.030469e-003
1.702864e+003,1.848508e-003
1.704793e+003,1.674164e-003
1.706721e+003,1.678232e-003
1.708650e+003,1.488246e-003
1.710578e+003,1.507819e-003
1.712507e+003,1.414634e-003
1.714435e+003,1.639955e-003
1.716364e+003,1.796804e-003
1.718292e+003,1.976520e-003
1.720221e+003,1.656402e-003
1.722149e+003,1.530319e-003
1.724078e+003,1.433808e-003
1.726006e+003,1.433913e-003
1.727935e+003,1.369596e-003
1.729863e+003,1.551498e-003
1.731792e+003,1.654718e-003
1.733720e+003,2.190460e-003
1.735649e+003,1.919184e-003
1.737577e+003,1.661610e-003
1.739506e+003,1.564980e-003
1.741434e+003,1.633845e-003
1.743363e+003,1.529817e-003
1.745291e+003,1.387402e-003
1.747220e+003,1.186546e-003
1.749148e+003,1.201794e-003
1.751077e+003,9.778515e-004
1.753005e+003,6.752312e-004
1.754934e+003,3.882349e-004
1.756862e+003,3.924072e-004
1.758791e+003,1.485050e-004
1.760719e+003,2.277009e-004
1.762648e+003,2.913103e-004
1.764576e+003,1.164339e-004
1.766505e+003,-2.907589e-005
1.768433e+003,9.601936e-005
1.770362e+003,1.100376e-004
1.772290e+003,4.767701e-004
1.774219e+003,2.007857e-004
1.776147e+003,-9.064376e-005
1.778076e+003,-3.148168e-004
1.780004e+003,-1.899414e-004
1.781933e+003,-2.447329e-004
1.783861e+003,-1.660958e-004
1.785790e+003,-2.646707e-004
1.787718e+003,-3.496222e-004
1.789646e+003,-4.365928e-004
1.791575e+003,-5.611032e-005
1.793504e+003,-7.867813e-006
1.795432e+003,-8.072704e-005
1.797361e+003,-2.606846e-004
1.799289e+003,-1.475848e-004
1.801218e+003,-5.274639e-005
1.803146e+003,-8.836761e-005
1.805074e+003,-3.372207e-004
1.807003e+003,-3.679022e-004
1.808932e+003,-4.337057e-004
1.810860e+003,-3.799014e-004
1.812789e+003,-6.599724e-004
1.814717e+003,-9.371117e-004
1.816646e+003,-1.116298e-003
1.818574e+003,-7.911697e-004
1.820502e+003,-7.144883e-004
1.822431e+003,-6.890409e-004
1.824360e+003,-8.279607e-004
1.826288e+003,-8.027926e-004
1.828217e+003,-7.275641e-004
1.830145e+003,-4.391745e-004
1.832073e+003,-8.449517e-004
1.834002e+003,-1.046736e-003
1.835931e+003,-1.138698e-003
1.837859e+003,-9.849481e-004
1.839788e+003,-1.190346e-003
1.841716e+003,-1.146067e-003
1.843645e+003,-1.100078e-003
1.845573e+003,-9.175539e-004
1.847501e+003,-1.095936e-003
1.849430e+003,-9.830631e-004
1.851359e+003,-1.208093e-003
1.853287e+003,-1.270473e-003
1.855216e+003,-1.351174e-003
1.857144e+003,-1.200836e-003
1.859073e+003,-1.274846e-003
1.861001e+003,-1.230199e-003
1.862929e+003,-1.413602e-003
1.864858e+003,-1.308277e-003
1.866787e+003,-1.312617e-003
1.868715e+003,-9.749718e-004
1.870644e+003,-1.034163e-003
1.872572e+003,-1.107365e-003
1.874500e+003,-1.294348e-003
1.876429e+003,-1.204025e-003
1.878357e+003,-1.372557e-003
1.880286e+003,-1.351926e-003
1.882215e+003,-1.372535e-003
1.884143e+003,-1.243297e-003
1.886072e+003,-1.519788e-003
1.888000e+003,-1.305480e-003
1.889928e+003,-9.720922e-004
1.891857e+003,-5.358271e-004
1.893785e+003,-4.315451e-004
1.895714e+003,-2.276637e-004
1.897643e+003,-5.496554e-004
1.899571e+003,-5.067736e-004
1.901500e+003,-5.013496e-004
1.903428e+003,-4.959293e-004
1.905356e+003,-4.905201e-004
1.907285e+003,-4.851334e-004
1.909213e+003,-4.797466e-004
1.911142e+003,-4.743747e-004
1.913071e+003,-4.690140e-004
1.914999e+003,-4.636645e-004
1.916927e+003,-4.583225e-004
1.918856e+003,-4.529990e-004
1.920784e+003,-4.476868e-004
1.922713e+003,-4.423819e-004
1.924641e+003,-4.370920e-004
1.926570e+003,-4.318096e-004
1.928499e+003,-4.265420e-004
1.930427e+003,-4.212856e-004
1.932355e+003,-4.160404e-004
1.934284e+003,-4.108027e-004
1.936212e+003,-4.055798e-004
1.938141e+003,-4.003718e-004
1.940070e+003,-3.951676e-004
1.941998e+003,-3.899820e-004
1.943927e+003,-3.848076e-004
1.945855e+003,-3.796406e-004
1.947783e+003,-3.744848e-004
1.949712e+003,-3.693402e-004
1.951640e+003,-3.642105e-004
1.953569e+003,-3.590882e-004
1.955498e+003,-3.539845e-004
1.957426e+003,-3.488921e-004
1.959354e+003,-3.437996e-004
1.961283e+003,-3.387295e-004
1.963211e+003,-3.336594e-004
1.965140e+003,-3.286116e-004
1.967068e+003,-3.235750e-004
1.968997e+003,-3.185496e-004
1.970926e+003,-3.135316e-004
1.972854e+003,-3.085248e-004
1.974782e+003,-3.035329e-004
1.976711e+003,-2.985522e-004
1.978639e+003,-2.935790e-004
1.980568e+003,-2.886206e-004
1.982496e+003,-2.836697e-004
1.984425e+003,-2.787374e-004
1.986354e+003,-2.738088e-004
1.988282e+003,-2.688989e-004
1.990210e+003,-2.639964e-004
1.992139e+003,-2.591051e-004
1.994067e+003,-2.542287e-004
1.995996e+003,-2.493598e-004
1.997924e+003,-2.445020e-004
1.999853e+003,-2.396554e-004
2.001781e+003,-2.348199e-004
2.003710e+003,-2.300031e-004
2.005638e+003,-2.251938e-004
2.007567e+003,-2.203919e-004
2.009495e+003,-2.156049e-004
2.011424e+003,-2.108291e-004
2.013352e+003,-2.060607e-004
2.015281e+003,-2.013110e-004
2.017209e+003,-1.965761e-004
2.019138e+003,-1.918413e-004
2.021066e+003,-1.871213e-004
2.022995e+003,-1.824126e-004
2.024923e+003,-1.777224e-004
2.026852e+003,-1.730360e-004
2.028781e+003,-1.683608e-004
2.030709e+003,-1.637042e-004
2.032637e+003,-1.590513e-004
2.034566e+003,-1.544096e-004
2.036494e+003,-1.497865e-004
2.038423e+003,-1.451708e-004
2.040351e+003,-1.405664e-004
2.042280e+003,-1.359694e-004
2.044208e+003,-1.313910e-004
2.046137e+003,-1.268238e-004
2.048065e+003,-1.222640e-004
2.049994e+003,-1.177192e-004
2.051922e+003,-1.131855e-004
2.053851e+003,-1.086555e-004
2.055779e+003,-1.041442e-004
2.057708e+003,-9.964779e-005
2.059636e+003,-9.515509e-005
2.061565e+003,-9.068102e-005
2.063493e+003,-8.621439e-005
2.065422e+003,-8.175895e-005
2.067350e+003,-7.732213e-005
2.069279e+003,-7.288158e-005
2.071207e+003,-6.846339e-005
2.073136e+003,-6.405264e-005
2.075064e+003,-5.965307e-005
2.076993e+003,-5.526841e-005
2.078921e+003,-5.089492e-005
2.080850e+003,-4.653260e-005
2.082778e+003,-4.218146e-005
2.084707e+003,-3.784150e-005
2.086635e+003,-3.350526e-005
2.088564e+003,-2.919137e-005
2.090492e+003,-2.488121e-005
2.092421e+003,-2.059340e-005
2.094349e+003,-1.630932e-005
2.096278e+003,-1.204014e-005
2.098206e+003,-7.770956e-006
2.100135e+003,-3.524125e-006
2.102063e+003,7.115304e-007
2.103992e+003,4.932284e-006
2.105920e+003,9.153038e-006
2.107849e+003,1.334772e-005
2.109777e+003,1.754239e-005
2.111706e+003,2.171844e-005
2.113634e+003,2.589449e-005
2.115563e+003,3.005192e-005
2.117491e+003,3.419071e-005
2.119420e+003,3.832951e-005
2.121348e+003,4.244968e-005
2.123277e+003,4.656240e-005
2.125205e+003,5.065650e-005
2.127134e+003,5.475059e-005
2.129062e+003,5.882978e-005
2.130991e+003,6.289408e-005
2.132919e+003,6.694719e-005
2.134848e+003,7.098913e-005
2.136776e+003,7.501990e-005
2.138705e+003,7.903576e-005
2.140633e+003,8.304417e-005
2.142562e+003,8.704886e-005
2.144490e+003,9.102747e-005
2.146419e+003,9.500235e-005
2.148347e+003,9.896606e-005
2.150276e+003,1.029149e-004
2.152204e+003,1.068562e-004
2.154133e+003,1.107827e-004
2.156061e+003,1.147054e-004
2.157990e+003,1.186095e-004
2.159918e+003,1.224950e-004
2.161847e+003,1.263805e-004
2.163775e+003,1.302510e-004
2.165704e+003,1.341067e-004
2.167632e+003,1.379512e-004
2.169561e+003,1.417920e-004
2.171489e+003,1.456104e-004
2.173418e+003,1.494363e-004
2.175346e+003,1.532324e-004
2.177275e+003,1.570210e-004
2.179203e+003,1.608022e-004
2.181132e+003,1.645684e-004
2.183060e+003,1.683235e-004
2.184989e+003,1.720674e-004
2.186917e+003,1.758076e-004
2.188846e+003,1.795292e-004
2.190774e+003,1.832321e-004
2.192703e+003,1.869276e-004
2.194631e+003,1.906157e-004
2.196560e+003,1.942962e-004
2.198488e+003,1.979582e-004
2.200417e+003,2.016164e-004
2.202345e+003,2.052560e-004
2.204274e+003,2.088882e-004
2.206202e+003,2.125055e-004
2.208131e+003,2.161041e-004
2.210059e+003,2.197027e-004
2.211988e+003,2.232827e-004
2.213916e+003,2.268516e-004
2.215845e+003,2.304167e-004
2.217773e+003,2.339669e-004
2.219702e+003,2.375096e-004
2.221630e+003,2.410337e-004
2.223559e+003,2.445541e-004
2.225487e+003,2.480485e-004
2.227416e+003,2.515465e-004
2.229344e+003,2.550259e-004
2.231273e+003,2.585016e-004
2.233201e+003,2.619587e-004
2.235130e+003,2.654046e-004
2.237058e+003,2.688356e-004
2.238987e+003,2.722591e-004
2.240915e+003,2.756678e-004
2.242844e+003,2.790652e-004
2.244772e+003,2.824590e-004
2.246701e+003,2.858415e-004
2.248629e+003,2.892092e-004
2.250558e+003,2.925619e-004
2.252486e+003,2.959035e-004
2.254415e+003,2.992339e-004
2.256343e+003,3.025569e-004
2.258272e+003,3.058575e-004
2.260200e+003,3.091618e-004
2.262129e+003,3.124475e-004
2.264057e+003,3.157295e-004
2.265986e+003,3.189854e-004
2.267914e+003,3.222302e-004
2.269843e+003,3.254749e-004
2.271771e+003,3.287047e-004
2.273700e+003,3.319234e-004
2.275628e+003,3.351308e-004
2.277557e+003,3.383234e-004
2.279485e+003,3.415085e-004
2.281414e+003,3.446788e-004
2.283342e+003,3.478341e-004
2.285271e+003,3.509820e-004
2.287199e+003,3.541224e-004
2.289128e+003,3.572516e-004
2.291056e+003,3.603660e-004
2.292985e+003,3.634654e-004
2.294913e+003,3.665574e-004
2.296842e+003,3.696382e-004
2.298770e+003,3.727041e-004
2.300699e+003,3.757626e-004
2.302627e+003,3.788136e-004
2.304556e+003,3.818423e-004
2.306484e+003,3.848672e-004
2.308413e+003,3.878735e-004
2.310341e+003,3.908761e-004
2.312270e+003,3.938638e-004
2.314198e+003,3.968328e-004
2.316127e+003,3.997982e-004
2.318055e+003,4.027486e-004
2.319984e+003,4.056990e-004
2.321912e+003,4.086308e-004
2.323841e+003,4.115514e-004
2.325769e+003,4.144572e-004
2.327698e+003,4.173554e-004
2.329626e+003,4.202388e-004
2.331555e+003,4.231036e-004
2.333483e+003,4.259758e-004
2.335412e+003,4.288219e-004
2.337340e+003,4.316643e-004
2.339269e+003,4.344918e-004
2.341197e+003,4.373081e-004
2.343126e+003,4.401095e-004
2.345054e+003,4.428998e-004
2.346983e+003,4.456863e-004
2.348911e+003,4.484579e-004
2.350840e+003,4.512109e-004
2.352768e+003,4.539639e-004
2.354697e+003,4.567020e-004
2.356625e+003,4.594252e-004
2.358554e+003,4.621297e-004
2.360482e+003,4.648343e-004
2.362411e+003,4.675165e-004
2.364339e+003,4.702136e-004
2.366268e+003,4.728734e-004
2.368196e+003,4.755184e-004
2.370125e+003,4.781708e-004
2.372053e+003,4.808083e-004
2.373982e+003,4.834235e-004
2.375910e+003,4.860312e-004
2.377839e+003,4.886314e-004
2.379767e+003,4.912168e-004
2.381696e+003,4.937947e-004
2.383624e+003,4.963577e-004
2.385553e+003,4.989132e-004
2.387481e+003,5.014539e-004
2.389410e+003,5.039796e-004
2.391338e+003,5.064979e-004
2.393267e+003,5.090162e-004
2.395195e+003,5.115047e-004
2.397124e+003,5.139858e-004
2.399052e+003,5.164593e-004
2.400981e+003,6.124228e-004
2.402909e+003,5.736426e-004
2.404838e+003,6.001294e-004
2.406766e+003,7.061362e-004
2.408695e+003,9.873286e-004
2.410623e+003,1.110338e-003
2.412552e+003,1.092501e-003
2.414480e+003,9.684786e-004
2.416409e+003,1.094133e-003
2.418337e+003,1.114421e-003
2.420266e+003,1.070067e-003
2.422194e+003,1.040906e-003
2.424123e+003,1.164012e-003
2.426051e+003,1.140930e-003
2.427979e+003,1.130335e-003
2.429908e+003,1.153529e-003
2.431837e+003,1.146831e-003
2.433765e+003,1.115337e-003
2.435694e+003,1.084104e-003
2.437622e+003,1.090564e-003
2.439551e+003,1.144499e-003
2.441479e+003,9.058267e-004
2.443407e+003,9.756312e-004
2.445336e+003,1.185983e-003
2.447265e+003,1.154371e-003
2.449193e+003,1.148172e-003
2.451122e+003,1.410700e-003
2.453050e+003,1.514770e-003
2.454979e+003,1.504563e-003
2.456907e+003,1.428835e-003
2.458836e+003,1.404315e-003
2.460764e+003,1.341216e-003
2.462693e+003,1.324311e-003
2.464621e+003,1.396395e-003
2.466550e+003,1.383670e-003
2.468478e+003,1.374565e-003
2.470406e+003,1.516119e-003
2.472335e+003,1.571894e-003
2.474264e+003,1.699768e-003
2.476192e+003,1.796834e-003
2.478121e+003,1.757741e-003
2.480049e+003,1.619883e-003
2.481978e+003,1.751311e-003
2.483906e+003,1.923911e-003
2.485835e+003,1.951426e-003
2.487763e+003,1.865275e-003
2.489692e+003,1.847349e-003
2.491620e+003,1.900084e-003
2.493549e+003,2.018176e-003
2.495477e+003,2.011396e-003
2.497406e+003,1.891263e-003
2.499334e+003,1.915038e-003
2.501263e+003,2.117015e-003
2.503191e+003,2.163447e-003
2.505120e+003,2.185702e-003
2.507048e+003,2.125181e-003
2.508977e+003,2.167620e-003
2.510905e+003,2.320319e-003
2.512833e+003,2.376474e-003
2.514762e+003,2.461545e-003
2.516691e+003,2.665482e-003
2.518619e+003,2.724059e-003
2.520548e+003,2.835609e-003
2.522476e+003,3.010936e-003
2.524405e+003,3.257737e-003
2.526333e+003,3.385343e-003
2.528261e+003,3.331676e-003
2.530190e+003,3.201380e-003
2.532119e+003,3.190070e-003
2.534047e+003,3.164403e-003
2.535976e+003,3.185630e-003
2.537904e+003,3.264464e-003
2.539833e+003,3.312536e-003
2.541761e+003,3.335610e-003
2.543689e+003,3.462456e-003
2.545618e+003,3.666528e-003
2.547547e+003,3.930643e-003
2.549475e+003,4.044570e-003
2.551404e+003,4.062206e-003
2.553332e+003,4.072197e-003
2.555260e+003,4.091501e-003
2.557189e+003,4.260398e-003
2.559117e+003,4.471675e-003
2.561046e+003,4.446618e-003
2.562975e+003,4.473768e-003
2.564903e+003,4.550666e-003
2.566832e+003,4.731543e-003
2.568760e+003,4.836738e-003
2.570688e+003,5.056642e-003
2.572617e+003,5.296476e-003
2.574546e+003,5.410835e-003
2.576474e+003,5.560212e-003
2.578403e+003,5.776286e-003
2.580331e+003,5.973630e-003
2.582260e+003,6.264128e-003
2.584188e+003,6.469518e-003
2.586116e+003,6.596223e-003
2.588045e+003,6.699175e-003
2.589974e+003,6.957360e-003
2.591902e+003,7.359087e-003
2.593831e+003,7.581465e-003
2.595759e+003,7.673062e-003
2.597688e+003,7.825077e-003
2.599616e+003,7.931747e-003
2.601544e+003,8.192293e-003
2.603473e+003,8.481652e-003
2.605402e+003,8.773908e-003
2.607330e+003,9.033956e-003
2.609259e+003,9.297676e-003
2.611187e+003,9.609446e-003
2.613115e+003,9.885781e-003
2.615044e+003,1.005214e-002
2.616972e+003,1.041927e-002
2.618901e+003,1.076918e-002
2.620830e+003,1.112705e-002
2.622758e+003,1.154687e-002
2.624687e+003,1.195164e-002
2.626615e+003,1.241937e-002
2.628543e+003,1.288325e-002
2.630472e+003,1.324859e-002
2.632400e+003,1.357899e-002
2.634329e+003,1.378076e-002
2.636258e+003,1.385835e-002
2.638186e+003,1.390261e-002
2.640115e+003,1.392640e-002
2.642043e+003,1.393767e-002
2.643971e+003,1.393498e-002
2.645900e+003,1.396398e-002
2.647828e+003,1.403873e-002
2.649757e+003,1.418340e-002
2.651686e+003,1.431201e-002
2.653614e+003,1.449327e-002
2.655542e+003,1.469281e-002
2.657471e+003,1.474050e-002
2.659399e+003,1.473584e-002
2.661328e+003,1.469421e-002
2.663256e+003,1.452961e-002
2.665185e+003,1.432303e-002
2.667114e+003,1.416623e-002
2.669042e+003,1.397321e-002
2.670970e+003,1.382944e-002
2.672899e+003,1.372771e-002
2.674827e+003,1.357832e-002
2.676756e+003,1.340780e-002
2.678685e+003,1.327651e-002
2.680613e+003,1.315867e-002
2.682542e+003,1.306236e-002
2.684470e+003,1.291482e-002
2.686398e+003,1.278658e-002
2.688327e+003,1.268346e-002
2.690255e+003,1.260231e-002
2.692184e+003,1.248240e-002
2.694113e+003,1.237526e-002
2.696041e+003,1.241057e-002
2.697969e+003,1.249037e-002
2.699898e+003,1.254268e-002
2.701826e+003,1.268293e-002
2.703755e+003,1.291540e-002
2.705683e+003,1.315938e-002
2.707612e+003,1.333611e-002
2.709541e+003,1.340277e-002
2.711469e+003,1.350760e-002
2.713397e+003,1.370003e-002
2.715326e+003,1.388627e-002
2.717254e+003,1.407818e-002
2.719183e+003,1.427758e-002
2.721111e+003,1.447522e-002
2.723040e+003,1.477122e-002
2.724969e+003,1.509520e-002
2.726897e+003,1.535742e-002
2.728825e+003,1.566125e-002
2.730754e+003,1.591191e-002
2.732682e+003,1.615309e-002
2.734611e+003,1.638193e-002
2.736539e+003,1.658277e-002
2.738468e+003,1.677264e-002
2.740396e+003,1.688147e-002
2.742325e+003,1.689798e-002
2.744253e+003,1.689547e-002
2.746182e+003,1.689392e-002
2.748110e+003,1.692212e-002
2.750039e+003,1.700597e-002
2.751967e+003,1.718351e-002
2.753896e+003,1.739281e-002
2.755824e+003,1.774151e-002
2.757753e+003,1.810933e-002
2.759681e+003,1.847636e-002
2.761610e+003,1.893862e-002
2.763538e+003,1.941743e-002
2.765467e+003,1.988646e-002
2.767395e+003,2.031184e-002
2.769324e+003,2.084739e-002
2.771252e+003,2.149585e-002
2.773181e+003,2.220836e-002
2.775109e+003,2.305084e-002
2.777038e+003,2.393980e-002
2.778966e+003,2.492508e-002
2.780895e+003,2.600494e-002
2.782823e+003,2.716324e-002
2.784752e+003,2.845475e-002
2.786680e+003,2.981178e-002
2.788609e+003,3.126758e-002
2.790537e+003,3.284773e-002
2.792466e+003,3.454670e-002
2.794394e+003,3.627965e-002
2.796323e+003,3.806823e-002
2.798251e+003,3.993123e-002
2.800180e+003,4.197181e-002
2.802108e+003,4.403889e-002
2.804037e+003,4.622278e-002
2.805965e+003,4.868366e-002
2.807894e+003,5.143405e-002
2.809822e+003,5.448837e-002
2.811751e+003,5.789665e-002
2.813679e+003,6.173582e-002
2.815608e+003,6.616454e-002
2.817536e+003,7.126954e-002
2.819465e+003,7.733828e-002
2.821393e+003,8.451062e-002
2.823322e+003,9.321778e-002
2.825250e+003,1.040307e-001
2.827179e+003,1.176598e-001
2.829107e+003,1.353067e-001
2.831036e+003,1.587049e-001
2.832964e+003,1.904638e-001
2.834893e+003,2.347117e-001
2.836821e+003,2.972684e-001
2.838750e+003,3.878696e-001
2.840678e+003,5.222200e-001
2.842607e+003,7.196602e-001
2.844535e+003,9.873627e-001
2.846464e+003,1.252189e+000
2.848392e+003,1.282557e+000
2.850321e+003,1.031994e+000
2.852249e+003,7.555507e-001
2.854178e+003,5.618102e-001
2.856106e+003,4.304832e-001
2.858035e+003,3.375240e-001
2.859963e+003,2.714481e-001
2.861892e+003,2.257933e-001
2.863820e+003,1.956210e-001
2.865749e+003,1.772541e-001
2.867677e+003,1.680525e-001
2.869606e+003,1.653507e-001
2.871534e+003,1.669617e-001
2.873463e+003,1.725134e-001
2.875391e+003,1.833016e-001
2.877320e+003,2.002259e-001
2.879248e+003,2.226743e-001
2.881177e+003,2.492424e-001
2.883105e+003,2.788953e-001
2.885034e+003,3.113414e-001
2.886962e+003,3.458353e-001
2.888891e+003,3.816276e-001
2.890819e+003,4.179762e-001
2.892748e+003,4.539790e-001
2.894676e+003,4.893711e-001
2.896605e+003,5.250663e-001
2.898533e+003,5.626048e-001
2.900462e+003,6.047896e-001
2.902390e+003,6.558948e-001
2.904319e+003,7.222441e-001
2.906247e+003,8.124842e-001
2.908176e+003,9.360378e-001
2.910104e+003,1.098786e+000
2.912033e+003,1.285048e+000
2.913961e+003,1.424749e+000
2.915890e+003,1.421515e+000
2.917818e+003,1.275360e+000
2.919747e+003,1.079504e+000
2.921675e+003,8.979663e-001
2.923604e+003,7.479230e-001
2.925532e+003,6.279206e-001
2.927461e+003,5.307421e-001
2.929389e+003,4.496213e-001
2.931318e+003,3.803275e-001
2.933246e+003,3.207487e-001
2.935175e+003,2.698120e-001
2.937103e+003,2.264976e-001
2.939032e+003,1.899786e-001
2.940960e+003,1.595740e-001
2.942889e+003,1.349241e-001
2.944817e+003,1.159018e-001
2.946746e+003,1.019595e-001
2.948674e+003,9.232473e-002
2.950603e+003,8.572778e-002
2.952531e+003,8.053832e-002
2.954460e+003,7.558407e-002
2.956388e+003,7.049724e-002
2.958317e+003,6.514636e-002
2.960245e+003,5.959073e-002
2.962174e+003,5.375881e-002
2.964102e+003,4.778229e-002
2.966031e+003,4.201775e-002
2.967959e+003,3.690569e-002
2.969888e+003,3.246453e-002
2.971816e+003,2.870583e-002
2.973745e+003,2.560189e-002
2.975673e+003,2.306426e-002
2.977602e+003,2.092206e-002
2.979530e+003,1.914100e-002
2.981459e+003,1.761628e-002
2.983387e+003,1.634090e-002
2.985316e+003,1.529177e-002
2.987244e+003,1.439081e-002
2.989173e+003,1.354685e-002
2.991101e+003,1.280522e-002
2.993030e+003,1.215424e-002
2.994958e+003,1.163829e-002
2.996887e+003,1.110299e-002
2.998815e+003,1.057222e-002
3.000744e+003,1.018731e-002
3.002672e+003,9.892173e-003
3.004601e+003,9.572364e-003
3.006529e+003,9.218983e-003
3.008458e+003,8.897409e-003
3.010386e+003,8.716121e-003
3.012315e+003,8.523077e-003
3.014243e+003,8.298658e-003
3.016172e+003,8.109629e-003
3.018100e+003,7.965788e-003
3.020029e+003,7.782221e-003
3.021957e+003,7.623203e-003
3.023886e+003,7.433094e-003
3.025814e+003,7.226788e-003
3.027743e+003,7.108375e-003
3.029671e+003,7.007964e-003
3.031600e+003,6.823584e-003
3.033528e+003,6.599002e-003
3.035457e+003,6.336272e-003
3.037385e+003,6.070688e-003
3.039314e+003,5.797811e-003
3.041242e+003,5.575903e-003
3.043171e+003,5.336709e-003
3.045099e+003,5.087875e-003
3.047028e+003,4.897982e-003
3.048956e+003,4.732899e-003
3.050885e+003,4.591167e-003
3.052813e+003,4.379131e-003
3.054742e+003,4.144162e-003
3.056670e+003,4.042268e-003
3.058599e+003,3.952689e-003
3.060527e+003,3.766634e-003
3.062456e+003,3.659673e-003
3.064384e+003,3.702670e-003
3.066313e+003,3.630750e-003
3.068241e+003,3.510244e-003
3.070170e+003,3.372960e-003
3.072098e+003,3.263436e-003
3.074027e+003,3.210858e-003
3.075955e+003,3.114358e-003
3.077884e+003,3.015578e-003
3.079812e+003,2.999514e-003
3.081741e+003,2.875909e-003
3.083669e+003,2.744630e-003
3.085598e+003,2.668373e-003
3.087526e+003,2.600744e-003
3.089455e+003,2.290785e-003
3.091383e+003,2.101608e-003
3.093312e+003,2.004012e-003
3.095240e+003,1.715630e-003
3.097169e+003,1.435898e-003
3.099097e+003,1.255445e-003
3.101026e+003,1.079164e-003
3.102954e+003,8.653253e-004
3.104883e+003,6.669238e-004
3.106811e+003,6.060153e-004
3.108740e+003,5.926341e-004
3.110668e+003,4.843771e-004
3.112597e+003,3.318563e-004
3.114525e+003,2.371594e-004
3.116454e+003,1.753345e-004
3.118382e+003,1.219139e-004
3.120311e+003,8.460134e-005
3.122239e+003,1.322925e-004
3.124168e+003,1.620650e-004
3.126096e+003,1.562387e-004
3.128025e+003,1.373813e-004
3.129953e+003,8.746982e-005
3.131882e+003,4.611909e-005
3.133810e+003,1.851469e-005
3.135739e+003,1.025200e-005
3.137667e+003,-4.887581e-006
3.139596e+003,2.214313e-005
3.141524e+003,1.178086e-004
3.143453e+003,1.636893e-004
3.145381e+003,8.644164e-005
3.147310e+003,6.095320e-005
3.149238e+003,8.776039e-005
3.151167e+003,3.888458e-005
3.153095e+003,2.710521e-005
3.155024e+003,6.194413e-005
3.156952e+003,1.331493e-004
3.158881e+003,2.040938e-004
3.160809e+003,2.577305e-004
3.162738e+003,2.779365e-004
3.164666e+003,3.613904e-004
3.166594e+003,4.005879e-004
3.168523e+003,4.157722e-004
3.170452e+003,4.047900e-004
3.172380e+003,4.014149e-004
3.174309e+003,3.906339e-004
3.176237e+003,4.552752e-004
3.178166e+003,6.157830e-004
3.180094e+003,6.295890e-004
3.182022e+003,5.910471e-004
3.183951e+003,6.103292e-004
3.185880e+003,6.466210e-004
3.187808e+003,6.102696e-004
3.189737e+003,6.241798e-004
3.191665e+003,7.087737e-004
3.193594e+003,6.927624e-004
3.195522e+003,7.507503e-004
3.197450e+003,7.339641e-004
3.199379e+003,6.229579e-004
3.201308e+003,6.500259e-004
3.203236e+003,7.803664e-004
3.205165e+003,7.926226e-004
3.207093e+003,7.319674e-004
3.209021e+003,7.605180e-004
3.210950e+003,7.883012e-004
3.212878e+003,8.438006e-004
3.214807e+003,8.572415e-004
3.216736e+003,8.087978e-004
3.218664e+003,8.395165e-004
3.220593e+003,8.494407e-004
3.222521e+003,9.187832e-004
3.224449e+003,1.038305e-003
3.226378e+003,1.088008e-003
3.228307e+003,1.022071e-003
3.230235e+003,9.442866e-004
3.232164e+003,9.299889e-004
3.234092e+003,9.910390e-004
3.236021e+003,1.104496e-003
3.237949e+003,1.221761e-003
3.239877e+003,1.256786e-003
3.241806e+003,1.280278e-003
3.243735e+003,1.328535e-003
3.245663e+003,1.373433e-003
3.247592e+003,1.391061e-003
3.249520e+003,1.345806e-003
3.251448e+003,1.391560e-003
3.253377e+003,1.552090e-003
3.255305e+003,1.588024e-003
3.257234e+003,1.687407e-003
3.259163e+003,1.741081e-003
3.261091e+003,1.834109e-003
3.263020e+003,2.021678e-003
3.264948e+003,2.100006e-003
3.266876e+003,2.068713e-003
3.268805e+003,2.060160e-003
3.270733e+003,2.058171e-003
3.272662e+003,2.200767e-003
3.274591e+003,2.279170e-003
3.276519e+003,2.246492e-003
3.278448e+003,2.290599e-003
3.280376e+003,2.414986e-003
3.282304e+003,2.406798e-003
3.284233e+003,2.446435e-003
3.286161e+003,2.549298e-003
3.288090e+003,2.564400e-003
3.290019e+003,2.598941e-003
3.291947e+003,2.691381e-003
3.293875e+003,2.754100e-003
3.295804e+003,2.688468e-003
3.297732e+003,2.746001e-003
3.299661e+003,2.853550e-003
3.301589e+003,2.791584e-003
3.303518e+003,2.661668e-003
3.305447e+003,2.600558e-003
3.307375e+003,2.542295e-003
3.309303e+003,2.607517e-003
3.311232e+003,2.662644e-003
3.313160e+003,2.704367e-003
3.315089e+003,2.717733e-003
3.317018e+003,2.714820e-003
3.318946e+003,2.638325e-003
3.320875e+003,2.502196e-003
3.322803e+003,2.536148e-003
3.324731e+003,2.734713e-003
3.326660e+003,2.792716e-003
3.328588e+003,2.659515e-003
3.330517e+003,2.597645e-003
3.332446e+003,2.576232e-003
3.334374e+003,2.606072e-003
3.336302e+003,2.655163e-003
3.338231e+003,2.687447e-003
3.340159e+003,2.641216e-003
3.342088e+003,2.642073e-003
3.344016e+003,2.607465e-003
3.345945e+003,2.616107e-003
3.347874e+003,2.669610e-003
3.349802e+003,2.671786e-003
3.351730e+003,2.645381e-003
3.353659e+003,2.528213e-003
3.355587e+003,2.528034e-003
3.357516e+003,2.532832e-003
3.359444e+003,2.474792e-003
3.361373e+003,2.525195e-003
3.363302e+003,2.519757e-003
3.365230e+003,2.497301e-003
3.367158e+003,2.493605e-003
3.369087e+003,2.462901e-003
3.371015e+003,2.303511e-003
3.372944e+003,2.262838e-003
3.374872e+003,2.345636e-003
3.376801e+003,2.401657e-003
3.378729e+003,2.384141e-003
3.380658e+003,2.302408e-003
3.382586e+003,2.228126e-003
3.384515e+003,2.221949e-003
3.386443e+003,2.174467e-003
3.388372e+003,2.118550e-003
3.390300e+003,1.973383e-003
3.392229e+003,1.889579e-003
3.394157e+003,1.927085e-003
3.396086e+003,1.979642e-003
3.398014e+003,1.974471e-003
3.399943e+003,2.010405e-003
3.401871e+003,2.066225e-003
3.403800e+003,1.988888e-003
3.405728e+003,1.863800e-003
3.407657e+003,1.812398e-003
3.409585e+003,1.718402e-003
3.411514e+003,1.701958e-003
3.413442e+003,1.686439e-003
3.415371e+003,1.601376e-003
3.417299e+003,1.477584e-003
3.419228e+003,1.623712e-003
3.421156e+003,1.746915e-003
3.423085e+003,1.640752e-003
3.425013e+003,1.522481e-003
3.426942e+003,1.353465e-003
3.428870e+003,1.235515e-003
3.430799e+003,1.403056e-003
3.432727e+003,1.472168e-003
3.434656e+003,1.353465e-003
3.436584e+003,1.347572e-003
3.438513e+003,1.377508e-003
3.440441e+003,1.367465e-003
3.442370e+003,1.288339e-003
3.444298e+003,1.220532e-003
3.446227e+003,1.276277e-003
3.448155e+003,1.383737e-003
3.450084e+003,1.260884e-003
3.452012e+003,1.170583e-003
3.453941e+003,1.190394e-003
3.455869e+003,1.090802e-003
3.457798e+003,9.358749e-004
3.459726e+003,8.554757e-004
3.461655e+003,7.901341e-004
3.463583e+003,7.105395e-004
3.465512e+003,6.881505e-004
3.467440e+003,7.524490e-004
3.469369e+003,6.416738e-004
3.471297e+003,5.458668e-004
3.473226e+003,5.438104e-004
3.475154e+003,4.673526e-004
3.477083e+003,3.547221e-004
3.479011e+003,4.664436e-004
3.480940e+003,5.524680e-004
3.482868e+003,5.452260e-004
3.484797e+003,4.087314e-004
3.486725e+003,3.447458e-004
3.488654e+003,3.090128e-004
3.490582e+003,1.687184e-004
3.492511e+003,5.293638e-005
3.494439e+003,6.388873e-005
3.496368e+003,1.568347e-004
3.498296e+003,7.073581e-005
3.500225e+003,9.007752e-006
3.502153e+003,2.173409e-004
3.504082e+003,2.635419e-004
3.506010e+003,6.302446e-005
3.507939e+003,3.732741e-005
3.509867e+003,8.683652e-005
3.511796e+003,-2.530962e-005
3.513724e+003,-6.376207e-005
3.515653e+003,-1.164004e-004
3.517581e+003,-1.713410e-004
3.519510e+003,-3.508553e-004
3.521438e+003,-5.411059e-004
3.523367e+003,-4.437491e-004
3.525295e+003,-3.281087e-004
3.527224e+003,-1.850501e-004
3.529152e+003,-1.757964e-004
3.531081e+003,-3.746226e-004
3.533009e+003,-6.131753e-004
3.534938e+003,-5.625933e-004
3.536866e+003,-4.991069e-004
3.538795e+003,-7.969439e-004
3.540723e+003,-9.774789e-004
3.542652e+003,-7.888377e-004
3.544580e+003,-3.903583e-004
3.546509e+003,-9.917468e-005
3.548437e+003,-3.166497e-004
3.550366e+003,-5.771741e-004
3.552294e+003,-4.991293e-004
3.554223e+003,-6.231591e-004
3.556151e+003,-9.104833e-004
3.558080e+003,-8.772314e-004
3.560008e+003,-7.060841e-004
3.561937e+003,-9.305701e-004
3.563865e+003,-1.167454e-003
3.565794e+003,-6.488115e-004
3.567722e+003,2.645999e-004
3.569651e+003,-2.109781e-004
3.571579e+003,-8.628443e-004
3.573508e+003,-1.162916e-003
3.575436e+003,-1.147069e-003
3.577365e+003,-9.502769e-004
3.579293e+003,-7.471666e-004
3.581222e+003,-1.035228e-003
3.583150e+003,-1.315199e-003
3.585079e+003,-1.305863e-003
3.587007e+003,-3.234893e-004
3.588936e+003,2.753362e-004
3.590864e+003,-1.972988e-004
3.592793e+003,-3.537983e-004
3.594721e+003,-3.121793e-005
3.596650e+003,1.574755e-004
3.598578e+003,6.046146e-004
3.600507e+003,1.174040e-003
3.602435e+003,1.108252e-003
3.604364e+003,6.314442e-004
3.606292e+003,4.256591e-004
3.608221e+003,8.807182e-004
3.610149e+003,9.759068e-004
3.612078e+003,7.330254e-004
3.614006e+003,3.523827e-004
3.615935e+003,-2.976730e-004
3.617863e+003,-2.276674e-004
3.619792e+003,6.356835e-004
3.621720e+003,1.808628e-004
3.623649e+003,-6.509125e-004
3.625577e+003,-1.294911e-003
3.627506e+003,-8.152798e-004
3.629434e+003,1.178026e-003
3.631363e+003,5.206391e-004
3.633291e+003,-3.775433e-004
3.635220e+003,-1.051106e-003
3.637148e+003,-1.216918e-003
3.639077e+003,-6.617755e-004
3.641005e+003,-6.445497e-005
3.642934e+003,-2.724305e-004
3.644862e+003,-9.995326e-004
3.646791e+003,-8.782819e-004
3.648719e+003,1.254074e-003
3.650648e+003,2.073601e-003
3.652576e+003,4.334971e-004
3.654505e+003,-4.767179e-004
3.656433e+003,-3.379136e-004
3.658362e+003,-3.244132e-004
3.660290e+003,-5.220324e-004
3.662219e+003,-8.223727e-004
3.664147e+003,-1.468323e-003
3.666076e+003,-2.071366e-003
3.668004e+003,-2.047002e-003
3.669933e+003,-8.564144e-004
3.671861e+003,-6.499812e-004
3.673790e+003,-1.041748e-003
3.675718e+003,4.881620e-004
3.677647e+003,4.237741e-004
3.679575e+003,-1.837015e-004
3.681504e+003,-7.193238e-004
3.683432e+003,-1.198374e-003
3.685361e+003,-1.534440e-003
3.687289e+003,-1.347892e-003
3.689218e+003,-9.509921e-005
3.691146e+003,4.117265e-004
3.693075e+003,-1.484454e-004
3.695003e+003,-6.388202e-004
3.696932e+003,-9.020418e-004
3.698860e+003,-1.197606e-003
3.700789e+003,-8.796304e-004
3.702717e+003,-4.965067e-004
3.704646e+003,-1.004875e-003
3.706574e+003,-1.622334e-003
3.708503e+003,-1.509786e-003
3.710431e+003,-1.779720e-004
3.712360e+003,8.075014e-004
3.714288e+003,3.962219e-005
3.716217e+003,-7.719845e-004
3.718145e+003,-9.669662e-004
3.720074e+003,-7.823482e-004
3.722002e+003,-4.325137e-004
3.723931e+003,-5.720183e-004
3.725859e+003,-4.321411e-004
3.727788e+003,-7.006973e-004
3.729716e+003,-1.189560e-003
3.731645e+003,-1.299925e-003
3.733573e+003,-2.840906e-004
3.735502e+003,1.172327e-003
3.737430e+003,3.627464e-004
3.739359e+003,-6.597862e-004
3.741287e+003,-1.177803e-003
3.743216e+003,-7.688850e-004
3.745144e+003,7.802621e-004
3.747073e+003,4.577264e-004
3.749001e+003,2.266094e-004
3.750930e+003,1.261167e-003
3.752858e+003,8.971393e-004
3.754787e+003,-1.346469e-004
3.756715e+003,-5.404726e-004
3.758644e+003,-2.281889e-004
3.760572e+003,-1.664460e-005
3.762501e+003,-4.163161e-004
3.764429e+003,-4.900992e-004
3.766358e+003,-6.025359e-004
3.768286e+003,-6.940663e-004
3.770215e+003,-4.761666e-005
3.772143e+003,-2.046973e-004
3.774072e+003,-6.489828e-004
3.776000e+003,-9.471849e-004
3.777929e+003,-8.194894e-004
3.779857e+003,-2.575144e-004
3.781786e+003,-3.506988e-004
3.783714e+003,-4.426390e-004
3.785643e+003,-3.241375e-004
3.787571e+003,-4.837364e-004
3.789500e+003,-5.978420e-004
3.791428e+003,-6.363839e-004
3.793357e+003,-9.493753e-004
3.795285e+003,-1.006633e-003
3.797214e+003,-5.749017e-004
3.799142e+003,-7.324368e-004
3.801071e+003,1.832619e-004
3.802999e+003,4.341528e-004
3.804927e+003,-1.781434e-004
3.806856e+003,5.002543e-004
3.808785e+003,4.397035e-004
3.810713e+003,-1.883581e-004
3.812642e+003,-5.715415e-004
3.814570e+003,-6.735250e-004
3.816499e+003,1.422465e-004
3.818427e+003,7.365644e-005
3.820355e+003,7.279590e-004
3.822284e+003,1.295574e-003
3.824213e+003,5.242079e-004
3.826141e+003,4.245490e-004
3.828070e+003,1.190901e-004
3.829998e+003,-1.562834e-004
3.831927e+003,1.252443e-004
3.833855e+003,2.091005e-004
3.835783e+003,5.742833e-004
3.837712e+003,1.256712e-003
3.839641e+003,1.547776e-003
3.841569e+003,1.245394e-003
3.843498e+003,1.161210e-003
3.845426e+003,7.255375e-004
3.847354e+003,3.927946e-005
3.849283e+003,-5.641505e-004
3.851211e+003,-5.022213e-004
3.853140e+003,1.891620e-003
3.855069e+003,2.636358e-003
3.856997e+003,1.381785e-003
3.858926e+003,1.632869e-004
3.860854e+003,9.732693e-005
3.862782e+003,7.909164e-004
3.864711e+003,1.464143e-003
3.866640e+003,7.793829e-004
3.868568e+003,3.990605e-004
3.870497e+003,1.238346e-003
3.872425e+003,1.510479e-003
3.874354e+003,1.592502e-003
3.876282e+003,6.458387e-004
3.878210e+003,-1.639202e-004
3.880139e+003,4.074275e-004
3.882068e+003,7.991344e-004
3.883996e+003,8.990839e-004
3.885925e+003,1.265414e-003
3.887853e+003,3.831089e-004
3.889781e+003,1.034066e-004
3.891710e+003,1.050115e-003
3.893638e+003,1.078576e-003
3.895567e+003,4.713386e-004
3.897496e+003,2.623349e-004
3.899424e+003,6.563738e-004
3.901353e+003,1.126230e-003
3.903281e+003,1.670592e-003
3.905209e+003,1.709945e-003
3.907138e+003,9.709075e-004
3.909066e+003,4.255101e-004
3.910995e+003,3.634244e-004
3.912924e+003,3.170595e-004
3.914852e+003,3.413782e-004
3.916781e+003,7.244796e-004
3.918709e+003,8.430108e-004
3.920637e+003,5.858541e-004
3.922566e+003,4.470721e-004
3.924494e+003,7.620305e-004
3.926423e+003,7.589906e-004
3.928352e+003,5.439371e-004
3.930280e+003,5.562305e-004
3.932208e+003,9.415373e-004
3.934137e+003,8.873641e-004
3.936065e+003,4.113391e-004
3.937994e+003,1.481324e-004
3.939922e+003,7.623434e-005
3.941851e+003,4.023463e-004
3.943780e+003,5.529374e-004
3.945708e+003,2.879873e-004
3.947636e+003,3.515407e-004
3.949565e+003,5.086288e-004
3.951493e+003,4.784539e-004
3.953422e+003,4.353821e-004
3.955351e+003,4.595518e-004
3.957279e+003,4.248172e-004
3.959208e+003,2.580285e-004
3.961136e+003,2.154633e-004
3.963064e+003,4.158616e-004
3.964993e+003,3.800541e-004
3.966921e+003,1.069978e-004
3.968850e+003,1.270026e-004
3.970779e+003,1.371801e-004
3.972707e+003,1.563653e-004
3.974635e+003,3.252625e-004
3.976564e+003,3.462583e-004
3.978492e+003,1.469254e-004
3.980421e+003,1.235083e-004
3.982349e+003,2.646819e-004
3.984278e+003,2.969354e-004
3.986207e+003,1.599342e-004
3.988135e+003,1.515523e-004
3.990063e+003,2.646446e-004
3.991992e+003,2.684370e-004
3.993920e+003,2.976581e-004
3.995849e+003,3.050119e-004
3.997777e+003,2.008080e-004
3.999706e+003,1.636818e-004
4.001635e+003,0.000000e+000
