3.991992e+002,0.000000e+000
4.011277e+002,0.000000e+000
4.030562e+002,0.000000e+000
4.049846e+002,0.000000e+000
4.069131e+002,0.000000e+000
4.088416e+002,0.000000e+000
4.107701e+002,0.000000e+000
4.126986e+002,0.000000e+000
4.146271e+002,0.000000e+000
4.165556e+002,0.000000e+000
4.184841e+002,0.000000e+000
4.204126e+002,0.000000e+000
4.223411e+002,0.000000e+000
4.242697e+002,0.000000e+000
4.261982e+002,0.000000e+000
4.281266e+002,0.000000e+000
4.300551e+002,0.000000e+000
4.319836e+002,0.000000e+000
4.339121e+002,0.000000e+000
4.358406e+002,0.000000e+000
4.377691e+002,0.000000e+000
4.396976e+002,0.000000e+000
4.416261e+002,0.000000e+000
4.435546e+002,0.000000e+000
4.454831e+002,0.000000e+000
4.474116e+002,0.000000e+000
4.493401e+002,0.000000e+000
4.512686e+002,0.000000e+000
4.531971e+002,0.000000e+000
4.551256e+002,0.000000e+000
4.570541e+002,0.000000e+000
4.589826e+002,0.000000e+000
4.609111e+002,0.000000e+000
4.628396e+002,0.000000e+000
4.647681e+002,0.000000e+000
4.666966e+002,0.000000e+000
4.686251e+002,0.000000e+000
4.705536e+002,0.000000e+000
4.724821e+002,0.000000e+000
4.744106e+002,0.000000e+000
4.763391e+002,0.000000e+000
4.782676e+002,0.000000e+000
4.801961e+002,0.000000e+000
4.821246e+002,0.000000e+000
4.840531e+002,0.000000e+000
4.859816e+002,0.000000e+000
4.879101e+002,0.000000e+000
4.898386e+002,0.000000e+000
4.917671e+002,0.000000e+000
4.936956e+002,0.000000e+000
4.956241e+002,0.000000e+000
4.975526e+002,0.000000e+000
4.994811e+002,0.000000e+000
5.014096e+002,0.000000e+000
5.033381e+002,0.000000e+000
5.052666e+002,0.000000e+000
5.071951e+002,0.000000e+000
5.091236e+002,0.000000e+000
5.110521e+002,0.000000e+000
5.129806e+002,0.000000e+000
5.149091e+002,0.000000e+000
5.168376e+002,0.000000e+000
5.187661e+002,0.000000e+000
5.206946e+002,0.000000e+000
5.226230e+002,0.000000e+000
5.245516e+002,5.103089e-004
5.264800e+002,5.177781e-004
5.284086e+002,3.554747e-004
5.303370e+002,2.601556e-004
5.322656e+002,3.453568e-004
5.341940e+002,3.332384e-004
5.361226e+002,2.925340e-004
5.380510e+002,2.562497e-004
5.399796e+002,2.279263e-004
5.419081e+002,1.800507e-004
5.438365e+002,2.067387e-004
5.457650e+002,6.507896e-005
5.476935e+002,-9.680539e-005
5.496221e+002,2.610125e-005
5.515505e+002,2.129097e-004
5.534790e+002,1.516752e-004
5.554075e+002,1.596194e-004
5.573361e+002,2.175029e-004
5.592645e+002,2.027024e-004
5.611931e+002,1.866035e-004
5.631215e+002,1.615118e-004
5.650500e+002,-1.334026e-005
5.669785e+002,-5.518831e-005
5.689070e+002,2.990663e-005
5.708355e+002,4.736707e-005
5.727640e+002,-4.516542e-005
5.746925e+002,3.276020e-005
5.766210e+002,4.282594e-005
5.785495e+002,-1.016203e-004
5.804780e+002,-1.556668e-004
5.824065e+002,-5.193055e-005
5.843350e+002,-1.946799e-004
5.862635e+002,-2.265684e-004
5.881920e+002,-1.185853e-004
5.901205e+002,-1.061056e-004
5.920490e+002,-1.236740e-004
5.939775e+002,-1.048800e-004
5.959060e+002,-1.751278e-004
5.978345e+002,-2.192594e-004
5.997630e+002,-1.555830e-004
6.016915e+002,-6.812625e-005
6.036200e+002,-4.706345e-005
6.055485e+002,1.117084e-004
6.074770e+002,9.132549e-006
6.094055e+002,-1.085959e-004
6.113340e+002,-1.922287e-004
6.132625e+002,-3.544353e-004
6.151910e+002,-4.544612e-004
6.171195e+002,-3.733784e-004
6.190480e+002,-2.775975e-004
6.209765e+002,-4.627928e-005
6.229050e+002,-7.299334e-005
6.248335e+002,-9.238720e-005
6.267620e+002,-3.593042e-005
6.286905e+002,9.011477e-006
6.306190e+002,-1.084805e-005
6.325475e+002,4.432723e-005
6.344760e+002,7.241219e-005
6.364045e+002,8.048490e-005
6.383330e+002,8.758903e-005
6.402615e+002,2.028756e-004
6.421899e+002,1.345202e-004
6.441185e+002,2.153963e-005
6.460470e+002,1.127124e-004
6.479755e+002,2.423152e-004
6.499039e+002,1.980849e-004
6.518325e+002,2.379082e-004
6.537610e+002,2.558194e-004
6.556895e+002,3.647730e-004
6.576179e+002,3.970005e-004
6.595464e+002,4.479289e-004
6.614750e+002,3.311858e-004
6.634034e+002,3.749728e-004
6.653319e+002,5.672835e-004
6.672604e+002,7.257573e-004
6.691890e+002,6.444417e-004
6.711174e+002,7.332601e-004
6.730460e+002,7.758923e-004
6.749745e+002,7.998981e-004
6.769030e+002,8.692853e-004
6.788314e+002,1.025181e-003
6.807599e+002,1.097981e-003
6.826885e+002,1.321595e-003
6.846169e+002,1.454953e-003
6.865454e+002,1.591876e-003
6.884739e+002,1.801051e-003
6.904025e+002,2.111882e-003
6.923309e+002,2.282303e-003
6.942594e+002,2.677493e-003
6.961879e+002,3.198989e-003
6.981165e+002,3.838897e-003
7.000449e+002,4.684422e-003
7.019734e+002,5.908687e-003
7.039019e+002,7.276680e-003
7.058304e+002,9.272099e-003
7.077589e+002,1.198587e-002
7.096874e+002,1.596985e-002
7.116159e+002,2.209067e-002
7.135444e+002,3.354593e-002
7.154729e+002,5.515222e-002
7.174014e+002,8.862501e-002
7.193299e+002,1.059053e-001
7.212584e+002,8.056469e-002
7.231869e+002,5.389155e-002
7.251154e+002,4.479964e-002
7.270439e+002,4.938403e-002
7.289724e+002,6.366426e-002
7.309009e+002,5.965711e-002
7.328294e+002,3.401696e-002
7.347579e+002,1.744783e-002
7.366864e+002,1.150468e-002
7.386149e+002,8.935664e-003
7.405434e+002,7.307958e-003
7.424719e+002,6.350711e-003
7.444004e+002,5.661681e-003
7.463289e+002,5.152062e-003
7.482574e+002,4.635762e-003
7.501859e+002,4.252717e-003
7.521144e+002,3.902886e-003
7.540428e+002,3.664140e-003
7.559714e+002,3.413748e-003
7.578999e+002,3.235433e-003
7.598284e+002,3.088009e-003
7.617568e+002,3.024250e-003
7.636854e+002,2.976254e-003
7.656139e+002,2.903517e-003
7.675424e+002,2.802666e-003
7.694709e+002,2.745803e-003
7.713994e+002,2.674989e-003
7.733279e+002,2.578761e-003
7.752563e+002,2.445206e-003
7.771849e+002,2.327003e-003
7.791134e+002,2.234519e-003
7.810419e+002,2.189226e-003
7.829703e+002,2.103124e-003
7.848989e+002,2.016291e-003
7.868274e+002,1.869932e-003
7.887559e+002,1.760736e-003
7.906843e+002,1.752049e-003
7.926129e+002,1.827896e-003
7.945414e+002,1.817986e-003
7.964698e+002,1.777593e-003
7.983983e+002,1.739580e-003
8.003268e+002,1.723487e-003
8.022554e+002,1.733456e-003
8.041838e+002,1.740195e-003
8.061123e+002,1.675915e-003
8.080408e+002,1.565903e-003
8.099694e+002,1.480263e-003
8.118978e+002,1.352668e-003
8.138263e+002,1.245975e-003
8.157548e+002,1.229722e-003
8.176833e+002,1.214888e-003
8.196118e+002,1.205478e-003
8.215403e+002,1.188140e-003
8.234689e+002,1.130000e-003
8.253973e+002,1.043975e-003
8.273258e+002,9.907223e-004
8.292543e+002,9.620227e-004
8.311829e+002,8.955859e-004
8.331113e+002,8.828603e-004
8.350398e+002,8.811355e-004
8.369683e+002,8.524582e-004
8.388969e+002,8.786842e-004
8.408253e+002,8.993708e-004
8.427538e+002,9.170882e-004
8.446823e+002,9.405874e-004
8.466108e+002,9.498708e-004
8.485393e+002,9.700954e-004
8.504678e+002,9.506010e-004
8.523963e+002,9.892769e-004
8.543248e+002,9.651817e-004
8.562533e+002,9.483323e-004
8.581818e+002,9.216331e-004
8.601103e+002,9.330139e-004
8.620388e+002,9.659156e-004
8.639673e+002,1.029402e-003
8.658958e+002,1.043383e-003
8.678243e+002,9.950213e-004
8.697528e+002,9.616651e-004
8.716813e+002,1.042940e-003
8.736098e+002,1.116723e-003
8.755383e+002,1.121365e-003
8.774668e+002,1.100022e-003
8.793953e+002,1.290575e-003
8.813238e+002,1.514472e-003
8.832523e+002,1.696102e-003
8.851808e+002,1.903582e-003
8.871093e+002,2.108417e-003
8.890378e+002,2.167955e-003
8.909663e+002,2.066493e-003
8.928948e+002,1.844164e-003
8.948232e+002,1.747705e-003
8.967518e+002,1.670159e-003
8.986803e+002,1.606703e-003
9.006088e+002,1.572575e-003
9.025372e+002,1.566183e-003
9.044658e+002,1.644254e-003
9.063943e+002,1.884244e-003
9.083228e+002,2.027728e-003
9.102512e+002,1.950007e-003
9.121797e+002,1.691014e-003
9.141083e+002,1.585357e-003
9.160367e+002,1.476206e-003
9.179653e+002,1.263484e-003
9.198937e+002,1.191586e-003
9.218223e+002,1.274034e-003
9.237507e+002,1.271762e-003
9.256793e+002,1.226902e-003
9.276077e+002,1.218066e-003
9.295363e+002,1.195181e-003
9.314647e+002,1.285378e-003
9.333932e+002,1.300864e-003
9.353217e+002,1.228780e-003
9.372502e+002,1.287710e-003
9.391787e+002,1.367599e-003
9.411072e+002,1.300804e-003
9.430358e+002,1.227468e-003
9.449642e+002,1.255147e-003
9.468928e+002,1.283865e-003
9.488212e+002,1.343448e-003
9.507498e+002,1.359358e-003
9.526782e+002,1.346663e-003
9.546068e+002,1.367632e-003
9.565352e+002,1.499131e-003
9.584637e+002,1.591668e-003
9.603922e+002,1.639403e-003
9.623207e+002,1.708299e-003
9.642492e+002,1.827318e-003
9.661777e+002,1.833137e-003
9.681062e+002,1.853693e-003
9.700347e+002,1.822442e-003
9.719632e+002,1.719512e-003
9.738917e+002,1.672357e-003
9.758202e+002,1.723267e-003
9.777487e+002,1.733728e-003
9.796772e+002,1.761533e-003
9.816057e+002,1.771018e-003
9.835342e+002,1.774311e-003
9.854627e+002,1.820803e-003
9.873912e+002,1.961011e-003
9.893197e+002,2.029136e-003
9.912482e+002,2.126671e-003
9.931767e+002,2.197456e-003
9.951052e+002,2.234515e-003
9.970337e+002,2.280828e-003
9.989622e+002,2.360214e-003
1.000891e+003,2.445679e-003
1.002819e+003,2.583072e-003
1.004748e+003,2.606381e-003
1.006676e+003,2.680779e-003
1.008605e+003,2.829421e-003
1.010533e+003,2.982453e-003
1.012462e+003,3.077824e-003
1.014390e+003,3.226843e-003
1.016319e+003,3.364351e-003
1.018247e+003,3.461063e-003
1.020176e+003,3.521625e-003
1.022104e+003,3.548197e-003
1.024033e+003,3.593408e-003
1.025961e+003,3.708258e-003
1.027890e+003,3.750205e-003
1.029818e+003,3.812280e-003
1.031747e+003,3.889337e-003
1.033675e+003,3.999915e-003
1.035604e+003,4.043888e-003
1.037532e+003,4.118826e-003
1.039461e+003,4.152555e-003
1.041389e+003,4.231390e-003
1.043318e+003,4.295431e-003
1.045246e+003,4.387591e-003
1.047175e+003,4.480924e-003
1.049103e+003,4.621953e-003
1.051032e+003,4.626021e-003
1.052960e+003,4.607804e-003
1.054889e+003,4.612677e-003
1.056817e+003,4.712619e-003
1.058746e+003,4.861053e-003
1.060674e+003,5.047832e-003
1.062603e+003,5.131882e-003
1.064531e+003,5.166680e-003
1.066460e+003,5.147073e-003
1.068388e+003,5.183522e-003
1.070317e+003,5.268957e-003
1.072245e+003,5.449548e-003
1.074174e+003,5.597048e-003
1.076102e+003,5.775061e-003
1.078031e+003,5.977854e-003
1.079959e+003,6.170254e-003
1.081888e+003,6.195620e-003
1.083816e+003,6.195594e-003
1.085745e+003,6.208766e-003
1.087673e+003,6.247904e-003
1.089602e+003,6.205074e-003
1.091530e+003,6.148305e-003
1.093459e+003,6.098341e-003
1.095387e+003,6.076057e-003
1.097316e+003,6.010722e-003
1.099244e+003,5.907621e-003
1.101173e+003,5.755540e-003
1.103101e+003,5.701609e-003
1.105030e+003,5.593944e-003
1.106958e+003,5.513940e-003
1.108887e+003,5.431533e-003
1.110815e+003,5.403787e-003
1.112744e+003,5.362906e-003
1.114672e+003,5.391747e-003
1.116601e+003,5.355172e-003
1.118529e+003,5.325828e-003
1.120458e+003,5.224552e-003
1.122386e+003,5.145755e-003
1.124315e+003,5.038962e-003
1.126243e+003,5.005952e-003
1.128172e+003,4.997663e-003
1.130100e+003,5.063590e-003
1.132029e+003,5.121332e-003
1.133957e+003,5.238663e-003
1.135885e+003,5.382109e-003
1.137814e+003,5.628191e-003
1.139743e+003,5.839661e-003
1.141671e+003,6.076746e-003
1.143600e+003,6.289490e-003
1.145528e+003,6.524228e-003
1.147457e+003,6.731398e-003
1.149385e+003,7.022034e-003
1.151314e+003,7.370062e-003
1.153242e+003,7.779650e-003
1.155171e+003,8.124538e-003
1.157099e+003,8.383736e-003
1.159028e+003,8.563519e-003
1.160956e+003,8.704767e-003
1.162885e+003,8.680701e-003
1.164813e+003,8.576497e-003
1.166742e+003,8.329924e-003
1.168670e+003,8.024890e-003
1.170599e+003,7.669762e-003
1.172527e+003,7.360309e-003
1.174456e+003,7.054146e-003
1.176384e+003,6.829169e-003
1.178313e+003,6.503645e-003
1.180241e+003,6.183714e-003
1.182170e+003,5.915184e-003
1.184098e+003,5.727541e-003
1.186027e+003,5.594537e-003
1.187955e+003,5.581673e-003
1.189884e+003,5.517833e-003
1.191812e+003,5.470552e-003
1.193740e+003,5.445059e-003
1.195669e+003,5.527623e-003
1.197598e+003,5.580459e-003
1.199526e+003,5.658854e-003
1.201455e+003,5.705625e-003
1.203383e+003,5.858377e-003
1.205312e+003,6.026071e-003
1.207240e+003,6.221477e-003
1.209168e+003,6.379023e-003
1.211097e+003,6.619945e-003
1.213026e+003,6.814744e-003
1.214954e+003,7.030934e-003
1.216883e+003,7.212933e-003
1.218811e+003,7.436026e-003
1.220740e+003,7.622428e-003
1.222668e+003,7.846285e-003
1.224596e+003,8.037131e-003
1.226525e+003,8.233011e-003
1.228453e+003,8.344129e-003
1.230382e+003,8.521650e-003
1.232311e+003,8.674342e-003
1.234239e+003,8.832254e-003
1.236167e+003,8.897379e-003
1.238096e+003,8.970458e-003
1.240025e+003,8.902825e-003
1.241953e+003,8.776132e-003
1.243882e+003,8.592997e-003
1.245810e+003,8.389078e-003
1.247739e+003,8.088578e-003
1.249667e+003,7.866614e-003
1.251595e+003,7.683150e-003
1.253524e+003,7.571846e-003
1.255453e+003,7.449888e-003
1.257381e+003,7.424831e-003
1.259310e+003,7.374860e-003
1.261238e+003,7.298727e-003
1.263167e+003,7.135335e-003
1.265095e+003,6.993067e-003
1.267023e+003,6.765980e-003
1.268952e+003,6.647971e-003
1.270880e+003,6.556775e-003
1.272809e+003,6.561972e-003
1.274738e+003,6.575070e-003
1.276666e+003,6.678697e-003
1.278594e+003,6.734151e-003
1.280523e+003,6.865039e-003
1.282451e+003,6.940566e-003
1.284380e+003,7.101171e-003
1.286308e+003,7.243633e-003
1.288237e+003,7.488862e-003
1.290166e+003,7.730484e-003
1.292094e+003,8.067600e-003
1.294022e+003,8.405671e-003
1.295951e+003,8.812010e-003
1.297879e+003,9.070672e-003
1.299808e+003,9.334914e-003
1.301736e+003,9.431064e-003
1.303665e+003,9.456351e-003
1.305594e+003,9.311616e-003
1.307522e+003,9.225324e-003
1.309450e+003,8.992106e-003
1.311379e+003,8.690737e-003
1.313307e+003,8.274011e-003
1.315236e+003,7.917881e-003
1.317164e+003,7.523037e-003
1.319093e+003,7.170275e-003
1.321021e+003,6.778046e-003
1.322950e+003,6.527320e-003
1.324878e+003,6.290495e-003
1.326807e+003,6.201446e-003
1.328735e+003,6.149337e-003
1.330664e+003,6.252401e-003
1.332592e+003,6.446660e-003
1.334521e+003,6.956674e-003
1.336449e+003,7.569842e-003
1.338378e+003,8.390002e-003
1.340306e+003,9.053454e-003
1.342235e+003,9.499118e-003
1.344163e+003,9.904876e-003
1.346092e+003,1.055224e-002
1.348021e+003,1.122981e-002
1.349949e+003,1.196552e-002
1.351877e+003,1.229235e-002
1.353806e+003,1.230801e-002
1.355734e+003,1.210801e-002
1.357663e+003,1.215248e-002
1.359591e+003,1.246276e-002
1.361520e+003,1.327676e-002
1.363448e+003,1.444004e-002
1.365377e+003,1.553559e-002
1.367305e+003,1.643865e-002
1.369234e+003,1.691438e-002
1.371162e+003,1.664100e-002
1.373091e+003,1.687525e-002
1.375019e+003,1.874322e-002
1.376948e+003,2.025207e-002
1.378876e+003,1.865747e-002
1.380805e+003,1.442137e-002
1.382733e+003,1.034736e-002
1.384662e+003,7.950939e-003
1.386590e+003,6.540589e-003
1.388519e+003,5.833820e-003
1.390447e+003,5.288817e-003
1.392376e+003,5.155750e-003
1.394304e+003,5.024806e-003
1.396233e+003,5.026259e-003
1.398161e+003,4.852958e-003
1.400090e+003,5.010135e-003
1.402018e+003,4.911773e-003
1.403947e+003,5.132958e-003
1.405875e+003,5.183294e-003
1.407804e+003,5.371161e-003
1.409732e+003,5.425155e-003
1.411661e+003,5.815312e-003
1.413589e+003,5.952463e-003
1.415518e+003,6.378822e-003
1.417446e+003,6.672472e-003
1.419375e+003,7.525057e-003
1.421303e+003,7.820040e-003
1.423232e+003,8.779109e-003
1.425160e+003,1.010986e-002
1.427089e+003,1.188821e-002
1.429017e+003,1.422595e-002
1.430946e+003,1.785473e-002
1.432874e+003,2.079909e-002
1.434803e+003,2.360968e-002
1.436731e+003,2.673556e-002
1.438660e+003,2.963690e-002
1.440588e+003,3.137734e-002
1.442517e+003,3.380032e-002
1.444445e+003,3.576075e-002
1.446374e+003,3.844725e-002
1.448302e+003,4.219719e-002
1.450231e+003,4.798838e-002
1.452159e+003,5.656721e-002
1.454088e+003,6.725229e-002
1.456016e+003,7.777745e-002
1.457945e+003,1.013734e-001
1.459873e+003,1.412998e-001
1.461802e+003,1.813070e-001
1.463730e+003,1.818926e-001
1.465659e+003,1.422481e-001
1.467587e+003,1.276286e-001
1.469516e+003,1.230212e-001
1.471444e+003,1.370543e-001
1.473373e+003,1.207191e-001
1.475301e+003,6.566188e-002
1.477230e+003,2.910966e-002
1.479158e+003,1.849212e-002
1.481087e+003,1.335774e-002
1.483015e+003,1.088548e-002
1.484944e+003,8.914568e-003
1.486872e+003,8.277364e-003
1.488801e+003,6.909326e-003
1.490729e+003,6.774470e-003
1.492658e+003,5.786821e-003
1.494586e+003,5.769558e-003
1.496515e+003,5.066529e-003
1.498443e+003,4.995257e-003
1.500372e+003,4.335240e-003
1.502300e+003,4.358619e-003
1.504229e+003,3.909402e-003
1.506157e+003,4.485942e-003
1.508086e+003,3.886610e-003
1.510014e+003,3.956422e-003
1.511943e+003,3.504530e-003
1.513871e+003,3.652930e-003
1.515800e+003,3.387459e-003
1.517728e+003,3.603838e-003
1.519657e+003,3.288798e-003
1.521585e+003,3.738351e-003
1.523514e+003,3.294393e-003
1.525442e+003,3.435135e-003
1.527371e+003,3.290921e-003
1.529299e+003,3.397718e-003
1.531228e+003,3.130205e-003
1.533156e+003,3.510669e-003
1.535085e+003,3.372602e-003
1.537013e+003,3.469273e-003
1.538942e+003,3.594652e-003
1.540870e+003,4.334919e-003
1.542799e+003,3.623016e-003
1.544727e+003,3.601089e-003
1.546656e+003,3.157683e-003
1.548584e+003,3.150553e-003
1.550513e+003,2.906926e-003
1.552441e+003,2.968661e-003
1.554370e+003,2.795935e-003
1.556298e+003,2.916656e-003
1.558227e+003,2.863035e-003
1.560155e+003,2.834074e-003
1.562084e+003,2.282329e-003
1.564012e+003,2.320208e-003
1.565941e+003,2.199948e-003
1.567869e+003,2.267279e-003
1.569798e+003,2.260447e-003
1.571726e+003,2.285436e-003
1.573655e+003,2.077028e-003
1.575583e+003,2.322413e-003
1.577512e+003,2.277888e-003
1.579440e+003,2.164319e-003
1.581369e+003,1.996212e-003
1.583297e+003,2.062738e-003
1.585226e+003,1.943558e-003
1.587154e+003,1.936719e-003
1.589083e+003,1.798980e-003
1.591011e+003,1.858644e-003
1.592940e+003,1.766793e-003
1.594868e+003,1.796551e-003
1.596797e+003,1.726694e-003
1.598725e+003,1.808971e-003
1.600654e+003,1.771450e-003
1.602582e+003,1.846902e-003
1.604511e+003,1.800910e-003
1.606439e+003,1.853324e-003
1.608368e+003,1.808412e-003
1.610296e+003,1.966506e-003
1.612225e+003,1.933657e-003
1.614153e+003,2.014585e-003
1.616082e+003,2.198771e-003
1.618010e+003,2.359800e-003
1.619939e+003,2.209634e-003
1.621867e+003,2.433851e-003
1.623796e+003,2.570376e-003
1.625724e+003,2.554223e-003
1.627653e+003,2.548568e-003
1.629581e+003,2.755024e-003
1.631510e+003,2.839439e-003
1.633438e+003,3.046222e-003
1.635367e+003,3.402241e-003
1.637295e+003,3.665321e-003
1.639224e+003,3.465690e-003
1.641152e+003,3.530964e-003
1.643081e+003,3.532104e-003
1.645009e+003,3.668532e-003
1.646938e+003,3.849827e-003
1.648866e+003,3.861442e-003
1.650795e+003,3.665321e-003
1.652723e+003,4.146010e-003
1.654652e+003,3.867649e-003
1.656580e+003,3.588684e-003
1.658509e+003,3.404357e-003
1.660437e+003,3.425367e-003
1.662366e+003,3.378682e-003
1.664294e+003,3.209338e-003
1.666223e+003,2.868757e-003
1.668151e+003,3.008649e-003
1.670080e+003,3.107712e-003
1.672008e+003,2.775721e-003
1.673937e+003,2.435379e-003
1.675865e+003,2.354309e-003
1.677794e+003,2.125971e-003
1.679722e+003,2.116382e-003
1.681651e+003,1.992591e-003
1.683579e+003,2.484716e-003
1.685508e+003,1.991473e-003
1.687436e+003,1.629338e-003
1.689365e+003,1.451746e-003
1.691293e+003,1.439311e-003
1.693222e+003,1.296639e-003
1.695150e+003,1.495443e-003
1.697079e+003,1.426712e-003
1.699007e+003,1.534380e-003
1.700936e+003,1.532562e-003
1.702864e+003,1.473762e-003
1.704793e+003,1.411162e-003
1.706721e+003,1.396567e-003
1.708650e+003,1.212694e-003
1.710578e+003,1.233555e-003
1.712507e+003,1.297712e-003
1.714435e+003,1.637757e-003
1.716364e+003,1.887254e-003
1.718292e+003,2.230249e-003
1.720221e+003,2.124049e-003
1.722149e+003,2.229229e-003
1.724078e+003,2.302937e-003
1.726006e+003,2.325915e-003
1.727935e+003,2.410546e-003
1.729863e+003,2.931423e-003
1.731792e+003,3.396206e-003
1.733720e+003,4.592396e-003
1.735649e+003,5.275227e-003
1.737577e+003,5.706720e-003
1.739506e+003,6.819628e-003
1.741434e+003,8.021995e-003
1.743363e+003,9.063989e-003
1.745291e+003,1.008966e-002
1.747220e+003,1.054405e-002
1.749148e+003,1.033112e-002
1.751077e+003,9.107061e-003
1.753005e+003,7.364579e-003
1.754934e+003,5.927153e-003
1.756862e+003,4.404634e-003
1.758791e+003,3.060021e-003
1.760719e+003,2.321705e-003
1.762648e+003,1.387343e-003
1.764576e+003,8.565113e-004
1.766505e+003,6.407276e-004
1.768433e+003,5.496144e-004
1.770362e+003,3.309995e-004
1.772290e+003,3.117993e-004
1.774219e+003,-7.747114e-005
1.776147e+003,-2.775416e-004
1.778076e+003,-3.495961e-004
1.780004e+003,-1.927391e-004
1.781933e+003,-3.761351e-004
1.783861e+003,-4.371107e-004
1.785790e+003,-5.616248e-004
1.787718e+003,-5.274639e-004
1.789646e+003,-4.854947e-004
1.791575e+003,-2.672300e-004
1.793504e+003,-3.925487e-004
1.795432e+003,-4.940704e-004
1.797361e+003,-6.145686e-004
1.799289e+003,-4.780143e-004
1.801218e+003,-5.033687e-004
1.803146e+003,-5.370080e-004
1.805074e+003,-6.879643e-004
1.807003e+003,-7.081032e-004
1.808932e+003,-8.049682e-004
1.810860e+003,-7.922277e-004
1.812789e+003,-9.235367e-004
1.814717e+003,-1.020670e-003
1.816646e+003,-1.092516e-003
1.818574e+003,-6.201267e-004
1.820502e+003,-5.318075e-004
1.822431e+003,-5.700141e-004
1.824360e+003,-6.428957e-004
1.826288e+003,-6.638840e-004
1.828217e+003,-7.990822e-004
1.830145e+003,-6.329119e-004
1.832073e+003,-9.196997e-004
1.834002e+003,-9.687617e-004
1.835931e+003,-1.031123e-003
1.837859e+003,-9.542331e-004
1.839788e+003,-1.073144e-003
1.841716e+003,-1.014382e-003
1.843645e+003,-1.083806e-003
1.845573e+003,-1.053944e-003
1.847501e+003,-1.259595e-003
1.849430e+003,-1.069464e-003
1.851359e+003,-1.125224e-003
1.853287e+003,-1.051888e-003
1.855216e+003,-1.136109e-003
1.857144e+003,-1.076192e-003
1.859073e+003,-1.102678e-003
1.861001e+003,-1.085222e-003
1.862929e+003,-1.221545e-003
1.864858e+003,-1.029536e-003
1.866787e+003,-9.837821e-004
1.868715e+003,-6.341562e-004
1.870644e+003,-9.590164e-004
1.872572e+003,-9.377375e-004
1.874500e+003,-9.407625e-004
1.876429e+003,-9.990782e-004
1.878357e+003,-1.200795e-003
1.880286e+003,-9.135976e-004
1.882215e+003,-8.552521e-004
1.884143e+003,-7.056221e-004
1.886072e+003,-9.052977e-004
1.888000e+003,-7.524937e-004
1.889928e+003,-3.323928e-004
1.891857e+003,-1.351535e-005
1.893785e+003,2.269447e-004
1.895714e+003,5.926564e-004
1.897643e+003,1.554713e-004
1.899571e+003,9.471178e-005
1.901500e+003,9.565055e-005
1.903428e+003,9.656698e-005
1.905356e+003,9.748340e-005
1.907285e+003,9.837747e-005
1.909213e+003,9.927899e-005
1.911142e+003,1.001731e-004
1.913071e+003,1.010671e-004
1.914999e+003,1.019314e-004
1.916927e+003,1.027957e-004
1.918856e+003,1.036674e-004
1.920784e+003,1.045242e-004
1.922713e+003,1.053661e-004
1.924641e+003,1.062006e-004
1.926570e+003,1.070425e-004
1.928499e+003,1.078695e-004
1.930427e+003,1.086742e-004
1.932355e+003,1.094863e-004
1.934284e+003,1.103058e-004
1.936212e+003,1.110807e-004
1.938141e+003,1.118705e-004
1.940070e+003,1.126677e-004
1.941998e+003,1.134351e-004
1.943927e+003,1.141950e-004
1.945855e+003,1.149550e-004
1.947783e+003,1.157150e-004
1.949712e+003,1.164600e-004
1.951640e+003,1.171902e-004
1.953569e+003,1.179203e-004
1.955498e+003,1.186505e-004
1.957426e+003,1.193583e-004
1.959354e+003,1.200661e-004
1.961283e+003,1.207739e-004
1.963211e+003,1.214594e-004
1.965140e+003,1.221523e-004
1.967068e+003,1.228303e-004
1.968997e+003,1.235008e-004
1.970926e+003,1.241639e-004
1.972854e+003,1.248196e-004
1.974782e+003,1.254678e-004
1.976711e+003,1.261085e-004
1.978639e+003,1.267567e-004
1.980568e+003,1.273751e-004
1.982496e+003,1.279935e-004
1.984425e+003,1.286119e-004
1.986354e+003,1.292154e-004
1.988282e+003,1.298040e-004
1.990210e+003,1.304001e-004
1.992139e+003,1.309887e-004
1.994067e+003,1.315624e-004
1.995996e+003,1.321211e-004
1.997924e+003,1.326874e-004
1.999853e+003,1.332536e-004
2.001781e+003,1.337901e-004
2.003710e+003,1.343340e-004
2.005638e+003,1.348704e-004
2.007567e+003,1.353920e-004
2.009495e+003,1.359060e-004
2.011424e+003,1.364201e-004
2.013352e+003,1.369193e-004
2.015281e+003,1.374260e-004
2.017209e+003,1.379102e-004
2.019138e+003,1.383871e-004
2.021066e+003,1.388714e-004
2.022995e+003,1.393333e-004
2.024923e+003,1.397878e-004
2.026852e+003,1.402423e-004
2.028781e+003,1.406968e-004
2.030709e+003,1.411289e-004
2.032637e+003,1.415536e-004
2.034566e+003,1.419708e-004
2.036494e+003,1.423955e-004
2.038423e+003,1.428127e-004
2.040351e+003,1.431927e-004
2.042280e+003,1.435950e-004
2.044208e+003,1.439899e-004
2.046137e+003,1.443475e-004
2.048065e+003,1.447350e-004
2.049994e+003,1.450926e-004
2.051922e+003,1.454502e-004
2.053851e+003,1.458153e-004
2.055779e+003,1.461506e-004
2.057708e+003,1.464859e-004
2.059636e+003,1.468137e-004
2.061565e+003,1.471266e-004
2.063493e+003,1.474395e-004
2.065422e+003,1.477450e-004
2.067350e+003,1.480356e-004
2.069279e+003,1.483411e-004
2.071207e+003,1.486242e-004
2.073136e+003,1.488999e-004
2.075064e+003,1.491681e-004
2.076993e+003,1.494214e-004
2.078921e+003,1.496896e-004
2.080850e+003,1.499355e-004
2.082778e+003,1.501590e-004
2.084707e+003,1.504049e-004
2.086635e+003,1.506284e-004
2.088564e+003,1.508445e-004
2.090492e+003,1.510680e-004
2.092421e+003,1.512617e-004
2.094349e+003,1.514554e-004
2.096278e+003,1.516417e-004
2.098206e+003,1.518279e-004
2.100135e+003,1.520067e-004
2.102063e+003,1.521707e-004
2.103992e+003,1.523346e-004
2.105920e+003,1.524761e-004
2.107849e+003,1.526177e-004
2.109777e+003,1.527518e-004
2.111706e+003,1.528934e-004
2.113634e+003,1.530200e-004
2.115563e+003,1.531392e-004
2.117491e+003,1.532435e-004
2.119420e+003,1.533404e-004
2.121348e+003,1.534298e-004
2.123277e+003,1.535192e-004
2.125205e+003,1.536012e-004
2.127134e+003,1.536682e-004
2.129062e+003,1.537353e-004
2.130991e+003,1.537949e-004
2.132919e+003,1.538470e-004
2.134848e+003,1.538768e-004
2.136776e+003,1.539215e-004
2.138705e+003,1.539439e-004
2.140633e+003,1.539588e-004
2.142562e+003,1.539886e-004
2.144490e+003,1.539886e-004
2.146419e+003,1.539961e-004
2.148347e+003,1.539811e-004
2.150276e+003,1.539588e-004
2.152204e+003,1.539364e-004
2.154133e+003,1.539141e-004
2.156061e+003,1.538843e-004
2.157990e+003,1.538321e-004
2.159918e+003,1.537725e-004
2.161847e+003,1.537129e-004
2.163775e+003,1.536533e-004
2.165704e+003,1.535565e-004
2.167632e+003,1.534745e-004
2.169561e+003,1.534000e-004
2.171489e+003,1.532882e-004
2.173418e+003,1.531988e-004
2.175346e+003,1.530945e-004
2.177275e+003,1.529828e-004
2.179203e+003,1.528412e-004
2.181132e+003,1.527071e-004
2.183060e+003,1.525655e-004
2.184989e+003,1.524240e-004
2.186917e+003,1.522675e-004
2.188846e+003,1.521111e-004
2.190774e+003,1.519397e-004
2.192703e+003,1.517534e-004
2.194631e+003,1.515672e-004
2.196560e+003,1.513809e-004
2.198488e+003,1.511872e-004
2.200417e+003,1.509935e-004
2.202345e+003,1.507699e-004
2.204274e+003,1.505464e-004
2.206202e+003,1.503155e-004
2.208131e+003,1.500845e-004
2.210059e+003,1.498386e-004
2.211988e+003,1.495853e-004
2.213916e+003,1.493171e-004
2.215845e+003,1.490489e-004
2.217773e+003,1.487955e-004
2.219702e+003,1.485124e-004
2.221630e+003,1.482368e-004
2.223559e+003,1.479313e-004
2.225487e+003,1.476258e-004
2.227416e+003,1.473129e-004
2.229344e+003,1.470149e-004
2.231273e+003,1.466870e-004
2.233201e+003,1.463592e-004
2.235130e+003,1.460239e-004
2.237058e+003,1.456738e-004
2.238987e+003,1.453087e-004
2.240915e+003,1.449510e-004
2.242844e+003,1.445860e-004
2.244772e+003,1.442134e-004
2.246701e+003,1.438335e-004
2.248629e+003,1.434460e-004
2.250558e+003,1.430586e-004
2.252486e+003,1.426414e-004
2.254415e+003,1.422390e-004
2.256343e+003,1.418144e-004
2.258272e+003,1.413897e-004
2.260200e+003,1.409426e-004
2.262129e+003,1.405254e-004
2.264057e+003,1.400709e-004
2.265986e+003,1.396164e-004
2.267914e+003,1.391470e-004
2.269843e+003,1.386777e-004
2.271771e+003,1.382083e-004
2.273700e+003,1.377165e-004
2.275628e+003,1.372397e-004
2.277557e+003,1.367405e-004
2.279485e+003,1.362264e-004
2.281414e+003,1.357123e-004
2.283342e+003,1.351908e-004
2.285271e+003,1.346618e-004
2.287199e+003,1.341254e-004
2.289128e+003,1.335815e-004
2.291056e+003,1.330376e-004
2.292985e+003,1.324788e-004
2.294913e+003,1.319200e-004
2.296842e+003,1.313463e-004
2.298770e+003,1.307577e-004
2.300699e+003,1.301765e-004
2.302627e+003,1.295954e-004
2.304556e+003,1.289770e-004
2.306484e+003,1.283810e-004
2.308413e+003,1.277551e-004
2.310341e+003,1.271367e-004
2.312270e+003,1.264960e-004
2.314198e+003,1.258701e-004
2.316127e+003,1.252145e-004
2.318055e+003,1.245588e-004
2.319984e+003,1.239106e-004
2.321912e+003,1.232475e-004
2.323841e+003,1.225695e-004
2.325769e+003,1.218840e-004
2.327698e+003,1.211911e-004
2.329626e+003,1.205057e-004
2.331555e+003,1.197979e-004
2.333483e+003,1.190901e-004
2.335412e+003,1.183674e-004
2.337340e+003,1.176447e-004
2.339269e+003,1.169145e-004
2.341197e+003,1.161695e-004
2.343126e+003,1.154169e-004
2.345054e+003,1.146644e-004
2.346983e+003,1.139119e-004
2.348911e+003,1.131371e-004
2.350840e+003,1.123622e-004
2.352768e+003,1.115799e-004
2.354697e+003,1.107901e-004
2.356625e+003,1.099780e-004
2.358554e+003,1.091734e-004
2.360482e+003,1.083612e-004
2.362411e+003,1.075417e-004
2.364339e+003,1.067221e-004
2.366268e+003,1.058877e-004
2.368196e+003,1.050383e-004
2.370125e+003,1.041815e-004
2.372053e+003,1.033321e-004
2.373982e+003,1.024678e-004
2.375910e+003,1.015961e-004
2.377839e+003,1.007169e-004
2.379767e+003,9.983778e-005
2.381696e+003,9.894371e-005
2.383624e+003,9.804219e-005
2.385553e+003,9.711832e-005
2.387481e+003,9.620935e-005
2.389410e+003,9.529293e-005
2.391338e+003,9.436160e-005
2.393267e+003,9.343028e-005
2.395195e+003,9.246916e-005
2.397124e+003,9.152293e-005
2.399052e+003,9.056181e-005
2.400981e+003,-5.856156e-006
2.402909e+003,-4.647672e-005
2.404838e+003,1.388863e-004
2.406766e+003,4.394278e-004
2.408695e+003,5.629584e-004
2.410623e+003,5.043745e-004
2.412552e+003,5.824119e-004
2.414480e+003,4.911274e-004
2.416409e+003,4.420280e-004
2.418337e+003,4.808083e-004
2.420266e+003,5.560294e-004
2.422194e+003,5.345121e-004
2.424123e+003,5.408078e-004
2.426051e+003,4.960001e-004
2.427979e+003,4.617646e-004
2.429908e+003,4.853904e-004
2.431837e+003,6.054714e-004
2.433765e+003,6.292760e-004
2.435694e+003,6.297752e-004
2.437622e+003,6.458238e-004
2.439551e+003,6.808192e-004
2.441479e+003,4.796907e-004
2.443407e+003,3.731474e-004
2.445336e+003,3.430396e-004
2.447265e+003,4.698113e-004
2.449193e+003,6.681904e-004
2.451122e+003,8.380786e-004
2.453050e+003,7.752180e-004
2.454979e+003,7.543862e-004
2.456907e+003,6.668046e-004
2.458836e+003,5.669668e-004
2.460764e+003,5.292147e-004
2.462693e+003,5.805343e-004
2.464621e+003,5.009621e-004
2.466550e+003,4.329830e-004
2.468478e+003,5.337670e-004
2.470406e+003,6.383061e-004
2.472335e+003,7.685795e-004
2.474264e+003,1.000702e-003
2.476192e+003,8.693859e-004
2.478121e+003,7.944182e-004
2.480049e+003,8.285269e-004
2.481978e+003,9.527579e-004
2.483906e+003,9.392276e-004
2.485835e+003,1.052201e-003
2.487763e+003,9.465665e-004
2.489692e+003,9.195879e-004
2.491620e+003,9.776056e-004
2.493549e+003,1.042165e-003
2.495477e+003,1.194634e-003
2.497406e+003,1.258753e-003
2.499334e+003,1.172394e-003
2.501263e+003,1.339622e-003
2.503191e+003,1.353532e-003
2.505120e+003,1.297057e-003
2.507048e+003,1.282386e-003
2.508977e+003,1.274362e-003
2.510905e+003,1.203366e-003
2.512833e+003,1.348428e-003
2.514762e+003,1.455531e-003
2.516691e+003,1.524292e-003
2.518619e+003,1.582325e-003
2.520548e+003,1.875840e-003
2.522476e+003,2.027541e-003
2.524405e+003,2.140284e-003
2.526333e+003,2.127513e-003
2.528261e+003,2.299406e-003
2.530190e+003,2.331980e-003
2.532119e+003,2.262063e-003
2.534047e+003,2.101146e-003
2.535976e+003,2.130792e-003
2.537904e+003,2.249487e-003
2.539833e+003,2.313830e-003
2.541761e+003,2.302058e-003
2.543689e+003,2.419740e-003
2.545618e+003,2.635397e-003
2.547547e+003,2.864785e-003
2.549475e+003,2.883606e-003
2.551404e+003,2.988458e-003
2.553332e+003,3.148988e-003
2.555260e+003,3.136121e-003
2.557189e+003,3.057830e-003
2.559117e+003,3.114216e-003
2.561046e+003,3.333688e-003
2.562975e+003,3.509700e-003
2.564903e+003,3.522947e-003
2.566832e+003,3.735662e-003
2.568760e+003,3.990784e-003
2.570688e+003,4.136130e-003
2.572617e+003,4.165560e-003
2.574546e+003,4.292414e-003
2.576474e+003,4.439563e-003
2.578403e+003,4.704237e-003
2.580331e+003,4.899144e-003
2.582260e+003,5.076081e-003
2.584188e+003,5.155608e-003
2.586116e+003,5.296245e-003
2.588045e+003,5.563006e-003
2.589974e+003,5.841583e-003
2.591902e+003,5.990639e-003
2.593831e+003,6.000593e-003
2.595759e+003,6.143093e-003
2.597688e+003,6.563798e-003
2.599616e+003,6.803364e-003
2.601544e+003,6.881639e-003
2.603473e+003,6.963626e-003
2.605402e+003,7.141948e-003
2.607330e+003,7.348776e-003
2.609259e+003,7.697433e-003
2.611187e+003,8.057728e-003
2.613115e+003,8.371502e-003
2.615044e+003,8.630902e-003
2.616972e+003,8.903459e-003
2.618901e+003,9.186655e-003
2.620830e+003,9.518504e-003
2.622758e+003,9.909794e-003
2.624687e+003,1.028822e-002
2.626615e+003,1.063909e-002
2.628543e+003,1.115391e-002
2.630472e+003,1.167811e-002
2.632400e+003,1.200306e-002
2.634329e+003,1.208894e-002
2.636258e+003,1.210810e-002
2.638186e+003,1.215571e-002
2.640115e+003,1.228817e-002
2.642043e+003,1.231447e-002
2.643971e+003,1.232444e-002
2.645900e+003,1.236565e-002
2.647828e+003,1.238973e-002
2.649757e+003,1.249617e-002
2.651686e+003,1.272571e-002
2.653614e+003,1.291165e-002
2.655542e+003,1.302993e-002
2.657471e+003,1.310155e-002
2.659399e+003,1.315629e-002
2.661328e+003,1.311120e-002
2.663256e+003,1.290168e-002
2.665185e+003,1.271583e-002
2.667114e+003,1.267633e-002
2.669042e+003,1.259148e-002
2.670970e+003,1.242463e-002
2.672899e+003,1.228911e-002
2.674827e+003,1.215138e-002
2.676756e+003,1.195508e-002
2.678685e+003,1.186270e-002
2.680613e+003,1.184665e-002
2.682542e+003,1.182497e-002
2.684470e+003,1.175717e-002
2.686398e+003,1.168533e-002
2.688327e+003,1.154804e-002
2.690255e+003,1.142831e-002
2.692184e+003,1.133975e-002
2.694113e+003,1.135775e-002
2.696041e+003,1.137115e-002
2.697969e+003,1.135807e-002
2.699898e+003,1.141700e-002
2.701826e+003,1.154229e-002
2.703755e+003,1.168998e-002
2.705683e+003,1.191878e-002
2.707612e+003,1.213682e-002
2.709541e+003,1.225589e-002
2.711469e+003,1.240337e-002
2.713397e+003,1.253825e-002
2.715326e+003,1.267269e-002
2.717254e+003,1.290646e-002
2.719183e+003,1.313873e-002
2.721111e+003,1.332074e-002
2.723040e+003,1.358445e-002
2.724969e+003,1.391643e-002
2.726897e+003,1.423813e-002
2.728825e+003,1.445380e-002
2.730754e+003,1.472667e-002
2.732682e+003,1.495917e-002
2.734611e+003,1.510644e-002
2.736539e+003,1.519680e-002
2.738468e+003,1.527953e-002
2.740396e+003,1.537988e-002
2.742325e+003,1.545842e-002
2.744253e+003,1.547992e-002
2.746182e+003,1.546246e-002
2.748110e+003,1.547983e-002
2.750039e+003,1.554877e-002
2.751967e+003,1.573473e-002
2.753896e+003,1.599185e-002
2.755824e+003,1.625040e-002
2.757753e+003,1.655850e-002
2.759681e+003,1.695767e-002
2.761610e+003,1.739651e-002
2.763538e+003,1.785697e-002
2.765467e+003,1.828408e-002
2.767395e+003,1.869866e-002
2.769324e+003,1.921609e-002
2.771252e+003,1.983140e-002
2.773181e+003,2.057688e-002
2.775109e+003,2.137445e-002
2.777038e+003,2.222134e-002
2.778966e+003,2.305935e-002
2.780895e+003,2.398881e-002
2.782823e+003,2.510406e-002
2.784752e+003,2.633527e-002
2.786680e+003,2.771983e-002
2.788609e+003,2.917968e-002
2.790537e+003,3.066051e-002
2.792466e+003,3.230923e-002
2.794394e+003,3.399917e-002
2.796323e+003,3.572094e-002
2.798251e+003,3.757307e-002
2.800180e+003,3.953677e-002
2.802108e+003,4.158540e-002
2.804037e+003,4.373288e-002
2.805965e+003,4.610007e-002
2.807894e+003,4.883754e-002
2.809822e+003,5.173816e-002
2.811751e+003,5.494000e-002
2.813679e+003,5.860542e-002
2.815608e+003,6.286739e-002
2.817536e+003,6.771706e-002
2.819465e+003,7.345259e-002
2.821393e+003,8.031583e-002
2.823322e+003,8.860603e-002
2.825250e+003,9.879123e-002
2.827179e+003,1.116569e-001
2.829107e+003,1.282629e-001
2.831036e+003,1.502552e-001
2.832964e+003,1.803386e-001
2.834893e+003,2.227363e-001
2.836821e+003,2.826566e-001
2.838750e+003,3.685276e-001
2.840678e+003,4.940541e-001
2.842607e+003,6.760529e-001
2.844535e+003,9.188288e-001
2.846464e+003,1.153840e+000
2.848392e+003,1.182671e+000
2.850321e+003,9.689987e-001
2.852249e+003,7.259109e-001
2.854178e+003,5.504628e-001
2.856106e+003,4.291388e-001
2.858035e+003,3.420848e-001
2.859963e+003,2.793444e-001
2.861892e+003,2.350760e-001
2.863820e+003,2.054816e-001
2.865749e+003,1.877980e-001
2.867677e+003,1.794938e-001
2.869606e+003,1.774316e-001
2.871534e+003,1.787568e-001
2.873463e+003,1.827817e-001
2.875391e+003,1.907067e-001
2.877320e+003,2.038034e-001
2.879248e+003,2.221652e-001
2.881177e+003,2.449264e-001
2.883105e+003,2.712525e-001
2.885034e+003,3.003882e-001
2.886962e+003,3.316869e-001
2.888891e+003,3.644108e-001
2.890819e+003,3.977358e-001
2.892748e+003,4.310488e-001
2.894676e+003,4.640618e-001
2.896605e+003,4.974264e-001
2.898533e+003,5.324334e-001
2.900462e+003,5.713515e-001
2.902390e+003,6.180723e-001
2.904319e+003,6.778665e-001
2.906247e+003,7.583910e-001
2.908176e+003,8.688130e-001
2.910104e+003,1.017199e+000
2.912033e+003,1.198158e+000
2.913961e+003,1.359184e+000
2.915890e+003,1.396303e+000
2.917818e+003,1.276121e+000
2.919747e+003,1.089141e+000
2.921675e+003,9.127255e-001
2.923604e+003,7.670889e-001
2.925532e+003,6.496106e-001
2.927461e+003,5.529948e-001
2.929389e+003,4.711989e-001
2.931318e+003,4.010029e-001
2.933246e+003,3.406094e-001
2.935175e+003,2.886932e-001
2.937103e+003,2.444174e-001
2.939032e+003,2.068556e-001
2.940960e+003,1.754858e-001
2.942889e+003,1.501325e-001
2.944817e+003,1.305795e-001
2.946746e+003,1.167381e-001
2.948674e+003,1.081061e-001
2.950603e+003,1.034344e-001
2.952531e+003,1.006263e-001
2.954460e+003,9.769648e-002
2.956388e+003,9.385590e-002
2.958317e+003,8.891353e-002
2.960245e+003,8.288914e-002
2.962174e+003,7.589240e-002
2.964102e+003,6.832442e-002
2.966031e+003,6.059808e-002
2.967959e+003,5.312628e-002
2.969888e+003,4.622634e-002
2.971816e+003,4.020786e-002
2.973745e+003,3.513826e-002
2.975673e+003,3.090727e-002
2.977602e+003,2.733579e-002
2.979530e+003,2.446552e-002
2.981459e+003,2.212532e-002
2.983387e+003,2.021839e-002
2.985316e+003,1.861267e-002
2.987244e+003,1.726566e-002
2.989173e+003,1.611224e-002
2.991101e+003,1.516786e-002
2.993030e+003,1.431869e-002
2.994958e+003,1.369138e-002
2.996887e+003,1.325782e-002
2.998815e+003,1.293202e-002
3.000744e+003,1.255180e-002
3.002672e+003,1.213208e-002
3.004601e+003,1.176718e-002
3.006529e+003,1.138657e-002
3.008458e+003,1.088630e-002
3.010386e+003,1.045951e-002
3.012315e+003,1.003672e-002
3.014243e+003,9.582311e-003
3.016172e+003,9.164274e-003
3.018100e+003,8.788601e-003
3.020029e+003,8.442074e-003
3.021957e+003,8.168146e-003
3.023886e+003,7.926628e-003
3.025814e+003,7.691771e-003
3.027743e+003,7.437542e-003
3.029671e+003,7.208303e-003
3.031600e+003,6.857976e-003
3.033528e+003,6.562635e-003
3.035457e+003,6.322712e-003
3.037385e+003,6.103784e-003
3.039314e+003,5.924851e-003
3.041242e+003,5.629897e-003
3.043171e+003,5.330652e-003
3.045099e+003,5.029738e-003
3.047028e+003,4.760146e-003
3.048956e+003,4.576519e-003
3.050885e+003,4.413128e-003
3.052813e+003,4.249290e-003
3.054742e+003,4.077777e-003
3.056670e+003,3.877401e-003
3.058599e+003,3.699899e-003
3.060527e+003,3.646463e-003
3.062456e+003,3.537446e-003
3.064384e+003,3.405899e-003
3.066313e+003,3.405124e-003
3.068241e+003,3.386423e-003
3.070170e+003,3.178746e-003
3.072098e+003,3.040373e-003
3.074027e+003,3.006086e-003
3.075955e+003,2.932176e-003
3.077884e+003,2.794787e-003
3.079812e+003,2.721578e-003
3.081741e+003,2.643451e-003
3.083669e+003,2.521798e-003
3.085598e+003,2.383605e-003
3.087526e+003,2.206922e-003
3.089455e+003,1.930043e-003
3.091383e+003,1.706392e-003
3.093312e+003,1.539961e-003
3.095240e+003,1.373783e-003
3.097169e+003,1.121044e-003
3.099097e+003,9.092242e-004
3.101026e+003,8.383095e-004
3.102954e+003,7.207245e-004
3.104883e+003,6.034970e-004
3.106811e+003,4.785508e-004
3.108740e+003,3.515631e-004
3.110668e+003,2.551228e-004
3.112597e+003,1.640320e-004
3.114525e+003,1.373887e-004
3.116454e+003,9.548664e-005
3.118382e+003,7.227063e-006
3.120311e+003,-9.386241e-005
3.122239e+003,-1.924038e-004
3.124168e+003,-2.237409e-004
3.126096e+003,-1.731217e-004
3.128025e+003,-2.263039e-004
3.129953e+003,-2.372861e-004
3.131882e+003,-2.599061e-004
3.133810e+003,-2.572238e-004
3.135739e+003,-2.627671e-004
3.137667e+003,-2.471656e-004
3.139596e+003,-2.565831e-004
3.141524e+003,-3.041327e-004
3.143453e+003,-3.007650e-004
3.145381e+003,-3.857166e-004
3.147310e+003,-4.613400e-004
3.149238e+003,-3.001243e-004
3.151167e+003,-1.782328e-004
3.153095e+003,-1.859218e-004
3.155024e+003,-1.873970e-004
3.156952e+003,-1.601726e-004
3.158881e+003,-1.094043e-004
3.160809e+003,-1.352280e-004
3.162738e+003,-1.363605e-004
3.164666e+003,-1.139939e-004
3.166594e+003,-1.035482e-004
3.168523e+003,-1.227558e-004
3.170452e+003,-1.030862e-004
3.172380e+003,-4.355609e-005
3.174309e+003,4.909933e-005
3.176237e+003,2.472103e-005
3.178166e+003,-5.391240e-005
3.180094e+003,-3.916025e-005
3.182022e+003,4.580617e-005
3.183951e+003,1.534522e-004
3.185880e+003,2.111197e-004
3.187808e+003,2.510250e-004
3.189737e+003,2.857149e-004
3.191665e+003,2.240539e-004
3.193594e+003,1.496375e-004
3.195522e+003,2.414882e-004
3.197450e+003,2.830476e-004
3.199379e+003,2.714396e-004
3.201308e+003,2.563596e-004
3.203236e+003,2.524555e-004
3.205165e+003,2.511442e-004
3.207093e+003,1.634210e-004
3.209021e+003,1.314729e-004
3.210950e+003,1.459271e-004
3.212878e+003,1.744628e-004
3.214807e+003,2.164096e-004
3.216736e+003,2.847910e-004
3.218664e+003,3.410578e-004
3.220593e+003,3.127605e-004
3.222521e+003,2.486855e-004
3.224449e+003,2.430528e-004
3.226378e+003,3.364235e-004
3.228307e+003,3.945529e-004
3.230235e+003,4.104376e-004
3.232164e+003,4.061759e-004
3.234092e+003,4.482567e-004
3.236021e+003,5.008131e-004
3.237949e+003,5.032122e-004
3.239877e+003,5.669594e-004
3.241806e+003,5.714297e-004
3.243735e+003,5.828887e-004
3.245663e+003,6.524473e-004
3.247592e+003,6.027371e-004
3.249520e+003,6.073415e-004
3.251448e+003,6.492436e-004
3.253377e+003,7.144213e-004
3.255305e+003,7.860810e-004
3.257234e+003,8.566976e-004
3.259163e+003,9.729415e-004
3.261091e+003,1.011446e-003
3.263020e+003,1.011953e-003
3.264948e+003,9.942502e-004
3.266876e+003,1.077965e-003
3.268805e+003,1.220420e-003
3.270733e+003,1.274973e-003
3.272662e+003,1.301870e-003
3.274591e+003,1.303613e-003
3.276519e+003,1.409173e-003
3.278448e+003,1.504898e-003
3.280376e+003,1.428753e-003
3.282304e+003,1.391083e-003
3.284233e+003,1.485601e-003
3.286161e+003,1.598269e-003
3.288090e+003,1.536548e-003
3.290019e+003,1.554683e-003
3.291947e+003,1.579434e-003
3.293875e+003,1.543388e-003
3.295804e+003,1.594976e-003
3.297732e+003,1.704797e-003
3.299661e+003,1.764268e-003
3.301589e+003,1.829445e-003
3.303518e+003,1.852334e-003
3.305447e+003,1.762494e-003
3.307375e+003,1.753062e-003
3.309303e+003,1.762658e-003
3.311232e+003,1.695156e-003
3.313160e+003,1.602441e-003
3.315089e+003,1.588300e-003
3.317018e+003,1.623303e-003
3.318946e+003,1.614600e-003
3.320875e+003,1.677066e-003
3.322803e+003,1.801565e-003
3.324731e+003,1.839384e-003
3.326660e+003,1.877740e-003
3.328588e+003,1.854032e-003
3.330517e+003,1.867682e-003
3.332446e+003,1.830831e-003
3.334374e+003,1.813352e-003
3.336302e+003,1.763016e-003
3.338231e+003,1.744866e-003
3.340159e+003,1.767293e-003
3.342088e+003,1.769722e-003
3.344016e+003,1.798421e-003
3.345945e+003,1.794890e-003
3.347874e+003,1.691237e-003
3.349802e+003,1.675695e-003
3.351730e+003,1.692653e-003
3.353659e+003,1.670733e-003
3.355587e+003,1.624495e-003
3.357516e+003,1.606390e-003
3.359444e+003,1.650140e-003
3.361373e+003,1.728818e-003
3.363302e+003,1.687735e-003
3.365230e+003,1.686841e-003
3.367158e+003,1.796052e-003
3.369087e+003,1.750946e-003
3.371015e+003,1.574978e-003
3.372944e+003,1.602590e-003
3.374872e+003,1.617074e-003
3.376801e+003,1.611486e-003
3.378729e+003,1.580924e-003
3.380658e+003,1.551062e-003
3.382586e+003,1.498163e-003
3.384515e+003,1.484811e-003
3.386443e+003,1.491085e-003
3.388372e+003,1.446128e-003
3.390300e+003,1.496434e-003
3.392229e+003,1.450032e-003
3.394157e+003,1.397252e-003
3.396086e+003,1.360938e-003
3.398014e+003,1.311451e-003
3.399943e+003,1.302227e-003
3.401871e+003,1.265183e-003
3.403800e+003,1.239091e-003
3.405728e+003,1.217261e-003
3.407657e+003,1.213595e-003
3.409585e+003,1.191989e-003
3.411514e+003,1.114205e-003
3.413442e+003,1.091480e-003
3.415371e+003,1.133412e-003
3.417299e+003,1.089483e-003
3.419228e+003,1.093864e-003
3.421156e+003,1.070708e-003
3.423085e+003,9.367615e-004
3.425013e+003,8.899122e-004
3.426942e+003,9.253770e-004
3.428870e+003,9.353906e-004
3.430799e+003,1.049682e-003
3.432727e+003,1.000628e-003
3.434656e+003,9.064823e-004
3.436584e+003,8.678883e-004
3.438513e+003,8.883774e-004
3.440441e+003,9.672791e-004
3.442370e+003,1.077339e-003
3.444298e+003,1.005590e-003
3.446227e+003,8.280724e-004
3.448155e+003,7.840246e-004
3.450084e+003,8.482039e-004
3.452012e+003,8.169562e-004
3.453941e+003,7.517934e-004
3.455869e+003,6.154329e-004
3.457798e+003,5.485564e-004
3.459726e+003,4.801899e-004
3.461655e+003,4.037768e-004
3.463583e+003,3.444999e-004
3.465512e+003,3.137439e-004
3.467440e+003,3.788322e-004
3.469369e+003,4.678369e-004
3.471297e+003,4.410595e-004
3.473226e+003,2.895594e-004
3.475154e+003,2.686083e-004
3.477083e+003,2.970695e-004
3.479011e+003,2.625138e-004
3.480940e+003,2.787113e-004
3.482868e+003,3.106892e-004
3.484797e+003,1.270473e-004
3.486725e+003,2.153218e-005
3.488654e+003,1.313686e-004
3.490582e+003,1.510531e-004
3.492511e+003,2.950430e-005
3.494439e+003,2.384186e-007
3.496368e+003,1.266897e-004
3.498296e+003,2.324581e-005
3.500225e+003,-1.087636e-004
3.502153e+003,7.775426e-005
3.504082e+003,1.326799e-004
3.506010e+003,-2.316236e-004
3.507939e+003,-3.302097e-004
3.509867e+003,-9.015203e-005
3.511796e+003,8.076429e-006
3.513724e+003,-1.610965e-004
3.515653e+003,-3.167242e-004
3.517581e+003,-2.684742e-004
3.519510e+003,-2.540201e-004
3.521438e+003,-3.277510e-004
3.523367e+003,-1.680255e-004
3.525295e+003,-2.453178e-004
3.527224e+003,-4.402548e-004
3.529152e+003,-4.431605e-004
3.531081e+003,-4.772544e-004
3.533009e+003,-4.598051e-004
3.534938e+003,-3.222078e-004
3.536866e+003,-4.583001e-004
3.538795e+003,-6.602854e-004
3.540723e+003,-7.154793e-004
3.542652e+003,-7.632226e-004
3.544580e+003,-6.242841e-004
3.546509e+003,-4.964471e-004
3.548437e+003,-6.792843e-004
3.550366e+003,-6.227791e-004
3.552294e+003,-3.896952e-004
3.554223e+003,-4.076213e-004
3.556151e+003,-5.871207e-004
3.558080e+003,-7.603317e-004
3.560008e+003,-6.999075e-004
3.561937e+003,-7.723868e-004
3.563865e+003,-9.048283e-004
3.565794e+003,-3.423244e-004
3.567722e+003,3.437698e-005
3.569651e+003,-7.334948e-004
3.571579e+003,-1.099333e-003
3.573508e+003,-8.417219e-004
3.575436e+003,-6.064475e-004
3.577365e+003,-9.099394e-004
3.579293e+003,-1.208380e-003
3.581222e+003,-8.641630e-004
3.583150e+003,-7.572770e-004
3.585079e+003,-9.217858e-004
3.587007e+003,-2.052188e-004
3.588936e+003,-4.619360e-005
3.590864e+003,-5.365610e-004
3.592793e+003,-3.611743e-004
3.594721e+003,3.305525e-004
3.596650e+003,4.551262e-004
3.598578e+003,4.278719e-004
3.600507e+003,7.770658e-004
3.602435e+003,1.159474e-003
3.604364e+003,1.129597e-003
3.606292e+003,1.309931e-003
3.608221e+003,1.499727e-003
3.610149e+003,8.316040e-004
3.612078e+003,6.115139e-004
3.614006e+003,8.098632e-004
3.615935e+003,4.471540e-004
3.617863e+003,2.575517e-004
3.619792e+003,3.100038e-004
3.621720e+003,5.990267e-006
3.623649e+003,-2.684295e-004
3.625577e+003,-5.061030e-004
3.627506e+003,-1.806319e-004
3.629434e+003,3.617257e-004
3.631363e+003,-2.925694e-004
3.633291e+003,-1.524389e-004
3.635220e+003,2.142191e-004
3.637148e+003,3.084838e-004
3.639077e+003,1.504123e-004
3.641005e+003,-1.011789e-005
3.642934e+003,9.037554e-005
3.644862e+003,1.188368e-004
3.646791e+003,6.366819e-004
3.648719e+003,1.506329e-003
3.650648e+003,1.153558e-003
3.652576e+003,-3.938377e-004
3.654505e+003,-5.675852e-004
3.656433e+003,6.987154e-005
3.658362e+003,-3.155917e-004
3.660290e+003,-7.517934e-004
3.662219e+003,-6.131679e-004
3.664147e+003,-4.396886e-004
3.666076e+003,-4.834980e-004
3.668004e+003,-3.679097e-004
3.669933e+003,2.690852e-004
3.671861e+003,-3.090501e-004
3.673790e+003,2.235174e-005
3.675718e+003,1.825035e-003
3.677647e+003,5.461127e-004
3.679575e+003,-6.164908e-004
3.681504e+003,-9.497106e-004
3.683432e+003,-7.951111e-004
3.685361e+003,-7.424802e-004
3.687289e+003,-9.982288e-005
3.689218e+003,5.793869e-004
3.691146e+003,-2.321601e-004
3.693075e+003,-8.395165e-004
3.695003e+003,-6.988943e-004
3.696932e+003,-2.903193e-004
3.698860e+003,-2.757013e-004
3.700789e+003,-1.813620e-004
3.702717e+003,-4.626513e-004
3.704646e+003,-7.069260e-004
3.706574e+003,-5.214661e-004
3.708503e+003,2.151728e-004
3.710431e+003,9.011030e-004
3.712360e+003,4.055500e-004
3.714288e+003,-6.138384e-004
3.716217e+003,-1.067996e-003
3.718145e+003,-6.658137e-004
3.720074e+003,-1.063347e-004
3.722002e+003,1.975000e-004
3.723931e+003,4.483759e-005
3.725859e+003,-1.146197e-004
3.727788e+003,-2.945811e-004
3.729716e+003,-2.979934e-004
3.731645e+003,2.325177e-004
3.733573e+003,1.028433e-003
3.735502e+003,1.065105e-003
3.737430e+003,3.410131e-004
3.739359e+003,2.349913e-004
3.741287e+003,-1.063794e-004
3.743216e+003,5.317628e-004
3.745144e+003,1.126409e-003
3.747073e+003,1.090169e-004
3.749001e+003,1.609325e-006
3.750930e+003,1.363307e-003
3.752858e+003,1.210481e-003
3.754787e+003,2.047569e-004
3.756715e+003,-1.033247e-004
3.758644e+003,-6.188452e-005
3.760572e+003,-1.766980e-004
3.762501e+003,-5.818903e-004
3.764429e+003,-2.285540e-004
3.766358e+003,1.355857e-004
3.768286e+003,9.864569e-006
3.770215e+003,1.052320e-004
3.772143e+003,-1.652241e-004
3.774072e+003,-3.405958e-004
3.776000e+003,-3.451109e-004
3.777929e+003,-2.668500e-004
3.779857e+003,1.010299e-005
3.781786e+003,-2.470613e-004
3.783714e+003,-1.065135e-004
3.785643e+003,2.350956e-004
3.787571e+003,6.034970e-005
3.789500e+003,-1.926720e-005
3.791428e+003,-2.924502e-004
3.793357e+003,-6.535798e-004
3.795285e+003,4.990399e-005
3.797214e+003,2.492070e-004
3.799142e+003,-7.633865e-005
3.801071e+003,1.056865e-003
3.802999e+003,9.993315e-004
3.804927e+003,3.968328e-004
3.806856e+003,6.876737e-004
3.808785e+003,3.886968e-004
3.810713e+003,1.012385e-004
3.812642e+003,-1.683831e-006
3.814570e+003,6.369650e-004
3.816499e+003,1.177222e-003
3.818427e+003,5.564094e-004
3.820355e+003,1.141161e-003
3.822284e+003,1.577765e-003
3.824213e+003,8.567274e-004
3.826141e+003,7.641315e-004
3.828070e+003,6.972104e-004
3.829998e+003,3.979653e-004
3.831927e+003,1.347959e-004
3.833855e+003,4.745424e-004
3.835783e+003,1.038611e-003
3.837712e+003,2.008408e-003
3.839641e+003,2.090350e-003
3.841569e+003,1.255065e-003
3.843498e+003,9.189546e-004
3.845426e+003,5.461276e-004
3.847354e+003,4.564375e-004
3.849283e+003,8.359402e-004
3.851211e+003,1.550496e-003
3.853140e+003,4.055738e-003
3.855069e+003,2.528563e-003
3.856997e+003,1.109183e-003
3.858926e+003,8.965284e-004
3.860854e+003,1.086488e-003
3.862782e+003,1.152039e-003
3.864711e+003,1.504406e-003
3.866640e+003,1.127884e-003
3.868568e+003,1.657069e-003
3.870497e+003,1.976654e-003
3.872425e+003,1.436293e-003
3.874354e+003,1.382187e-003
3.876282e+003,8.011609e-004
3.878210e+003,6.710440e-004
3.880139e+003,1.492962e-003
3.882068e+003,1.117676e-003
3.883996e+003,8.738935e-004
3.885925e+003,1.576856e-003
3.887853e+003,1.083538e-003
3.889781e+003,9.866953e-004
3.891710e+003,1.572028e-003
3.893638e+003,1.125887e-003
3.895567e+003,4.321486e-004
3.897496e+003,7.721782e-004
3.899424e+003,1.680493e-003
3.901353e+003,1.805276e-003
3.903281e+003,1.776293e-003
3.905209e+003,1.453564e-003
3.907138e+003,9.956509e-004
3.909066e+003,6.244034e-004
3.910995e+003,7.713884e-004
3.912924e+003,7.990152e-004
3.914852e+003,8.094907e-004
3.916781e+003,1.088277e-003
3.918709e+003,1.323819e-003
3.920637e+003,1.149043e-003
3.922566e+003,8.959323e-004
3.924494e+003,1.108229e-003
3.926423e+003,1.030102e-003
3.928352e+003,8.793920e-004
3.930280e+003,1.078546e-003
3.932208e+003,1.300991e-003
3.934137e+003,9.149611e-004
3.936065e+003,6.291568e-004
3.937994e+003,6.998926e-004
3.939922e+003,6.912947e-004
3.941851e+003,8.541346e-004
3.943780e+003,9.838641e-004
3.945708e+003,8.368194e-004
3.947636e+003,8.803457e-004
3.949565e+003,1.003847e-003
3.951493e+003,8.292496e-004
3.953422e+003,6.828606e-004
3.955351e+003,7.008612e-004
3.957279e+003,6.815046e-004
3.959208e+003,5.699992e-004
3.961136e+003,6.458014e-004
3.963064e+003,7.304996e-004
3.964993e+003,6.826818e-004
3.966921e+003,6.137192e-004
3.968850e+003,5.299449e-004
3.970779e+003,4.925430e-004
3.972707e+003,4.455447e-004
3.974635e+003,6.017089e-004
3.976564e+003,7.497817e-004
3.978492e+003,6.164759e-004
3.980421e+003,5.263835e-004
3.982349e+003,6.057918e-004
3.984278e+003,6.414503e-004
3.986207e+003,6.310940e-004
3.988135e+003,6.722808e-004
3.990063e+003,6.958693e-004
3.991992e+003,6.914288e-004
3.993920e+003,7.266253e-004
3.995849e+003,7.773042e-004
3.997777e+003,7.779449e-004
3.999706e+003,8.090734e-004
4.001635e+003,0.000000e+000
