3.991992e+002,0.000000e+000
4.011277e+002,0.000000e+000
4.030562e+002,0.000000e+000
4.049846e+002,0.000000e+000
4.069131e+002,0.000000e+000
4.088416e+002,0.000000e+000
4.107701e+002,0.000000e+000
4.126986e+002,0.000000e+000
4.146271e+002,0.000000e+000
4.165556e+002,0.000000e+000
4.184841e+002,0.000000e+000
4.204126e+002,0.000000e+000
4.223411e+002,0.000000e+000
4.242697e+002,0.000000e+000
4.261982e+002,0.000000e+000
4.281266e+002,0.000000e+000
4.300551e+002,0.000000e+000
4.319836e+002,0.000000e+000
4.339121e+002,0.000000e+000
4.358406e+002,0.000000e+000
4.377691e+002,0.000000e+000
4.396976e+002,0.000000e+000
4.416261e+002,0.000000e+000
4.435546e+002,0.000000e+000
4.454831e+002,0.000000e+000
4.474116e+002,0.000000e+000
4.493401e+002,0.000000e+000
4.512686e+002,0.000000e+000
4.531971e+002,0.000000e+000
4.551256e+002,0.000000e+000
4.570541e+002,0.000000e+000
4.589826e+002,0.000000e+000
4.609111e+002,0.000000e+000
4.628396e+002,0.000000e+000
4.647681e+002,0.000000e+000
4.666966e+002,0.000000e+000
4.686251e+002,0.000000e+000
4.705536e+002,0.000000e+000
4.724821e+002,0.000000e+000
4.744106e+002,0.000000e+000
4.763391e+002,0.000000e+000
4.782676e+002,0.000000e+000
4.801961e+002,0.000000e+000
4.821246e+002,0.000000e+000
4.840531e+002,0.000000e+000
4.859816e+002,0.000000e+000
4.879101e+002,0.000000e+000
4.898386e+002,0.000000e+000
4.917671e+002,0.000000e+000
4.936956e+002,0.000000e+000
4.956241e+002,0.000000e+000
4.975526e+002,0.000000e+000
4.994811e+002,0.000000e+000
5.014096e+002,0.000000e+000
5.033381e+002,0.000000e+000
5.052666e+002,0.000000e+000
5.071951e+002,0.000000e+000
5.091236e+002,0.000000e+000
5.110521e+002,0.000000e+000
5.129806e+002,0.000000e+000
5.149091e+002,0.000000e+000
5.168376e+002,0.000000e+000
5.187661e+002,0.000000e+000
5.206946e+002,0.000000e+000
5.226230e+002,0.000000e+000
5.245516e+002,3.371574e-005
5.264800e+002,-6.455183e-005
5.284086e+002,-1.296960e-005
5.303370e+002,-9.961240e-005
5.322656e+002,-5.484000e-005
5.341940e+002,-2.052076e-005
5.361226e+002,-2.003834e-005
5.380510e+002,-6.167032e-005
5.399796e+002,2.330169e-006
5.419081e+002,6.513670e-006
5.438365e+002,1.264624e-004
5.457650e+002,2.026726e-004
5.476935e+002,1.153741e-004
5.496221e+002,-1.474656e-005
5.515505e+002,-4.053116e-006
5.534790e+002,1.252964e-004
5.554075e+002,2.516359e-004
5.573361e+002,1.521427e-004
5.592645e+002,2.135150e-005
5.611931e+002,-2.450123e-005
5.631215e+002,3.942475e-005
5.650500e+002,4.561245e-005
5.669785e+002,1.031887e-004
5.689070e+002,1.447462e-004
5.708355e+002,5.543418e-005
5.727640e+002,-7.278658e-005
5.746925e+002,-5.757064e-005
5.766210e+002,-7.351674e-005
5.785495e+002,-1.340527e-004
5.804780e+002,-2.019592e-004
5.824065e+002,-1.176745e-004
5.843350e+002,-6.114505e-005
5.862635e+002,-5.187653e-005
5.881920e+002,-6.481446e-005
5.901205e+002,-3.857166e-005
5.920490e+002,3.531575e-006
5.939775e+002,6.498024e-005
5.959060e+002,4.910119e-005
5.978345e+002,1.567584e-004
5.997630e+002,2.007708e-004
6.016915e+002,1.420639e-004
6.036200e+002,1.115464e-004
6.055485e+002,2.231859e-004
6.074770e+002,2.761427e-004
6.094055e+002,1.818370e-004
6.113340e+002,8.476339e-005
6.132625e+002,1.287684e-004
6.151910e+002,4.916452e-005
6.171195e+002,7.966347e-005
6.190480e+002,2.280623e-004
6.209765e+002,3.430992e-004
6.229050e+002,2.806243e-004
6.248335e+002,3.611017e-004
6.267620e+002,4.564393e-004
6.286905e+002,4.737601e-004
6.306190e+002,4.034080e-004
6.325475e+002,5.011652e-004
6.344760e+002,5.782899e-004
6.364045e+002,6.508976e-004
6.383330e+002,5.980954e-004
6.402615e+002,6.451402e-004
6.421899e+002,6.570090e-004
6.441185e+002,7.248688e-004
6.460470e+002,7.294659e-004
6.479755e+002,8.046795e-004
6.499039e+002,8.523241e-004
6.518325e+002,8.734018e-004
6.537610e+002,7.881075e-004
6.556895e+002,8.103531e-004
6.576179e+002,9.213686e-004
6.595464e+002,1.061609e-003
6.614750e+002,1.030767e-003
6.634034e+002,1.021557e-003
6.653319e+002,1.108773e-003
6.672604e+002,1.345959e-003
6.691890e+002,1.310352e-003
6.711174e+002,1.356117e-003
6.730460e+002,1.470042e-003
6.749745e+002,1.614152e-003
6.769030e+002,1.642166e-003
6.788314e+002,1.757899e-003
6.807599e+002,1.919601e-003
6.826885e+002,2.160627e-003
6.846169e+002,2.330497e-003
6.865454e+002,2.521388e-003
6.884739e+002,2.702024e-003
6.904025e+002,3.015669e-003
6.923309e+002,3.312560e-003
6.942594e+002,3.678560e-003
6.961879e+002,4.157942e-003
6.981165e+002,4.994828e-003
7.000449e+002,5.894190e-003
7.019734e+002,7.154215e-003
7.039019e+002,8.711550e-003
7.058304e+002,1.088834e-002
7.077589e+002,1.383566e-002
7.096874e+002,1.833382e-002
7.116159e+002,2.540204e-002
7.135444e+002,3.848313e-002
7.154729e+002,6.216394e-002
7.174014e+002,9.593062e-002
7.193299e+002,1.098356e-001
7.212584e+002,8.130483e-002
7.231869e+002,5.361096e-002
7.251154e+002,4.378549e-002
7.270439e+002,4.773446e-002
7.289724e+002,6.278497e-002
7.309009e+002,6.077915e-002
7.328294e+002,3.498483e-002
7.347579e+002,1.752817e-002
7.366864e+002,1.141868e-002
7.386149e+002,8.952465e-003
7.405434e+002,7.446591e-003
7.424719e+002,6.527008e-003
7.444004e+002,5.829768e-003
7.463289e+002,5.269989e-003
7.482574e+002,4.830880e-003
7.501859e+002,4.568791e-003
7.521144e+002,4.238028e-003
7.540428e+002,3.960418e-003
7.559714e+002,3.695583e-003
7.578999e+002,3.478236e-003
7.598284e+002,3.230460e-003
7.617568e+002,3.060849e-003
7.636854e+002,2.914362e-003
7.656139e+002,2.831515e-003
7.675424e+002,2.706237e-003
7.694709e+002,2.579939e-003
7.713994e+002,2.478562e-003
7.733279e+002,2.397610e-003
7.752563e+002,2.248487e-003
7.771849e+002,2.169928e-003
7.791134e+002,2.113704e-003
7.810419e+002,2.129905e-003
7.829703e+002,2.165921e-003
7.848989e+002,2.158292e-003
7.868274e+002,2.131898e-003
7.887559e+002,2.126934e-003
7.906843e+002,2.032047e-003
7.926129e+002,1.995059e-003
7.945414e+002,2.024435e-003
7.964698e+002,2.040591e-003
7.983983e+002,2.038389e-003
8.003268e+002,2.048187e-003
8.022554e+002,1.981776e-003
8.041838e+002,1.974965e-003
8.061123e+002,1.966860e-003
8.080408e+002,1.889136e-003
8.099694e+002,1.784021e-003
8.118978e+002,1.719644e-003
8.138263e+002,1.689348e-003
8.157548e+002,1.671286e-003
8.176833e+002,1.593864e-003
8.196118e+002,1.513246e-003
8.215403e+002,1.462040e-003
8.234689e+002,1.434328e-003
8.253973e+002,1.455322e-003
8.273258e+002,1.412552e-003
8.292543e+002,1.350647e-003
8.311829e+002,1.366235e-003
8.331113e+002,1.359966e-003
8.350398e+002,1.317307e-003
8.369683e+002,1.310617e-003
8.388969e+002,1.346026e-003
8.408253e+002,1.382437e-003
8.427538e+002,1.394510e-003
8.446823e+002,1.411907e-003
8.466108e+002,1.448046e-003
8.485393e+002,1.574479e-003
8.504678e+002,1.570195e-003
8.523963e+002,1.512360e-003
8.543248e+002,1.504339e-003
8.562533e+002,1.540139e-003
8.581818e+002,1.583565e-003
8.601103e+002,1.549710e-003
8.620388e+002,1.520440e-003
8.639673e+002,1.553271e-003
8.658958e+002,1.573496e-003
8.678243e+002,1.590349e-003
8.697528e+002,1.617551e-003
8.716813e+002,1.702044e-003
8.736098e+002,1.728866e-003
8.755383e+002,1.754235e-003
8.774668e+002,1.803912e-003
8.793953e+002,1.818832e-003
8.813238e+002,1.800109e-003
8.832523e+002,1.850896e-003
8.851808e+002,1.944188e-003
8.871093e+002,2.072997e-003
8.890378e+002,2.129406e-003
8.909663e+002,2.096158e-003
8.928948e+002,2.007294e-003
8.948232e+002,1.909804e-003
8.967518e+002,1.854584e-003
8.986803e+002,1.860309e-003
9.006088e+002,1.879357e-003
9.025372e+002,2.054006e-003
9.044658e+002,2.325062e-003
9.063943e+002,2.687141e-003
9.083228e+002,2.920639e-003
9.102512e+002,2.780590e-003
9.121797e+002,2.379376e-003
9.141083e+002,2.046812e-003
9.160367e+002,1.827519e-003
9.179653e+002,1.748946e-003
9.198937e+002,1.704041e-003
9.218223e+002,1.680084e-003
9.237507e+002,1.665693e-003
9.256793e+002,1.631442e-003
9.276077e+002,1.608204e-003
9.295363e+002,1.626555e-003
9.314647e+002,1.646943e-003
9.333932e+002,1.625150e-003
9.353217e+002,1.646571e-003
9.372502e+002,1.713805e-003
9.391787e+002,1.710773e-003
9.411072e+002,1.743630e-003
9.430358e+002,1.755994e-003
9.449642e+002,1.756884e-003
9.468928e+002,1.721080e-003
9.488212e+002,1.788516e-003
9.507498e+002,1.877096e-003
9.526782e+002,1.901757e-003
9.546068e+002,1.947556e-003
9.565352e+002,2.024915e-003
9.584637e+002,2.113033e-003
9.603922e+002,2.248436e-003
9.623207e+002,2.350431e-003
9.642492e+002,2.418749e-003
9.661777e+002,2.409074e-003
9.681062e+002,2.401203e-003
9.700347e+002,2.406836e-003
9.719632e+002,2.419863e-003
9.738917e+002,2.379145e-003
9.758202e+002,2.412770e-003
9.777487e+002,2.439093e-003
9.796772e+002,2.496321e-003
9.816057e+002,2.623577e-003
9.835342e+002,2.750829e-003
9.854627e+002,2.851404e-003
9.873912e+002,3.032602e-003
9.893197e+002,3.194321e-003
9.912482e+002,3.261246e-003
9.931767e+002,3.267124e-003
9.951052e+002,3.344934e-003
9.970337e+002,3.410362e-003
9.989622e+002,3.455054e-003
1.000891e+003,3.531683e-003
1.002819e+003,3.656756e-003
1.004748e+003,3.746826e-003
1.006676e+003,3.886707e-003
1.008605e+003,4.011955e-003
1.010533e+003,4.188269e-003
1.012462e+003,4.340626e-003
1.014390e+003,4.519977e-003
1.016319e+003,4.684865e-003
1.018247e+003,4.878491e-003
1.020176e+003,5.012404e-003
1.022104e+003,5.135179e-003
1.024033e+003,5.238958e-003
1.025961e+003,5.352177e-003
1.027890e+003,5.417172e-003
1.029818e+003,5.481165e-003
1.031747e+003,5.506512e-003
1.033675e+003,5.584851e-003
1.035604e+003,5.648907e-003
1.037532e+003,5.673476e-003
1.039461e+003,5.688675e-003
1.041389e+003,5.771600e-003
1.043318e+003,5.805641e-003
1.045246e+003,5.837262e-003
1.047175e+003,5.932074e-003
1.049103e+003,6.137840e-003
1.051032e+003,6.205924e-003
1.052960e+003,6.174244e-003
1.054889e+003,6.135568e-003
1.056817e+003,6.190464e-003
1.058746e+003,6.325971e-003
1.060674e+003,6.492656e-003
1.062603e+003,6.564949e-003
1.064531e+003,6.589744e-003
1.066460e+003,6.559804e-003
1.068388e+003,6.580293e-003
1.070317e+003,6.667808e-003
1.072245e+003,6.897390e-003
1.074174e+003,7.187981e-003
1.076102e+003,7.456008e-003
1.078031e+003,7.579152e-003
1.079959e+003,7.687412e-003
1.081888e+003,7.788498e-003
1.083816e+003,7.842828e-003
1.085745e+003,7.856295e-003
1.087673e+003,7.912911e-003
1.089602e+003,7.932391e-003
1.091530e+003,7.955201e-003
1.093459e+003,7.906724e-003
1.095387e+003,7.901479e-003
1.097316e+003,7.900819e-003
1.099244e+003,7.852066e-003
1.101173e+003,7.683504e-003
1.103101e+003,7.561561e-003
1.105030e+003,7.412389e-003
1.106958e+003,7.273130e-003
1.108887e+003,7.192288e-003
1.110815e+003,7.262681e-003
1.112744e+003,7.308949e-003
1.114672e+003,7.339053e-003
1.116601e+003,7.418297e-003
1.118529e+003,7.474642e-003
1.120458e+003,7.380314e-003
1.122386e+003,7.220779e-003
1.124315e+003,7.040553e-003
1.126243e+003,6.951265e-003
1.128172e+003,6.897110e-003
1.130100e+003,6.981358e-003
1.132029e+003,7.183112e-003
1.133957e+003,7.496893e-003
1.135885e+003,7.815037e-003
1.137814e+003,8.198757e-003
1.139743e+003,8.534472e-003
1.141671e+003,8.846421e-003
1.143600e+003,9.091828e-003
1.145528e+003,9.341598e-003
1.147457e+003,9.609681e-003
1.149385e+003,9.961892e-003
1.151314e+003,1.033418e-002
1.153242e+003,1.077259e-002
1.155171e+003,1.111091e-002
1.157099e+003,1.141647e-002
1.159028e+003,1.162399e-002
1.160956e+003,1.172959e-002
1.162885e+003,1.164549e-002
1.164813e+003,1.148128e-002
1.166742e+003,1.119706e-002
1.168670e+003,1.087636e-002
1.170599e+003,1.046303e-002
1.172527e+003,1.014026e-002
1.174456e+003,9.861376e-003
1.176384e+003,9.592067e-003
1.178313e+003,9.166595e-003
1.180241e+003,8.766778e-003
1.182170e+003,8.488137e-003
1.184098e+003,8.337211e-003
1.186027e+003,8.172929e-003
1.187955e+003,8.053839e-003
1.189884e+003,7.928934e-003
1.191812e+003,7.868983e-003
1.193740e+003,7.825788e-003
1.195669e+003,7.854242e-003
1.197598e+003,7.858500e-003
1.199526e+003,7.891770e-003
1.201455e+003,7.914156e-003
1.203383e+003,8.038934e-003
1.205312e+003,8.162472e-003
1.207240e+003,8.353222e-003
1.209168e+003,8.486308e-003
1.211097e+003,8.650534e-003
1.213026e+003,8.782566e-003
1.214954e+003,8.938860e-003
1.216883e+003,9.074990e-003
1.218811e+003,9.270158e-003
1.220740e+003,9.471986e-003
1.222668e+003,9.757601e-003
1.224596e+003,1.000896e-002
1.226525e+003,1.026595e-002
1.228453e+003,1.045873e-002
1.230382e+003,1.072180e-002
1.232311e+003,1.094620e-002
1.234239e+003,1.111207e-002
1.236167e+003,1.117869e-002
1.238096e+003,1.121186e-002
1.240025e+003,1.114200e-002
1.241953e+003,1.101944e-002
1.243882e+003,1.078465e-002
1.245810e+003,1.058825e-002
1.247739e+003,1.033498e-002
1.249667e+003,1.012697e-002
1.251595e+003,9.920899e-003
1.253524e+003,9.806115e-003
1.255453e+003,9.695515e-003
1.257381e+003,9.623107e-003
1.259310e+003,9.523850e-003
1.261238e+003,9.451743e-003
1.263167e+003,9.304695e-003
1.265095e+003,9.177651e-003
1.267023e+003,8.970063e-003
1.268952e+003,8.841235e-003
1.270880e+003,8.756295e-003
1.272809e+003,8.730184e-003
1.274738e+003,8.705862e-003
1.276666e+003,8.764293e-003
1.278594e+003,8.793235e-003
1.280523e+003,8.837406e-003
1.282451e+003,8.816998e-003
1.284380e+003,8.914910e-003
1.286308e+003,8.963153e-003
1.288237e+003,9.127401e-003
1.290166e+003,9.331759e-003
1.292094e+003,9.655744e-003
1.294022e+003,1.002018e-002
1.295951e+003,1.044110e-002
1.297879e+003,1.075210e-002
1.299808e+003,1.104993e-002
1.301736e+003,1.112895e-002
1.303665e+003,1.114516e-002
1.305594e+003,1.105895e-002
1.307522e+003,1.096169e-002
1.309450e+003,1.071871e-002
1.311379e+003,1.037995e-002
1.313307e+003,9.943936e-003
1.315236e+003,9.599630e-003
1.317164e+003,9.167302e-003
1.319093e+003,8.749969e-003
1.321021e+003,8.256365e-003
1.322950e+003,7.921737e-003
1.324878e+003,7.637333e-003
1.326807e+003,7.509235e-003
1.328735e+003,7.397942e-003
1.330664e+003,7.462900e-003
1.332592e+003,7.652368e-003
1.334521e+003,8.053202e-003
1.336449e+003,8.559454e-003
1.338378e+003,9.380303e-003
1.340306e+003,1.009078e-002
1.342235e+003,1.055625e-002
1.344163e+003,1.097489e-002
1.346092e+003,1.162481e-002
1.348021e+003,1.228921e-002
1.349949e+003,1.298726e-002
1.351877e+003,1.332682e-002
1.353806e+003,1.340095e-002
1.355734e+003,1.325380e-002
1.357663e+003,1.337816e-002
1.359591e+003,1.373784e-002
1.361520e+003,1.452835e-002
1.363448e+003,1.565197e-002
1.365377e+003,1.674348e-002
1.367305e+003,1.743513e-002
1.369234e+003,1.741706e-002
1.371162e+003,1.644370e-002
1.373091e+003,1.545903e-002
1.375019e+003,1.522373e-002
1.376948e+003,1.530172e-002
1.378876e+003,1.368536e-002
1.380805e+003,1.097390e-002
1.382733e+003,8.869085e-003
1.384662e+003,7.889803e-003
1.386590e+003,7.300317e-003
1.388519e+003,7.047273e-003
1.390447e+003,6.747473e-003
1.392376e+003,6.693609e-003
1.394304e+003,6.555393e-003
1.396233e+003,6.657999e-003
1.398161e+003,6.591067e-003
1.400090e+003,6.757423e-003
1.402018e+003,6.695665e-003
1.403947e+003,6.907273e-003
1.405875e+003,6.884504e-003
1.407804e+003,7.062227e-003
1.409732e+003,7.206298e-003
1.411661e+003,7.654533e-003
1.413589e+003,7.894877e-003
1.415518e+003,8.368876e-003
1.417446e+003,8.594766e-003
1.419375e+003,9.364557e-003
1.421303e+003,9.683963e-003
1.423232e+003,1.059030e-002
1.425160e+003,1.195267e-002
1.427089e+003,1.380796e-002
1.429017e+003,1.620710e-002
1.430946e+003,1.979581e-002
1.432874e+003,2.274950e-002
1.434803e+003,2.550079e-002
1.436731e+003,2.843373e-002
1.438660e+003,3.094945e-002
1.440588e+003,3.226749e-002
1.442517e+003,3.413736e-002
1.444445e+003,3.557608e-002
1.446374e+003,3.774595e-002
1.448302e+003,4.098488e-002
1.450231e+003,4.606289e-002
1.452159e+003,5.374906e-002
1.454088e+003,6.374867e-002
1.456016e+003,7.403572e-002
1.457945e+003,9.903227e-002
1.459873e+003,1.424604e-001
1.461802e+003,1.825736e-001
1.463730e+003,1.785452e-001
1.465659e+003,1.377007e-001
1.467587e+003,1.252187e-001
1.469516e+003,1.219225e-001
1.471444e+003,1.375192e-001
1.473373e+003,1.231040e-001
1.475301e+003,6.680790e-002
1.477230e+003,2.933037e-002
1.479158e+003,1.865416e-002
1.481087e+003,1.372726e-002
1.483015e+003,1.143214e-002
1.484944e+003,9.567562e-003
1.486872e+003,9.047665e-003
1.488801e+003,7.751837e-003
1.490729e+003,7.464405e-003
1.492658e+003,6.556265e-003
1.494586e+003,6.611697e-003
1.496515e+003,6.026454e-003
1.498443e+003,6.118089e-003
1.500372e+003,5.537368e-003
1.502300e+003,5.562402e-003
1.504229e+003,5.130071e-003
1.506157e+003,5.823914e-003
1.508086e+003,5.203433e-003
1.510014e+003,5.270917e-003
1.511943e+003,4.945062e-003
1.513871e+003,5.200557e-003
1.515800e+003,5.061340e-003
1.517728e+003,5.370200e-003
1.519657e+003,5.008489e-003
1.521585e+003,5.390286e-003
1.523514e+003,4.896678e-003
1.525442e+003,5.067900e-003
1.527371e+003,4.924327e-003
1.529299e+003,5.059917e-003
1.531228e+003,4.886355e-003
1.533156e+003,5.200729e-003
1.535085e+003,5.076509e-003
1.537013e+003,5.225323e-003
1.538942e+003,5.284980e-003
1.540870e+003,5.947907e-003
1.542799e+003,5.356040e-003
1.544727e+003,5.360983e-003
1.546656e+003,4.947435e-003
1.548584e+003,4.930492e-003
1.550513e+003,4.775431e-003
1.552441e+003,4.720792e-003
1.554370e+003,4.515916e-003
1.556298e+003,4.617397e-003
1.558227e+003,4.486814e-003
1.560155e+003,4.528783e-003
1.562084e+003,3.966477e-003
1.564012e+003,3.929362e-003
1.565941e+003,3.789354e-003
1.567869e+003,3.854129e-003
1.569798e+003,3.761590e-003
1.571726e+003,3.739607e-003
1.573655e+003,3.614560e-003
1.575583e+003,3.865387e-003
1.577512e+003,3.744628e-003
1.579440e+003,3.637474e-003
1.581369e+003,3.535770e-003
1.583297e+003,3.647801e-003
1.585226e+003,3.570970e-003
1.587154e+003,3.598135e-003
1.589083e+003,3.532711e-003
1.591011e+003,3.632169e-003
1.592940e+003,3.608853e-003
1.594868e+003,3.709089e-003
1.596797e+003,3.626861e-003
1.598725e+003,3.646251e-003
1.600654e+003,3.611349e-003
1.602582e+003,3.734585e-003
1.604511e+003,3.663048e-003
1.606439e+003,3.752366e-003
1.608368e+003,3.831677e-003
1.610296e+003,3.976930e-003
1.612225e+003,4.012670e-003
1.614153e+003,4.167881e-003
1.616082e+003,4.343826e-003
1.618010e+003,4.697822e-003
1.619939e+003,4.716512e-003
1.621867e+003,4.978474e-003
1.623796e+003,5.196471e-003
1.625724e+003,5.305216e-003
1.627653e+003,5.394273e-003
1.629581e+003,5.600877e-003
1.631510e+003,5.591061e-003
1.633438e+003,5.740970e-003
1.635367e+003,6.034862e-003
1.637295e+003,6.339535e-003
1.639224e+003,6.257381e-003
1.641152e+003,6.412316e-003
1.643081e+003,6.366715e-003
1.645009e+003,6.403212e-003
1.646938e+003,6.501887e-003
1.648866e+003,6.517731e-003
1.650795e+003,6.244961e-003
1.652723e+003,6.760702e-003
1.654652e+003,6.637264e-003
1.656580e+003,6.278612e-003
1.658509e+003,5.984668e-003
1.660437e+003,5.851947e-003
1.662366e+003,5.684976e-003
1.664294e+003,5.515933e-003
1.666223e+003,5.174827e-003
1.668151e+003,5.159911e-003
1.670080e+003,4.976559e-003
1.672008e+003,4.758235e-003
1.673937e+003,4.512127e-003
1.675865e+003,4.499536e-003
1.677794e+003,4.186917e-003
1.679722e+003,4.106235e-003
1.681651e+003,3.863689e-003
1.683579e+003,3.944233e-003
1.685508e+003,3.682133e-003
1.687436e+003,3.481232e-003
1.689365e+003,3.270872e-003
1.691293e+003,3.228307e-003
1.693222e+003,3.076907e-003
1.695150e+003,3.220778e-003
1.697079e+003,3.236275e-003
1.699007e+003,3.306895e-003
1.700936e+003,3.190648e-003
1.702864e+003,3.053840e-003
1.704793e+003,3.072284e-003
1.706721e+003,3.295630e-003
1.708650e+003,3.253229e-003
1.710578e+003,3.510617e-003
1.712507e+003,3.680341e-003
1.714435e+003,4.017707e-003
1.716364e+003,4.334979e-003
1.718292e+003,4.807588e-003
1.720221e+003,4.701566e-003
1.722149e+003,4.765656e-003
1.724078e+003,4.968353e-003
1.726006e+003,5.341657e-003
1.727935e+003,5.753852e-003
1.729863e+003,6.567340e-003
1.731792e+003,7.253531e-003
1.733720e+003,8.735370e-003
1.735649e+003,1.010413e-002
1.737577e+003,1.091301e-002
1.739506e+003,1.269420e-002
1.741434e+003,1.445600e-002
1.743363e+003,1.585253e-002
1.745291e+003,1.696393e-002
1.747220e+003,1.721385e-002
1.749148e+003,1.652007e-002
1.751077e+003,1.455982e-002
1.753005e+003,1.202193e-002
1.754934e+003,9.857461e-003
1.756862e+003,7.440515e-003
1.758791e+003,5.404189e-003
1.760719e+003,4.140913e-003
1.762648e+003,2.841599e-003
1.764576e+003,2.027042e-003
1.766505e+003,1.516417e-003
1.768433e+003,1.276501e-003
1.770362e+003,9.876192e-004
1.772290e+003,1.010679e-003
1.774219e+003,6.210431e-004
1.776147e+003,4.655942e-004
1.778076e+003,4.123971e-004
1.780004e+003,5.551577e-004
1.781933e+003,4.123971e-004
1.783861e+003,3.819913e-004
1.785790e+003,2.612844e-004
1.787718e+003,1.612380e-004
1.789646e+003,7.230788e-005
1.791575e+003,2.389327e-004
1.793504e+003,1.616031e-004
1.795432e+003,1.242757e-004
1.797361e+003,3.761053e-005
1.799289e+003,5.520880e-005
1.801218e+003,-1.287609e-004
1.803146e+003,-7.585436e-005
1.805074e+003,-1.518279e-004
1.807003e+003,-1.369938e-004
1.808932e+003,-2.923608e-004
1.810860e+003,-3.271401e-004
1.812789e+003,-4.231334e-004
1.814717e+003,-5.330369e-004
1.816646e+003,-7.504001e-004
1.818574e+003,-5.382448e-004
1.820502e+003,-4.632547e-004
1.822431e+003,-3.568456e-004
1.824360e+003,-4.274845e-004
1.826288e+003,-4.500300e-004
1.828217e+003,-5.669892e-004
1.830145e+003,-3.193319e-004
1.832073e+003,-7.116795e-004
1.834002e+003,-7.610545e-004
1.835931e+003,-8.655116e-004
1.837859e+003,-8.370429e-004
1.839788e+003,-9.427741e-004
1.841716e+003,-8.637309e-004
1.843645e+003,-8.491054e-004
1.845573e+003,-7.231757e-004
1.847501e+003,-8.627176e-004
1.849430e+003,-8.746460e-004
1.851359e+003,-9.664893e-004
1.853287e+003,-7.575750e-004
1.855216e+003,-8.472353e-004
1.857144e+003,-7.339120e-004
1.859073e+003,-7.525310e-004
1.861001e+003,-7.041991e-004
1.862929e+003,-8.146316e-004
1.864858e+003,-5.719364e-004
1.866787e+003,-5.398542e-004
1.868715e+003,-3.274009e-004
1.870644e+003,-6.444603e-004
1.872572e+003,-7.283911e-004
1.874500e+003,-8.021072e-004
1.876429e+003,-6.449893e-004
1.878357e+003,-7.696375e-004
1.880286e+003,-7.352754e-004
1.882215e+003,-8.883253e-004
1.884143e+003,-5.796328e-004
1.886072e+003,-4.959181e-004
1.888000e+003,-2.600998e-004
1.889928e+003,-3.072768e-004
1.891857e+003,-1.332760e-004
1.893785e+003,-2.198890e-004
1.895714e+003,-1.578555e-004
1.897643e+003,-3.356636e-004
1.899571e+003,-1.539961e-004
1.901500e+003,-1.516268e-004
1.903428e+003,-1.492500e-004
1.905356e+003,-1.468882e-004
1.907285e+003,-1.445413e-004
1.909213e+003,-1.421794e-004
1.911142e+003,-1.398325e-004
1.913071e+003,-1.374930e-004
1.914999e+003,-1.351461e-004
1.916927e+003,-1.328140e-004
1.918856e+003,-1.304895e-004
1.920784e+003,-1.281649e-004
1.922713e+003,-1.258478e-004
1.924641e+003,-1.235381e-004
1.926570e+003,-1.212284e-004
1.928499e+003,-1.189262e-004
1.930427e+003,-1.166314e-004
1.932355e+003,-1.143366e-004
1.934284e+003,-1.120418e-004
1.936212e+003,-1.097694e-004
1.938141e+003,-1.074970e-004
1.940070e+003,-1.052171e-004
1.941998e+003,-1.029521e-004
1.943927e+003,-1.006946e-004
1.945855e+003,-9.843707e-005
1.947783e+003,-9.617954e-005
1.949712e+003,-9.392947e-005
1.951640e+003,-9.170175e-005
1.953569e+003,-8.945912e-005
1.955498e+003,-8.722395e-005
1.957426e+003,-8.500367e-005
1.959354e+003,-8.278340e-005
1.961283e+003,-8.057058e-005
1.963211e+003,-7.835031e-005
1.965140e+003,-7.615238e-005
1.967068e+003,-7.395446e-005
1.968997e+003,-7.176399e-005
1.970926e+003,-6.956607e-005
1.972854e+003,-6.738305e-005
1.974782e+003,-6.520748e-005
1.976711e+003,-6.302446e-005
1.978639e+003,-6.084889e-005
1.980568e+003,-5.870312e-005
1.982496e+003,-5.654246e-005
1.984425e+003,-5.438179e-005
1.986354e+003,-5.222857e-005
1.988282e+003,-5.008280e-005
1.990210e+003,-4.794449e-005
1.992139e+003,-4.580617e-005
1.994067e+003,-4.369020e-005
1.995996e+003,-4.156679e-005
1.997924e+003,-3.945082e-005
1.999853e+003,-3.732741e-005
2.001781e+003,-3.521889e-005
2.003710e+003,-3.311783e-005
2.005638e+003,-3.102422e-005
2.007567e+003,-2.892315e-005
2.009495e+003,-2.684444e-005
2.011424e+003,-2.476573e-005
2.013352e+003,-2.267957e-005
2.015281e+003,-2.060831e-005
2.017209e+003,-1.854450e-005
2.019138e+003,-1.648068e-005
2.021066e+003,-1.441687e-005
2.022995e+003,-1.236796e-005
2.024923e+003,-1.032650e-005
2.026852e+003,-8.285046e-006
2.028781e+003,-6.243587e-006
2.030709e+003,-4.209578e-006
2.032637e+003,-2.183020e-006
2.034566e+003,-1.639128e-007
2.036494e+003,1.855195e-006
2.038423e+003,3.859401e-006
2.040351e+003,5.863607e-006
2.042280e+003,7.867813e-006
2.044208e+003,9.864569e-006
2.046137e+003,1.185387e-005
2.048065e+003,1.383573e-005
2.049994e+003,1.582503e-005
2.051922e+003,1.779199e-005
2.053851e+003,1.976639e-005
2.055779e+003,2.173334e-005
2.057708e+003,2.370030e-005
2.059636e+003,2.565235e-005
2.061565e+003,2.759695e-005
2.063493e+003,2.954155e-005
2.065422e+003,3.147125e-005
2.067350e+003,3.341585e-005
2.069279e+003,3.535300e-005
2.071207e+003,3.727525e-005
2.073136e+003,3.919005e-005
2.075064e+003,4.110485e-005
2.076993e+003,4.301220e-005
2.078921e+003,4.491955e-005
2.080850e+003,4.681200e-005
2.082778e+003,4.870445e-005
2.084707e+003,5.059689e-005
2.086635e+003,5.248934e-005
2.088564e+003,5.435944e-005
2.090492e+003,5.623698e-005
2.092421e+003,5.809963e-005
2.094349e+003,5.995482e-005
2.096278e+003,6.181002e-005
2.098206e+003,6.368011e-005
2.100135e+003,6.552041e-005
2.102063e+003,6.736815e-005
2.103992e+003,6.920099e-005
2.105920e+003,7.103384e-005
2.107849e+003,7.285923e-005
2.109777e+003,7.466972e-005
2.111706e+003,7.649511e-005
2.113634e+003,7.831305e-005
2.115563e+003,8.012354e-005
2.117491e+003,8.191913e-005
2.119420e+003,8.372217e-005
2.121348e+003,8.551031e-005
2.123277e+003,8.729100e-005
2.125205e+003,8.907169e-005
2.127134e+003,9.084493e-005
2.129062e+003,9.261817e-005
2.130991e+003,9.439141e-005
2.132919e+003,9.614974e-005
2.134848e+003,9.790808e-005
2.136776e+003,9.965897e-005
2.138705e+003,1.013950e-004
2.140633e+003,1.031384e-004
2.142562e+003,1.048818e-004
2.144490e+003,1.066104e-004
2.146419e+003,1.083314e-004
2.148347e+003,1.100600e-004
2.150276e+003,1.117662e-004
2.152204e+003,1.134723e-004
2.154133e+003,1.151860e-004
2.156061e+003,1.168922e-004
2.157990e+003,1.185834e-004
2.159918e+003,1.202673e-004
2.161847e+003,1.219437e-004
2.163775e+003,1.236275e-004
2.165704e+003,1.252890e-004
2.167632e+003,1.269653e-004
2.169561e+003,1.286268e-004
2.171489e+003,1.302883e-004
2.173418e+003,1.319498e-004
2.175346e+003,1.335964e-004
2.177275e+003,1.352355e-004
2.179203e+003,1.368821e-004
2.181132e+003,1.385063e-004
2.183060e+003,1.401231e-004
2.184989e+003,1.417547e-004
2.186917e+003,1.433790e-004
2.188846e+003,1.449957e-004
2.190774e+003,1.465976e-004
2.192703e+003,1.481995e-004
2.194631e+003,1.497865e-004
2.196560e+003,1.513809e-004
2.198488e+003,1.529679e-004
2.200417e+003,1.545548e-004
2.202345e+003,1.561418e-004
2.204274e+003,1.577139e-004
2.206202e+003,1.592860e-004
2.208131e+003,1.608431e-004
2.210059e+003,1.623929e-004
2.211988e+003,1.639351e-004
2.213916e+003,1.654774e-004
2.215845e+003,1.670271e-004
2.217773e+003,1.685694e-004
2.219702e+003,1.700968e-004
2.221630e+003,1.716316e-004
2.223559e+003,1.731366e-004
2.225487e+003,1.746565e-004
2.227416e+003,1.761690e-004
2.229344e+003,1.776665e-004
2.231273e+003,1.791790e-004
2.233201e+003,1.806766e-004
2.235130e+003,1.821667e-004
2.237058e+003,1.836494e-004
2.238987e+003,1.851246e-004
2.240915e+003,1.865923e-004
2.242844e+003,1.880601e-004
2.244772e+003,1.895353e-004
2.246701e+003,1.909956e-004
2.248629e+003,1.924485e-004
2.250558e+003,1.938939e-004
2.252486e+003,1.953393e-004
2.254415e+003,1.967773e-004
2.256343e+003,1.982152e-004
2.258272e+003,1.996383e-004
2.260200e+003,2.010614e-004
2.262129e+003,2.024919e-004
2.264057e+003,2.038926e-004
2.265986e+003,2.053007e-004
2.267914e+003,2.067015e-004
2.269843e+003,2.081022e-004
2.271771e+003,2.094954e-004
2.273700e+003,2.108812e-004
2.275628e+003,2.122819e-004
2.277557e+003,2.136528e-004
2.279485e+003,2.150312e-004
2.281414e+003,2.163872e-004
2.283342e+003,2.177507e-004
2.285271e+003,2.191067e-004
2.287199e+003,2.204552e-004
2.289128e+003,2.218112e-004
2.291056e+003,2.231449e-004
2.292985e+003,2.244860e-004
2.294913e+003,2.258047e-004
2.296842e+003,2.271384e-004
2.298770e+003,2.284572e-004
2.300699e+003,2.297834e-004
2.302627e+003,2.310947e-004
2.304556e+003,2.324134e-004
2.306484e+003,2.337024e-004
2.308413e+003,2.349988e-004
2.310341e+003,2.362803e-004
2.312270e+003,2.375692e-004
2.314198e+003,2.388507e-004
2.316127e+003,2.401248e-004
2.318055e+003,2.413839e-004
2.319984e+003,2.426654e-004
2.321912e+003,2.439246e-004
2.323841e+003,2.451763e-004
2.325769e+003,2.464205e-004
2.327698e+003,2.476647e-004
2.329626e+003,2.489090e-004
2.331555e+003,2.501458e-004
2.333483e+003,2.513826e-004
2.335412e+003,2.526045e-004
2.337340e+003,2.538264e-004
2.339269e+003,2.550259e-004
2.341197e+003,2.562404e-004
2.343126e+003,2.574399e-004
2.345054e+003,2.586395e-004
2.346983e+003,2.598390e-004
2.348911e+003,2.610311e-004
2.350840e+003,2.622083e-004
2.352768e+003,2.633855e-004
2.354697e+003,2.645627e-004
2.356625e+003,2.657250e-004
2.358554e+003,2.668872e-004
2.360482e+003,2.680421e-004
2.362411e+003,2.691969e-004
2.364339e+003,2.703518e-004
2.366268e+003,2.714917e-004
2.368196e+003,2.726167e-004
2.370125e+003,2.737567e-004
2.372053e+003,2.748817e-004
2.373982e+003,2.760142e-004
2.375910e+003,2.771169e-004
2.377839e+003,2.782568e-004
2.379767e+003,2.793521e-004
2.381696e+003,2.804399e-004
2.383624e+003,2.815351e-004
2.385553e+003,2.826378e-004
2.387481e+003,2.837181e-004
2.389410e+003,2.847984e-004
2.391338e+003,2.858937e-004
2.393267e+003,2.869517e-004
2.395195e+003,2.880096e-004
2.397124e+003,2.890676e-004
2.399052e+003,2.901331e-004
2.400981e+003,3.700405e-004
2.402909e+003,3.949255e-004
2.404838e+003,4.178509e-004
2.406766e+003,5.514696e-004
2.408695e+003,8.736923e-004
2.410623e+003,9.667203e-004
2.412552e+003,1.064330e-003
2.414480e+003,1.042157e-003
2.416409e+003,1.144074e-003
2.418337e+003,1.213506e-003
2.420266e+003,1.172222e-003
2.422194e+003,9.395704e-004
2.424123e+003,1.000412e-003
2.426051e+003,9.970814e-004
2.427979e+003,8.598864e-004
2.429908e+003,6.557405e-004
2.431837e+003,7.379577e-004
2.433765e+003,8.572862e-004
2.435694e+003,8.744821e-004
2.437622e+003,1.017094e-003
2.439551e+003,1.089849e-003
2.441479e+003,1.011990e-003
2.443407e+003,1.014411e-003
2.445336e+003,9.867102e-004
2.447265e+003,1.017727e-003
2.449193e+003,1.047105e-003
2.451122e+003,1.220264e-003
2.453050e+003,1.175500e-003
2.454979e+003,1.067102e-003
2.456907e+003,1.067668e-003
2.458836e+003,1.197204e-003
2.460764e+003,1.113437e-003
2.462693e+003,1.100369e-003
2.464621e+003,1.092337e-003
2.466550e+003,1.102410e-003
2.468478e+003,1.057737e-003
2.470406e+003,1.273833e-003
2.472335e+003,1.419090e-003
2.474264e+003,1.463003e-003
2.476192e+003,1.456156e-003
2.478121e+003,1.633763e-003
2.480049e+003,1.521640e-003
2.481978e+003,1.470201e-003
2.483906e+003,1.665309e-003
2.485835e+003,1.700282e-003
2.487763e+003,1.611479e-003
2.489692e+003,1.640439e-003
2.491620e+003,1.712441e-003
2.493549e+003,1.906253e-003
2.495477e+003,1.894958e-003
2.497406e+003,1.817510e-003
2.499334e+003,1.830414e-003
2.501263e+003,1.931749e-003
2.503191e+003,1.968652e-003
2.505120e+003,2.013549e-003
2.507048e+003,1.939394e-003
2.508977e+003,2.093874e-003
2.510905e+003,2.210617e-003
2.512833e+003,2.342053e-003
2.514762e+003,2.366267e-003
2.516691e+003,2.441138e-003
2.518619e+003,2.343826e-003
2.520548e+003,2.367906e-003
2.522476e+003,2.559483e-003
2.524405e+003,2.834097e-003
2.526333e+003,3.035702e-003
2.528261e+003,3.238983e-003
2.530190e+003,3.271393e-003
2.532119e+003,3.077380e-003
2.534047e+003,3.044263e-003
2.535976e+003,3.064491e-003
2.537904e+003,3.013737e-003
2.539833e+003,3.011525e-003
2.541761e+003,2.964474e-003
2.543689e+003,3.148161e-003
2.545618e+003,3.375746e-003
2.547547e+003,3.580086e-003
2.549475e+003,3.627844e-003
2.551404e+003,3.736421e-003
2.553332e+003,3.867805e-003
2.555260e+003,3.918722e-003
2.557189e+003,4.021592e-003
2.559117e+003,4.151762e-003
2.561046e+003,4.213803e-003
2.562975e+003,4.299641e-003
2.564903e+003,4.432350e-003
2.566832e+003,4.628941e-003
2.568760e+003,4.776411e-003
2.570688e+003,4.881501e-003
2.572617e+003,4.991189e-003
2.574546e+003,5.167671e-003
2.576474e+003,5.252518e-003
2.578403e+003,5.405977e-003
2.580331e+003,5.586259e-003
2.582260e+003,5.742818e-003
2.584188e+003,5.894594e-003
2.586116e+003,6.180048e-003
2.588045e+003,6.490521e-003
2.589974e+003,6.750435e-003
2.591902e+003,6.838053e-003
2.593831e+003,6.926641e-003
2.595759e+003,7.151447e-003
2.597688e+003,7.400140e-003
2.599616e+003,7.537432e-003
2.601544e+003,7.693589e-003
2.603473e+003,7.903047e-003
2.605402e+003,8.163840e-003
2.607330e+003,8.386962e-003
2.609259e+003,8.650251e-003
2.611187e+003,8.972175e-003
2.613115e+003,9.234399e-003
2.615044e+003,9.601094e-003
2.616972e+003,9.953052e-003
2.618901e+003,1.027427e-002
2.620830e+003,1.059762e-002
2.622758e+003,1.090612e-002
2.624687e+003,1.129785e-002
2.626615e+003,1.171425e-002
2.628543e+003,1.212583e-002
2.630472e+003,1.255911e-002
2.632400e+003,1.297143e-002
2.634329e+003,1.318635e-002
2.636258e+003,1.328394e-002
2.638186e+003,1.331954e-002
2.640115e+003,1.331235e-002
2.642043e+003,1.326907e-002
2.643971e+003,1.327187e-002
2.645900e+003,1.331165e-002
2.647828e+003,1.342583e-002
2.649757e+003,1.355559e-002
2.651686e+003,1.378069e-002
2.653614e+003,1.396992e-002
2.655542e+003,1.414531e-002
2.657471e+003,1.428933e-002
2.659399e+003,1.428385e-002
2.661328e+003,1.420265e-002
2.663256e+003,1.408819e-002
2.665185e+003,1.393261e-002
2.667114e+003,1.376847e-002
2.669042e+003,1.360475e-002
2.670970e+003,1.348814e-002
2.672899e+003,1.338206e-002
2.674827e+003,1.330034e-002
2.676756e+003,1.318460e-002
2.678685e+003,1.307622e-002
2.680613e+003,1.296726e-002
2.682542e+003,1.287987e-002
2.684470e+003,1.281776e-002
2.686398e+003,1.269801e-002
2.688327e+003,1.256996e-002
2.690255e+003,1.249406e-002
2.692184e+003,1.232079e-002
2.694113e+003,1.220179e-002
2.696041e+003,1.219413e-002
2.697969e+003,1.227250e-002
2.699898e+003,1.238012e-002
2.701826e+003,1.251352e-002
2.703755e+003,1.260289e-002
2.705683e+003,1.278679e-002
2.707612e+003,1.299677e-002
2.709541e+003,1.316469e-002
2.711469e+003,1.327268e-002
2.713397e+003,1.340364e-002
2.715326e+003,1.356471e-002
2.717254e+003,1.378087e-002
2.719183e+003,1.399606e-002
2.721111e+003,1.429646e-002
2.723040e+003,1.457081e-002
2.724969e+003,1.483335e-002
2.726897e+003,1.515401e-002
2.728825e+003,1.543123e-002
2.730754e+003,1.560730e-002
2.732682e+003,1.583312e-002
2.734611e+003,1.607800e-002
2.736539e+003,1.628567e-002
2.738468e+003,1.645468e-002
2.740396e+003,1.653447e-002
2.742325e+003,1.652557e-002
2.744253e+003,1.653325e-002
2.746182e+003,1.660761e-002
2.748110e+003,1.666353e-002
2.750039e+003,1.668560e-002
2.751967e+003,1.684551e-002
2.753896e+003,1.707945e-002
2.755824e+003,1.735528e-002
2.757753e+003,1.770684e-002
2.759681e+003,1.801382e-002
2.761610e+003,1.841468e-002
2.763538e+003,1.886728e-002
2.765467e+003,1.930750e-002
2.767395e+003,1.979806e-002
2.769324e+003,2.030567e-002
2.771252e+003,2.087968e-002
2.773181e+003,2.161038e-002
2.775109e+003,2.242598e-002
2.777038e+003,2.328608e-002
2.778966e+003,2.421453e-002
2.780895e+003,2.523810e-002
2.782823e+003,2.643336e-002
2.784752e+003,2.772938e-002
2.786680e+003,2.907624e-002
2.788609e+003,3.055251e-002
2.790537e+003,3.216083e-002
2.792466e+003,3.388383e-002
2.794394e+003,3.557711e-002
2.796323e+003,3.731234e-002
2.798251e+003,3.912809e-002
2.800180e+003,4.105697e-002
2.802108e+003,4.307404e-002
2.804037e+003,4.527032e-002
2.805965e+003,4.768688e-002
2.807894e+003,5.035774e-002
2.809822e+003,5.333267e-002
2.811751e+003,5.660417e-002
2.813679e+003,6.038408e-002
2.815608e+003,6.485727e-002
2.817536e+003,6.996684e-002
2.819465e+003,7.593422e-002
2.821393e+003,8.302906e-002
2.823322e+003,9.167586e-002
2.825250e+003,1.022658e-001
2.827179e+003,1.155800e-001
2.829107e+003,1.326675e-001
2.831036e+003,1.551723e-001
2.832964e+003,1.854708e-001
2.834893e+003,2.277828e-001
2.836821e+003,2.877335e-001
2.838750e+003,3.743395e-001
2.840678e+003,5.021623e-001
2.842607e+003,6.879703e-001
2.844535e+003,9.348559e-001
2.846464e+003,1.170913e+000
2.848392e+003,1.194889e+000
2.850321e+003,9.752507e-001
2.852249e+003,7.295504e-001
2.854178e+003,5.530273e-001
2.856106e+003,4.301109e-001
2.858035e+003,3.408473e-001
2.859963e+003,2.759453e-001
2.861892e+003,2.301315e-001
2.863820e+003,1.993713e-001
2.865749e+003,1.804682e-001
2.867677e+003,1.708655e-001
2.869606e+003,1.678607e-001
2.871534e+003,1.689120e-001
2.873463e+003,1.734242e-001
2.875391e+003,1.826215e-001
2.877320e+003,1.975254e-001
2.879248e+003,2.178922e-001
2.881177e+003,2.425947e-001
2.883105e+003,2.704990e-001
2.885034e+003,3.009645e-001
2.886962e+003,3.334337e-001
2.888891e+003,3.672012e-001
2.890819e+003,4.012777e-001
2.892748e+003,4.350847e-001
2.894676e+003,4.684022e-001
2.896605e+003,5.018013e-001
2.898533e+003,5.367940e-001
2.900462e+003,5.758085e-001
2.902390e+003,6.229817e-001
2.904319e+003,6.840924e-001
2.906247e+003,7.667946e-001
2.908176e+003,8.799096e-001
2.910104e+003,1.030259e+000
2.912033e+003,1.208469e+000
2.913961e+003,1.357373e+000
2.915890e+003,1.379254e+000
2.917818e+003,1.254460e+000
2.919747e+003,1.071844e+000
2.921675e+003,9.005039e-001
2.923604e+003,7.580284e-001
2.925532e+003,6.422718e-001
2.927461e+003,5.467162e-001
2.929389e+003,4.657438e-001
2.931318e+003,3.959236e-001
2.933246e+003,3.355696e-001
2.935175e+003,2.837239e-001
2.937103e+003,2.395033e-001
2.939032e+003,2.020230e-001
2.940960e+003,1.708300e-001
2.942889e+003,1.454935e-001
2.944817e+003,1.256851e-001
2.946746e+003,1.110936e-001
2.948674e+003,1.012207e-001
2.950603e+003,9.481481e-002
2.952531e+003,9.002565e-002
2.954460e+003,8.539211e-002
2.956388e+003,8.031969e-002
2.958317e+003,7.455009e-002
2.960245e+003,6.828456e-002
2.962174e+003,6.176888e-002
2.964102e+003,5.516008e-002
2.966031e+003,4.878911e-002
2.967959e+003,4.306167e-002
2.969888e+003,3.812112e-002
2.971816e+003,3.394007e-002
2.973745e+003,3.040364e-002
2.975673e+003,2.751792e-002
2.977602e+003,2.499730e-002
2.979530e+003,2.291016e-002
2.981459e+003,2.121257e-002
2.983387e+003,1.970048e-002
2.985316e+003,1.843025e-002
2.987244e+003,1.743134e-002
2.989173e+003,1.652294e-002
2.991101e+003,1.579782e-002
2.993030e+003,1.520807e-002
2.994958e+003,1.473472e-002
2.996887e+003,1.438670e-002
2.998815e+003,1.421276e-002
3.000744e+003,1.403100e-002
3.002672e+003,1.382086e-002
3.004601e+003,1.354527e-002
3.006529e+003,1.318154e-002
3.008458e+003,1.275569e-002
3.010386e+003,1.227160e-002
3.012315e+003,1.172211e-002
3.014243e+003,1.118330e-002
3.016172e+003,1.075799e-002
3.018100e+003,1.041719e-002
3.020029e+003,1.000620e-002
3.021957e+003,9.670340e-003
3.023886e+003,9.476639e-003
3.025814e+003,9.218305e-003
3.027743e+003,8.934096e-003
3.029671e+003,8.715525e-003
3.031600e+003,8.476615e-003
3.033528e+003,8.238003e-003
3.035457e+003,7.983156e-003
3.037385e+003,7.725418e-003
3.039314e+003,7.387899e-003
3.041242e+003,7.048391e-003
3.043171e+003,6.769128e-003
3.045099e+003,6.602071e-003
3.047028e+003,6.359063e-003
3.048956e+003,6.181993e-003
3.050885e+003,5.987406e-003
3.052813e+003,5.837813e-003
3.054742e+003,5.694762e-003
3.056670e+003,5.540736e-003
3.058599e+003,5.356900e-003
3.060527e+003,5.235530e-003
3.062456e+003,5.177848e-003
3.064384e+003,5.135320e-003
3.066313e+003,5.064294e-003
3.068241e+003,4.972018e-003
3.070170e+003,4.942007e-003
3.072098e+003,4.885569e-003
3.074027e+003,4.718982e-003
3.075955e+003,4.611261e-003
3.077884e+003,4.622832e-003
3.079812e+003,4.555367e-003
3.081741e+003,4.436769e-003
3.083669e+003,4.313022e-003
3.085598e+003,4.230753e-003
3.087526e+003,4.115418e-003
3.089455e+003,3.813364e-003
3.091383e+003,3.466614e-003
3.093312e+003,3.234312e-003
3.095240e+003,3.139764e-003
3.097169e+003,3.000125e-003
3.099097e+003,2.811268e-003
3.101026e+003,2.592906e-003
3.102954e+003,2.402589e-003
3.104883e+003,2.232090e-003
3.106811e+003,2.172008e-003
3.108740e+003,2.020665e-003
3.110668e+003,1.902975e-003
3.112597e+003,1.855999e-003
3.114525e+003,1.856551e-003
3.116454e+003,1.770645e-003
3.118382e+003,1.677126e-003
3.120311e+003,1.652591e-003
3.122239e+003,1.655929e-003
3.124168e+003,1.700893e-003
3.126096e+003,1.739718e-003
3.128025e+003,1.621619e-003
3.129953e+003,1.532383e-003
3.131882e+003,1.607358e-003
3.133810e+003,1.683109e-003
3.135739e+003,1.682833e-003
3.137667e+003,1.764804e-003
3.139596e+003,1.774639e-003
3.141524e+003,1.740664e-003
3.143453e+003,1.780488e-003
3.145381e+003,1.723133e-003
3.147310e+003,1.739629e-003
3.149238e+003,1.867652e-003
3.151167e+003,1.920238e-003
3.153095e+003,1.940839e-003
3.155024e+003,1.862019e-003
3.156952e+003,1.885690e-003
3.158881e+003,1.948513e-003
3.160809e+003,2.020761e-003
3.162738e+003,2.020851e-003
3.164666e+003,2.011463e-003
3.166594e+003,2.031185e-003
3.168523e+003,2.129786e-003
3.170452e+003,2.166010e-003
3.172380e+003,2.175309e-003
3.174309e+003,2.293609e-003
3.176237e+003,2.359770e-003
3.178166e+003,2.354413e-003
3.180094e+003,2.406724e-003
3.182022e+003,2.475344e-003
3.183951e+003,2.536125e-003
3.185880e+003,2.602957e-003
3.187808e+003,2.601519e-003
3.189737e+003,2.616733e-003
3.191665e+003,2.741709e-003
3.193594e+003,2.835751e-003
3.195522e+003,2.848707e-003
3.197450e+003,2.886705e-003
3.199379e+003,2.913639e-003
3.201308e+003,2.908871e-003
3.203236e+003,2.988860e-003
3.205165e+003,3.043525e-003
3.207093e+003,3.101252e-003
3.209021e+003,3.146440e-003
3.210950e+003,3.220402e-003
3.212878e+003,3.141627e-003
3.214807e+003,3.150277e-003
3.216736e+003,3.238149e-003
3.218664e+003,3.277265e-003
3.220593e+003,3.262669e-003
3.222521e+003,3.274061e-003
3.224449e+003,3.375709e-003
3.226378e+003,3.567867e-003
3.228307e+003,3.612861e-003
3.230235e+003,3.662810e-003
3.232164e+003,3.706872e-003
3.234092e+003,3.680050e-003
3.236021e+003,3.682844e-003
3.237949e+003,3.761075e-003
3.239877e+003,3.835686e-003
3.241806e+003,3.921121e-003
3.243735e+003,3.883064e-003
3.245663e+003,3.939129e-003
3.247592e+003,4.089348e-003
3.249520e+003,4.195988e-003
3.251448e+003,4.320838e-003
3.253377e+003,4.441291e-003
3.255305e+003,4.546359e-003
3.257234e+003,4.561245e-003
3.259163e+003,4.567698e-003
3.261091e+003,4.612163e-003
3.263020e+003,4.680716e-003
3.264948e+003,4.752167e-003
3.266876e+003,4.826166e-003
3.268805e+003,5.054139e-003
3.270733e+003,5.121589e-003
3.272662e+003,5.085446e-003
3.274591e+003,5.091235e-003
3.276519e+003,5.215704e-003
3.278448e+003,5.316883e-003
3.280376e+003,5.379774e-003
3.282304e+003,5.430676e-003
3.284233e+003,5.511276e-003
3.286161e+003,5.482763e-003
3.288090e+003,5.480565e-003
3.290019e+003,5.492173e-003
3.291947e+003,5.424351e-003
3.293875e+003,5.450904e-003
3.295804e+003,5.539015e-003
3.297732e+003,5.510986e-003
3.299661e+003,5.503409e-003
3.301589e+003,5.546503e-003
3.303518e+003,5.431436e-003
3.305447e+003,5.397640e-003
3.307375e+003,5.512632e-003
3.309303e+003,5.575523e-003
3.311232e+003,5.607165e-003
3.313160e+003,5.566433e-003
3.315089e+003,5.577594e-003
3.317018e+003,5.706422e-003
3.318946e+003,5.681589e-003
3.320875e+003,5.520366e-003
3.322803e+003,5.547948e-003
3.324731e+003,5.503386e-003
3.326660e+003,5.447485e-003
3.328588e+003,5.570270e-003
3.330517e+003,5.619936e-003
3.332446e+003,5.637780e-003
3.334374e+003,5.679928e-003
3.336302e+003,5.622000e-003
3.338231e+003,5.653724e-003
3.340159e+003,5.611978e-003
3.342088e+003,5.555458e-003
3.344016e+003,5.629092e-003
3.345945e+003,5.675107e-003
3.347874e+003,5.602904e-003
3.349802e+003,5.542107e-003
3.351730e+003,5.578332e-003
3.353659e+003,5.520120e-003
3.355587e+003,5.391799e-003
3.357516e+003,5.428694e-003
3.359444e+003,5.503967e-003
3.361373e+003,5.464494e-003
3.363302e+003,5.393267e-003
3.365230e+003,5.434595e-003
3.367158e+003,5.483873e-003
3.369087e+003,5.428605e-003
3.371015e+003,5.399644e-003
3.372944e+003,5.339585e-003
3.374872e+003,5.359784e-003
3.376801e+003,5.334385e-003
3.378729e+003,5.233072e-003
3.380658e+003,5.295701e-003
3.382586e+003,5.249202e-003
3.384515e+003,5.105853e-003
3.386443e+003,5.034357e-003
3.388372e+003,5.115218e-003
3.390300e+003,5.185626e-003
3.392229e+003,5.190954e-003
3.394157e+003,5.107082e-003
3.396086e+003,5.024813e-003
3.398014e+003,4.982680e-003
3.399943e+003,4.942469e-003
3.401871e+003,4.934274e-003
3.403800e+003,4.895963e-003
3.405728e+003,4.863597e-003
3.407657e+003,4.842155e-003
3.409585e+003,4.838765e-003
3.411514e+003,4.789941e-003
3.413442e+003,4.664294e-003
3.415371e+003,4.672363e-003
3.417299e+003,4.627801e-003
3.419228e+003,4.554786e-003
3.421156e+003,4.663318e-003
3.423085e+003,4.683495e-003
3.425013e+003,4.503578e-003
3.426942e+003,4.452683e-003
3.428870e+003,4.516944e-003
3.430799e+003,4.491135e-003
3.432727e+003,4.448824e-003
3.434656e+003,4.432611e-003
3.436584e+003,4.434980e-003
3.438513e+003,4.364878e-003
3.440441e+003,4.295424e-003
3.442370e+003,4.312612e-003
3.444298e+003,4.241429e-003
3.446227e+003,4.142083e-003
3.448155e+003,4.115403e-003
3.450084e+003,4.064657e-003
3.452012e+003,4.046857e-003
3.453941e+003,4.006483e-003
3.455869e+003,3.980011e-003
3.457798e+003,3.850594e-003
3.459726e+003,3.698334e-003
3.461655e+003,3.682271e-003
3.463583e+003,3.674164e-003
3.465512e+003,3.590688e-003
3.467440e+003,3.515996e-003
3.469369e+003,3.455333e-003
3.471297e+003,3.408626e-003
3.473226e+003,3.378280e-003
3.475154e+003,3.347524e-003
3.477083e+003,3.239751e-003
3.479011e+003,3.153197e-003
3.480940e+003,3.112078e-003
3.482868e+003,3.055841e-003
3.484797e+003,3.033862e-003
3.486725e+003,3.009185e-003
3.488654e+003,2.978064e-003
3.490582e+003,2.877355e-003
3.492511e+003,2.754360e-003
3.494439e+003,2.736285e-003
3.496368e+003,2.761915e-003
3.498296e+003,2.652645e-003
3.500225e+003,2.569512e-003
3.502153e+003,2.565145e-003
3.504082e+003,2.594247e-003
3.506010e+003,2.540365e-003
3.507939e+003,2.563551e-003
3.509867e+003,2.537683e-003
3.511796e+003,2.391905e-003
3.513724e+003,2.273202e-003
3.515653e+003,2.131194e-003
3.517581e+003,2.096370e-003
3.519510e+003,2.105787e-003
3.521438e+003,2.100259e-003
3.523367e+003,2.085924e-003
3.525295e+003,2.021417e-003
3.527224e+003,1.905501e-003
3.529152e+003,1.824036e-003
3.531081e+003,1.745790e-003
3.533009e+003,1.666307e-003
3.534938e+003,1.608402e-003
3.536866e+003,1.573995e-003
3.538795e+003,1.530230e-003
3.540723e+003,1.468584e-003
3.542652e+003,1.437977e-003
3.544580e+003,1.516879e-003
3.546509e+003,1.693875e-003
3.548437e+003,1.472875e-003
3.550366e+003,1.140833e-003
3.552294e+003,1.127392e-003
3.554223e+003,1.040950e-003
3.556151e+003,1.022011e-003
3.558080e+003,9.803772e-004
3.560008e+003,8.883476e-004
3.561937e+003,8.218586e-004
3.563865e+003,8.125305e-004
3.565794e+003,1.058936e-003
3.567722e+003,1.413450e-003
3.569651e+003,1.008093e-003
3.571579e+003,7.205307e-004
3.573508e+003,6.767362e-004
3.575436e+003,7.074475e-004
3.577365e+003,7.335395e-004
3.579293e+003,8.113384e-004
3.581222e+003,6.757230e-004
3.583150e+003,5.364567e-004
3.585079e+003,5.039126e-004
3.587007e+003,8.872747e-004
3.588936e+003,9.953529e-004
3.590864e+003,9.602606e-004
3.592793e+003,1.161501e-003
3.594721e+003,1.560733e-003
3.596650e+003,1.815319e-003
3.598578e+003,1.888573e-003
3.600507e+003,2.176866e-003
3.602435e+003,2.464116e-003
3.604364e+003,2.288029e-003
3.606292e+003,2.306208e-003
3.608221e+003,2.359509e-003
3.610149e+003,2.023622e-003
3.612078e+003,1.751333e-003
3.614006e+003,1.734063e-003
3.615935e+003,1.513198e-003
3.617863e+003,1.411751e-003
3.619792e+003,1.308516e-003
3.621720e+003,1.018256e-003
3.623649e+003,9.136647e-004
3.625577e+003,1.000866e-003
3.627506e+003,1.269251e-003
3.629434e+003,1.700163e-003
3.631363e+003,1.087815e-003
3.633291e+003,9.075850e-004
3.635220e+003,9.342730e-004
3.637148e+003,9.067655e-004
3.639077e+003,9.803921e-004
3.641005e+003,9.594113e-004
3.642934e+003,9.039491e-004
3.644862e+003,7.965267e-004
3.646791e+003,1.063153e-003
3.648719e+003,1.535520e-003
3.650648e+003,1.245469e-003
3.652576e+003,6.093979e-004
3.654505e+003,2.553314e-004
3.656433e+003,5.297661e-004
3.658362e+003,1.985729e-004
3.660290e+003,-5.610287e-005
3.662219e+003,-1.320541e-004
3.664147e+003,-2.530366e-004
3.666076e+003,-3.802180e-004
3.668004e+003,-3.825277e-004
3.669933e+003,1.706183e-004
3.671861e+003,-7.471442e-005
3.673790e+003,-4.039556e-004
3.675718e+003,4.269481e-004
3.677647e+003,-1.339465e-004
3.679575e+003,-3.311783e-004
3.681504e+003,-3.399849e-004
3.683432e+003,-4.140288e-004
3.685361e+003,-4.797727e-004
3.687289e+003,-2.533197e-004
3.689218e+003,3.366172e-005
3.691146e+003,7.295609e-005
3.693075e+003,-1.131147e-004
3.695003e+003,-3.709197e-004
3.696932e+003,-3.841817e-004
3.698860e+003,-5.281419e-004
3.700789e+003,-4.475117e-004
3.702717e+003,-1.928061e-004
3.704646e+003,-3.382564e-004
3.706574e+003,-4.068911e-004
3.708503e+003,-2.151430e-004
3.710431e+003,9.675324e-005
3.712360e+003,3.327429e-005
3.714288e+003,-3.056079e-004
3.716217e+003,-3.686845e-004
3.718145e+003,-2.106577e-004
3.720074e+003,-1.346767e-004
3.722002e+003,2.875924e-006
3.723931e+003,-2.680719e-005
3.725859e+003,-9.651482e-005
3.727788e+003,-2.789348e-004
3.729716e+003,-4.832745e-004
3.731645e+003,-3.591478e-004
3.733573e+003,-1.791418e-004
3.735502e+003,1.736134e-004
3.737430e+003,2.861023e-005
3.739359e+003,-3.751665e-004
3.741287e+003,-4.026443e-004
3.743216e+003,-1.937151e-006
3.745144e+003,6.142259e-004
3.747073e+003,-9.536743e-006
3.749001e+003,-5.041063e-005
3.750930e+003,2.652556e-004
3.752858e+003,3.636479e-004
3.754787e+003,5.002320e-005
3.756715e+003,-9.377301e-005
3.758644e+003,-2.412498e-005
3.760572e+003,1.565665e-004
3.762501e+003,-8.262694e-005
3.764429e+003,4.932284e-005
3.766358e+003,1.652837e-004
3.768286e+003,-8.307397e-005
3.770215e+003,2.276450e-004
3.772143e+003,1.020432e-004
3.774072e+003,-8.712709e-005
3.776000e+003,-1.341701e-004
3.777929e+003,-5.958974e-005
3.779857e+003,2.933145e-004
3.781786e+003,2.509803e-004
3.783714e+003,2.490729e-004
3.785643e+003,2.842247e-004
3.787571e+003,2.311915e-004
3.789500e+003,2.364814e-004
3.791428e+003,2.360493e-004
3.793357e+003,2.421737e-004
3.795285e+003,3.805608e-004
3.797214e+003,3.168881e-004
3.799142e+003,1.272112e-004
3.801071e+003,7.945448e-004
3.802999e+003,7.220954e-004
3.804927e+003,1.737922e-004
3.806856e+003,5.656779e-004
3.808785e+003,5.958527e-004
3.810713e+003,5.778819e-004
3.812642e+003,6.127357e-004
3.814570e+003,4.675686e-004
3.816499e+003,8.456856e-004
3.818427e+003,7.890165e-004
3.820355e+003,1.164183e-003
3.822284e+003,1.302689e-003
3.824213e+003,7.811636e-004
3.826141e+003,7.769614e-004
3.828070e+003,8.268058e-004
3.829998e+003,6.857961e-004
3.831927e+003,1.028910e-003
3.833855e+003,1.116782e-003
3.835783e+003,8.803606e-004
3.837712e+003,1.162723e-003
3.839641e+003,1.443774e-003
3.841569e+003,1.167938e-003
3.843498e+003,1.078352e-003
3.845426e+003,8.288324e-004
3.847354e+003,6.176382e-004
3.849283e+003,7.264316e-004
3.851211e+003,1.016200e-003
3.853140e+003,1.750246e-003
3.855069e+003,1.215771e-003
3.856997e+003,9.508282e-004
3.858926e+003,8.437932e-004
3.860854e+003,8.517951e-004
3.862782e+003,1.116350e-003
3.864711e+003,1.497179e-003
3.866640e+003,1.222610e-003
3.868568e+003,1.045063e-003
3.870497e+003,1.617298e-003
3.872425e+003,1.388535e-003
3.874354e+003,1.570165e-003
3.876282e+003,1.346573e-003
3.878210e+003,1.150876e-003
3.880139e+003,1.436502e-003
3.882068e+003,1.364261e-003
3.883996e+003,1.201987e-003
3.885925e+003,1.631156e-003
3.887853e+003,1.344413e-003
3.889781e+003,1.224488e-003
3.891710e+003,1.577318e-003
3.893638e+003,1.498744e-003
3.895567e+003,1.381218e-003
3.897496e+003,1.439780e-003
3.899424e+003,1.791090e-003
3.901353e+003,1.921058e-003
3.903281e+003,1.945227e-003
3.905209e+003,1.849532e-003
3.907138e+003,1.607060e-003
3.909066e+003,1.480818e-003
3.910995e+003,1.525819e-003
3.912924e+003,1.538873e-003
3.914852e+003,1.611441e-003
3.916781e+003,1.660213e-003
3.918709e+003,1.619250e-003
3.920637e+003,1.545623e-003
3.922566e+003,1.367763e-003
3.924494e+003,1.463905e-003
3.926423e+003,1.366451e-003
3.928352e+003,1.252338e-003
3.930280e+003,1.497790e-003
3.932208e+003,1.721516e-003
3.934137e+003,1.555651e-003
3.936065e+003,1.318172e-003
3.937994e+003,1.364797e-003
3.939922e+003,1.443237e-003
3.941851e+003,1.654133e-003
3.943780e+003,1.564994e-003
3.945708e+003,1.351908e-003
3.947636e+003,1.400769e-003
3.949565e+003,1.383260e-003
3.951493e+003,1.270309e-003
3.953422e+003,1.315609e-003
3.955351e+003,1.343623e-003
3.957279e+003,1.308620e-003
3.959208e+003,1.259580e-003
3.961136e+003,1.279294e-003
3.963064e+003,1.228914e-003
3.964993e+003,1.202479e-003
3.966921e+003,1.261204e-003
3.968850e+003,1.285225e-003
3.970779e+003,1.313433e-003
3.972707e+003,1.361996e-003
3.974635e+003,1.330942e-003
3.976564e+003,1.269519e-003
3.978492e+003,1.343191e-003
3.980421e+003,1.415819e-003
3.982349e+003,1.514718e-003
3.984278e+003,1.525179e-003
3.986207e+003,1.439720e-003
3.988135e+003,1.374409e-003
3.990063e+003,1.390517e-003
3.991992e+003,1.371861e-003
3.993920e+003,1.185417e-003
3.995849e+003,1.097992e-003
3.997777e+003,1.302555e-003
3.999706e+003,1.372993e-003
4.001635e+003,0.000000e+000
