3.991992e+002,0.000000e+000
4.011277e+002,0.000000e+000
4.030562e+002,0.000000e+000
4.049846e+002,0.000000e+000
4.069131e+002,0.000000e+000
4.088416e+002,0.000000e+000
4.107701e+002,0.000000e+000
4.126986e+002,0.000000e+000
4.146271e+002,0.000000e+000
4.165556e+002,0.000000e+000
4.184841e+002,0.000000e+000
4.204126e+002,0.000000e+000
4.223411e+002,0.000000e+000
4.242697e+002,0.000000e+000
4.261982e+002,0.000000e+000
4.281266e+002,0.000000e+000
4.300551e+002,0.000000e+000
4.319836e+002,0.000000e+000
4.339121e+002,0.000000e+000
4.358406e+002,0.000000e+000
4.377691e+002,0.000000e+000
4.396976e+002,0.000000e+000
4.416261e+002,0.000000e+000
4.435546e+002,0.000000e+000
4.454831e+002,0.000000e+000
4.474116e+002,0.000000e+000
4.493401e+002,0.000000e+000
4.512686e+002,0.000000e+000
4.531971e+002,0.000000e+000
4.551256e+002,0.000000e+000
4.570541e+002,0.000000e+000
4.589826e+002,0.000000e+000
4.609111e+002,0.000000e+000
4.628396e+002,0.000000e+000
4.647681e+002,0.000000e+000
4.666966e+002,0.000000e+000
4.686251e+002,0.000000e+000
4.705536e+002,0.000000e+000
4.724821e+002,0.000000e+000
4.744106e+002,0.000000e+000
4.763391e+002,0.000000e+000
4.782676e+002,0.000000e+000
4.801961e+002,0.000000e+000
4.821246e+002,0.000000e+000
4.840531e+002,0.000000e+000
4.859816e+002,0.000000e+000
4.879101e+002,0.000000e+000
4.898386e+002,0.000000e+000
4.917671e+002,0.000000e+000
4.936956e+002,0.000000e+000
4.956241e+002,0.000000e+000
4.975526e+002,0.000000e+000
4.994811e+002,0.000000e+000
5.014096e+002,0.000000e+000
5.033381e+002,0.000000e+000
5.052666e+002,0.000000e+000
5.071951e+002,0.000000e+000
5.091236e+002,0.000000e+000
5.110521e+002,0.000000e+000
5.129806e+002,0.000000e+000
5.149091e+002,0.000000e+000
5.168376e+002,0.000000e+000
5.187661e+002,0.000000e+000
5.206946e+002,0.000000e+000
5.226230e+002,0.000000e+000
5.245516e+002,1.657736e-004
5.264800e+002,3.166497e-005
5.284086e+002,9.976327e-006
5.303370e+002,-1.124293e-005
5.322656e+002,4.096515e-005
5.341940e+002,-1.088455e-004
5.361226e+002,-1.514535e-004
5.380510e+002,-8.576922e-005
5.399796e+002,-1.015514e-004
5.419081e+002,-1.352038e-004
5.438365e+002,3.371388e-007
5.457650e+002,3.987737e-005
5.476935e+002,1.485460e-005
5.496221e+002,-2.618693e-005
5.515505e+002,-7.254444e-005
5.534790e+002,1.014583e-005
5.554075e+002,2.092998e-004
5.573361e+002,2.561249e-004
5.592645e+002,2.548862e-004
5.611931e+002,1.217332e-004
5.631215e+002,-2.678111e-005
5.650500e+002,-4.336983e-005
5.669785e+002,-7.854775e-006
5.689070e+002,-6.930716e-005
5.708355e+002,-1.973100e-004
5.727640e+002,-3.798883e-004
5.746925e+002,-3.966931e-004
5.766210e+002,-3.413390e-004
5.785495e+002,-3.178138e-004
5.804780e+002,-3.313888e-004
5.824065e+002,-3.234297e-004
5.843350e+002,-3.325846e-004
5.862635e+002,-2.823677e-004
5.881920e+002,-3.904421e-004
5.901205e+002,-4.154220e-004
5.920490e+002,-3.393833e-004
5.939775e+002,-2.774317e-004
5.959060e+002,-3.391318e-004
5.978345e+002,-2.878867e-004
5.997630e+002,-1.661405e-004
6.016915e+002,-1.362674e-004
6.036200e+002,-1.380686e-004
6.055485e+002,-8.043088e-005
6.074770e+002,-1.295190e-004
6.094055e+002,-6.794557e-005
6.113340e+002,-7.745437e-005
6.132625e+002,-1.651533e-004
6.151910e+002,-1.570545e-004
6.171195e+002,-1.038201e-004
6.190480e+002,-2.403874e-004
6.209765e+002,-1.387186e-004
6.229050e+002,5.996414e-005
6.248335e+002,2.019331e-004
6.267620e+002,2.750065e-004
6.286905e+002,4.054774e-004
6.306190e+002,4.347526e-004
6.325475e+002,3.520772e-004
6.344760e+002,2.626758e-004
6.364045e+002,3.873911e-004
6.383330e+002,5.203709e-004
6.402615e+002,5.131681e-004
6.421899e+002,5.437210e-004
6.441185e+002,5.413350e-004
6.460470e+002,4.487801e-004
6.479755e+002,5.023144e-004
6.499039e+002,5.606730e-004
6.518325e+002,5.323850e-004
6.537610e+002,3.513973e-004
6.556895e+002,3.693979e-004
6.576179e+002,4.802514e-004
6.595464e+002,5.877614e-004
6.614750e+002,6.505139e-004
6.634034e+002,7.129107e-004
6.653319e+002,6.846320e-004
6.672604e+002,7.283352e-004
6.691890e+002,8.154362e-004
6.711174e+002,9.044018e-004
6.730460e+002,9.075589e-004
6.749745e+002,9.981226e-004
6.769030e+002,1.124583e-003
6.788314e+002,1.308430e-003
6.807599e+002,1.438327e-003
6.826885e+002,1.560781e-003
6.846169e+002,1.683926e-003
6.865454e+002,1.905866e-003
6.884739e+002,2.037277e-003
6.904025e+002,2.263786e-003
6.923309e+002,2.553031e-003
6.942594e+002,3.003433e-003
6.961879e+002,3.529971e-003
6.981165e+002,4.376845e-003
7.000449e+002,5.370613e-003
7.019734e+002,6.675432e-003
7.039019e+002,8.273957e-003
7.058304e+002,1.057664e-002
7.077589e+002,1.379495e-002
7.096874e+002,1.876428e-002
7.116159e+002,2.688971e-002
7.135444e+002,4.249114e-002
7.154729e+002,6.951606e-002
7.174014e+002,1.033204e-001
7.193299e+002,1.150374e-001
7.212584e+002,8.524753e-002
7.231869e+002,5.659833e-002
7.251154e+002,4.615061e-002
7.270439e+002,4.978948e-002
7.289724e+002,6.486550e-002
7.309009e+002,6.231321e-002
7.328294e+002,3.583490e-002
7.347579e+002,1.802105e-002
7.366864e+002,1.167530e-002
7.386149e+002,9.039195e-003
7.405434e+002,7.490443e-003
7.424719e+002,6.571710e-003
7.444004e+002,5.862067e-003
7.463289e+002,5.362485e-003
7.482574e+002,4.875377e-003
7.501859e+002,4.564093e-003
7.521144e+002,4.271157e-003
7.540428e+002,4.013067e-003
7.559714e+002,3.743518e-003
7.578999e+002,3.488695e-003
7.598284e+002,3.244124e-003
7.617568e+002,3.111973e-003
7.636854e+002,2.875987e-003
7.656139e+002,2.647819e-003
7.675424e+002,2.502695e-003
7.694709e+002,2.430482e-003
7.713994e+002,2.338171e-003
7.733279e+002,2.256833e-003
7.752563e+002,2.165737e-003
7.771849e+002,2.154313e-003
7.791134e+002,2.148628e-003
7.810419e+002,2.090544e-003
7.829703e+002,2.031680e-003
7.848989e+002,1.968080e-003
7.868274e+002,1.966678e-003
7.887559e+002,1.994580e-003
7.906843e+002,1.925163e-003
7.926129e+002,1.813777e-003
7.945414e+002,1.724401e-003
7.964698e+002,1.742449e-003
7.983983e+002,1.810571e-003
8.003268e+002,1.797594e-003
8.022554e+002,1.776028e-003
8.041838e+002,1.800962e-003
8.061123e+002,1.765301e-003
8.080408e+002,1.709707e-003
8.099694e+002,1.615847e-003
8.118978e+002,1.495901e-003
8.138263e+002,1.408568e-003
8.157548e+002,1.386261e-003
8.176833e+002,1.341803e-003
8.196118e+002,1.285113e-003
8.215403e+002,1.235334e-003
8.234689e+002,1.132919e-003
8.253973e+002,1.092490e-003
8.273258e+002,1.077322e-003
8.292543e+002,1.097405e-003
8.311829e+002,1.101704e-003
8.331113e+002,1.057290e-003
8.350398e+002,1.013594e-003
8.369683e+002,1.071114e-003
8.388969e+002,1.200777e-003
8.408253e+002,1.254160e-003
8.427538e+002,1.233060e-003
8.446823e+002,1.244284e-003
8.466108e+002,1.208100e-003
8.485393e+002,1.170078e-003
8.504678e+002,1.234084e-003
8.523963e+002,1.289060e-003
8.543248e+002,1.295526e-003
8.562533e+002,1.288814e-003
8.581818e+002,1.282860e-003
8.601103e+002,1.292244e-003
8.620388e+002,1.273174e-003
8.639673e+002,1.270527e-003
8.658958e+002,1.228277e-003
8.678243e+002,1.223439e-003
8.697528e+002,1.221467e-003
8.716813e+002,1.248270e-003
8.736098e+002,1.275107e-003
8.755383e+002,1.366334e-003
8.774668e+002,1.460975e-003
8.793953e+002,1.509413e-003
8.813238e+002,1.494396e-003
8.832523e+002,1.574209e-003
8.851808e+002,1.642669e-003
8.871093e+002,1.783773e-003
8.890378e+002,1.870228e-003
8.909663e+002,1.817606e-003
8.928948e+002,1.631975e-003
8.948232e+002,1.541363e-003
8.967518e+002,1.476916e-003
8.986803e+002,1.470154e-003
9.006088e+002,1.597745e-003
9.025372e+002,1.760742e-003
9.044658e+002,1.983918e-003
9.063943e+002,2.467064e-003
9.083228e+002,2.741320e-003
9.102512e+002,2.603324e-003
9.121797e+002,2.214037e-003
9.141083e+002,1.934091e-003
9.160367e+002,1.648204e-003
9.179653e+002,1.500668e-003
9.198937e+002,1.455203e-003
9.218223e+002,1.429940e-003
9.237507e+002,1.420107e-003
9.256793e+002,1.462458e-003
9.276077e+002,1.371697e-003
9.295363e+002,1.396984e-003
9.314647e+002,1.421915e-003
9.333932e+002,1.395958e-003
9.353217e+002,1.347048e-003
9.372502e+002,1.316518e-003
9.391787e+002,1.328478e-003
9.411072e+002,1.327792e-003
9.430358e+002,1.288276e-003
9.449642e+002,1.301130e-003
9.468928e+002,1.303490e-003
9.488212e+002,1.320859e-003
9.507498e+002,1.311461e-003
9.526782e+002,1.358680e-003
9.546068e+002,1.394838e-003
9.565352e+002,1.456721e-003
9.584637e+002,1.532203e-003
9.603922e+002,1.637543e-003
9.623207e+002,1.707422e-003
9.642492e+002,1.759868e-003
9.661777e+002,1.762187e-003
9.681062e+002,1.779418e-003
9.700347e+002,1.808949e-003
9.719632e+002,1.873491e-003
9.738917e+002,1.848031e-003
9.758202e+002,1.848999e-003
9.777487e+002,1.828257e-003
9.796772e+002,1.869986e-003
9.816057e+002,1.891939e-003
9.835342e+002,1.950815e-003
9.854627e+002,2.062423e-003
9.873912e+002,2.250353e-003
9.893197e+002,2.395395e-003
9.912482e+002,2.487522e-003
9.931767e+002,2.474999e-003
9.951052e+002,2.504293e-003
9.970337e+002,2.519285e-003
9.989622e+002,2.572263e-003
1.000891e+003,2.613412e-003
1.002819e+003,2.675656e-003
1.004748e+003,2.737872e-003
1.006676e+003,2.851931e-003
1.008605e+003,2.939606e-003
1.010533e+003,3.049836e-003
1.012462e+003,3.137253e-003
1.014390e+003,3.240030e-003
1.016319e+003,3.363507e-003
1.018247e+003,3.484303e-003
1.020176e+003,3.504664e-003
1.022104e+003,3.565446e-003
1.024033e+003,3.575787e-003
1.025961e+003,3.636315e-003
1.027890e+003,3.718019e-003
1.029818e+003,3.802512e-003
1.031747e+003,3.842257e-003
1.033675e+003,3.922932e-003
1.035604e+003,3.978547e-003
1.037532e+003,3.994137e-003
1.039461e+003,3.916234e-003
1.041389e+003,3.999460e-003
1.043318e+003,4.089970e-003
1.045246e+003,4.139289e-003
1.047175e+003,4.188478e-003
1.049103e+003,4.378587e-003
1.051032e+003,4.448470e-003
1.052960e+003,4.425857e-003
1.054889e+003,4.409794e-003
1.056817e+003,4.445322e-003
1.058746e+003,4.476286e-003
1.060674e+003,4.664488e-003
1.062603e+003,4.760217e-003
1.064531e+003,4.781481e-003
1.066460e+003,4.757848e-003
1.068388e+003,4.815008e-003
1.070317e+003,4.896767e-003
1.072245e+003,5.077161e-003
1.074174e+003,5.266596e-003
1.076102e+003,5.466115e-003
1.078031e+003,5.590696e-003
1.079959e+003,5.688351e-003
1.081888e+003,5.665570e-003
1.083816e+003,5.646523e-003
1.085745e+003,5.539671e-003
1.087673e+003,5.508304e-003
1.089602e+003,5.465582e-003
1.091530e+003,5.422384e-003
1.093459e+003,5.331121e-003
1.095387e+003,5.316876e-003
1.097316e+003,5.285934e-003
1.099244e+003,5.273834e-003
1.101173e+003,5.244274e-003
1.103101e+003,5.221959e-003
1.105030e+003,5.083766e-003
1.106958e+003,4.994046e-003
1.108887e+003,4.877862e-003
1.110815e+003,4.842326e-003
1.112744e+003,4.739884e-003
1.114672e+003,4.683532e-003
1.116601e+003,4.625354e-003
1.118529e+003,4.617982e-003
1.120458e+003,4.609920e-003
1.122386e+003,4.582167e-003
1.124315e+003,4.534863e-003
1.126243e+003,4.597139e-003
1.128172e+003,4.641175e-003
1.130100e+003,4.748799e-003
1.132029e+003,4.795857e-003
1.133957e+003,4.849967e-003
1.135885e+003,4.891161e-003
1.137814e+003,4.986241e-003
1.139743e+003,5.068779e-003
1.141671e+003,5.299974e-003
1.143600e+003,5.606893e-003
1.145528e+003,6.111633e-003
1.147457e+003,6.849624e-003
1.149385e+003,7.785778e-003
1.151314e+003,8.678507e-003
1.153242e+003,9.388804e-003
1.155171e+003,9.738300e-003
1.157099e+003,9.883884e-003
1.159028e+003,9.899836e-003
1.160956e+003,9.942640e-003
1.162885e+003,9.849686e-003
1.164813e+003,9.686247e-003
1.166742e+003,9.384874e-003
1.168670e+003,8.974839e-003
1.170599e+003,8.446757e-003
1.172527e+003,7.949941e-003
1.174456e+003,7.454388e-003
1.176384e+003,7.060602e-003
1.178313e+003,6.566498e-003
1.180241e+003,6.177366e-003
1.182170e+003,5.943086e-003
1.184098e+003,5.883928e-003
1.186027e+003,5.859070e-003
1.187955e+003,5.954370e-003
1.189884e+003,6.053802e-003
1.191812e+003,6.257378e-003
1.193740e+003,6.475367e-003
1.195669e+003,6.752469e-003
1.197598e+003,7.061966e-003
1.199526e+003,7.498607e-003
1.201455e+003,7.952075e-003
1.203383e+003,8.497667e-003
1.205312e+003,9.004675e-003
1.207240e+003,9.512533e-003
1.209168e+003,9.940255e-003
1.211097e+003,1.036635e-002
1.213026e+003,1.065907e-002
1.214954e+003,1.092818e-002
1.216883e+003,1.114246e-002
1.218811e+003,1.139916e-002
1.220740e+003,1.165001e-002
1.222668e+003,1.196373e-002
1.224596e+003,1.217727e-002
1.226525e+003,1.244472e-002
1.228453e+003,1.269270e-002
1.230382e+003,1.297497e-002
1.232311e+003,1.323463e-002
1.234239e+003,1.353619e-002
1.236167e+003,1.373412e-002
1.238096e+003,1.392390e-002
1.240025e+003,1.401075e-002
1.241953e+003,1.404383e-002
1.243882e+003,1.391524e-002
1.245810e+003,1.376061e-002
1.247739e+003,1.344995e-002
1.249667e+003,1.307888e-002
1.251595e+003,1.263836e-002
1.253524e+003,1.221290e-002
1.255453e+003,1.165664e-002
1.257381e+003,1.105950e-002
1.259310e+003,1.033080e-002
1.261238e+003,9.625699e-003
1.263167e+003,8.924805e-003
1.265095e+003,8.407041e-003
1.267023e+003,8.023970e-003
1.268952e+003,7.848550e-003
1.270880e+003,7.672004e-003
1.272809e+003,7.588051e-003
1.274738e+003,7.511549e-003
1.276666e+003,7.500257e-003
1.278594e+003,7.441476e-003
1.280523e+003,7.521186e-003
1.282451e+003,7.589508e-003
1.284380e+003,7.766180e-003
1.286308e+003,7.940538e-003
1.288237e+003,8.206286e-003
1.290166e+003,8.434910e-003
1.292094e+003,8.830130e-003
1.294022e+003,9.244476e-003
1.295951e+003,9.687796e-003
1.297879e+003,9.988260e-003
1.299808e+003,1.028353e-002
1.301736e+003,1.040439e-002
1.303665e+003,1.047095e-002
1.305594e+003,1.035373e-002
1.307522e+003,1.020949e-002
1.309450e+003,9.858761e-003
1.311379e+003,9.518065e-003
1.313307e+003,9.053107e-003
1.315236e+003,8.640293e-003
1.317164e+003,8.168433e-003
1.319093e+003,7.760189e-003
1.321021e+003,7.274728e-003
1.322950e+003,6.969728e-003
1.324878e+003,6.704714e-003
1.326807e+003,6.618842e-003
1.328735e+003,6.544337e-003
1.330664e+003,6.650314e-003
1.332592e+003,6.837085e-003
1.334521e+003,7.265240e-003
1.336449e+003,7.792100e-003
1.338378e+003,8.571479e-003
1.340306e+003,9.258661e-003
1.342235e+003,9.761281e-003
1.344163e+003,1.016325e-002
1.346092e+003,1.082895e-002
1.348021e+003,1.150900e-002
1.349949e+003,1.226798e-002
1.351877e+003,1.262173e-002
1.353806e+003,1.269215e-002
1.355734e+003,1.249629e-002
1.357663e+003,1.257528e-002
1.359591e+003,1.289493e-002
1.361520e+003,1.368291e-002
1.363448e+003,1.481164e-002
1.365377e+003,1.595714e-002
1.367305e+003,1.674317e-002
1.369234e+003,1.683062e-002
1.371162e+003,1.587357e-002
1.373091e+003,1.495262e-002
1.375019e+003,1.482832e-002
1.376948e+003,1.494233e-002
1.378876e+003,1.311754e-002
1.380805e+003,1.021269e-002
1.382733e+003,8.022033e-003
1.384662e+003,7.080682e-003
1.386590e+003,6.514598e-003
1.388519e+003,6.305903e-003
1.390447e+003,5.988646e-003
1.392376e+003,5.965341e-003
1.394304e+003,5.872440e-003
1.396233e+003,6.043080e-003
1.398161e+003,5.980391e-003
1.400090e+003,6.127983e-003
1.402018e+003,6.004591e-003
1.403947e+003,6.194510e-003
1.405875e+003,6.187305e-003
1.407804e+003,6.390493e-003
1.409732e+003,6.449193e-003
1.411661e+003,6.812945e-003
1.413589e+003,6.899029e-003
1.415518e+003,7.273253e-003
1.417446e+003,7.429853e-003
1.419375e+003,8.245513e-003
1.421303e+003,8.666541e-003
1.423232e+003,9.755049e-003
1.425160e+003,1.115167e-002
1.427089e+003,1.310884e-002
1.429017e+003,1.558968e-002
1.430946e+003,1.925513e-002
1.432874e+003,2.212689e-002
1.434803e+003,2.492522e-002
1.436731e+003,2.787541e-002
1.438660e+003,3.060510e-002
1.440588e+003,3.201196e-002
1.442517e+003,3.401709e-002
1.444445e+003,3.552624e-002
1.446374e+003,3.798735e-002
1.448302e+003,4.147870e-002
1.450231e+003,4.679368e-002
1.452159e+003,5.466609e-002
1.454088e+003,6.510556e-002
1.456016e+003,7.563905e-002
1.457945e+003,1.012994e-001
1.459873e+003,1.464992e-001
1.461802e+003,1.911334e-001
1.463730e+003,1.905987e-001
1.465659e+003,1.501647e-001
1.467587e+003,1.389716e-001
1.469516e+003,1.383584e-001
1.471444e+003,1.573764e-001
1.473373e+003,1.377593e-001
1.475301e+003,7.439464e-002
1.477230e+003,3.317102e-002
1.479158e+003,2.125959e-002
1.481087e+003,1.569824e-002
1.483015e+003,1.314926e-002
1.484944e+003,1.104543e-002
1.486872e+003,1.042140e-002
1.488801e+003,9.159483e-003
1.490729e+003,9.046085e-003
1.492658e+003,7.888563e-003
1.494586e+003,7.768538e-003
1.496515e+003,7.021353e-003
1.498443e+003,7.210400e-003
1.500372e+003,6.585766e-003
1.502300e+003,6.574638e-003
1.504229e+003,6.001737e-003
1.506157e+003,6.430376e-003
1.508086e+003,6.112114e-003
1.510014e+003,6.394967e-003
1.511943e+003,5.901542e-003
1.513871e+003,6.112389e-003
1.515800e+003,5.970180e-003
1.517728e+003,6.316487e-003
1.519657e+003,6.034125e-003
1.521585e+003,6.443221e-003
1.523514e+003,5.968407e-003
1.525442e+003,6.153695e-003
1.527371e+003,5.844951e-003
1.529299e+003,5.985055e-003
1.531228e+003,5.834766e-003
1.533156e+003,6.164808e-003
1.535085e+003,5.972363e-003
1.537013e+003,6.077819e-003
1.538942e+003,5.912628e-003
1.540870e+003,6.753445e-003
1.542799e+003,6.314307e-003
1.544727e+003,6.303303e-003
1.546656e+003,5.787510e-003
1.548584e+003,5.832005e-003
1.550513e+003,5.710550e-003
1.552441e+003,5.704250e-003
1.554370e+003,5.394384e-003
1.556298e+003,5.465269e-003
1.558227e+003,5.243167e-003
1.560155e+003,5.437560e-003
1.562084e+003,4.948173e-003
1.564012e+003,4.856821e-003
1.565941e+003,4.626863e-003
1.567869e+003,4.795909e-003
1.569798e+003,4.766442e-003
1.571726e+003,4.708506e-003
1.573655e+003,4.527681e-003
1.575583e+003,4.699863e-003
1.577512e+003,4.628964e-003
1.579440e+003,4.625212e-003
1.581369e+003,4.479151e-003
1.583297e+003,4.488345e-003
1.585226e+003,4.393324e-003
1.587154e+003,4.530508e-003
1.589083e+003,4.464615e-003
1.591011e+003,4.510671e-003
1.592940e+003,4.421387e-003
1.594868e+003,4.525863e-003
1.596797e+003,4.463959e-003
1.598725e+003,4.493419e-003
1.600654e+003,4.479904e-003
1.602582e+003,4.616857e-003
1.604511e+003,4.520915e-003
1.606439e+003,4.649077e-003
1.608368e+003,4.693143e-003
1.610296e+003,4.848022e-003
1.612225e+003,4.850682e-003
1.614153e+003,4.997682e-003
1.616082e+003,5.165614e-003
1.618010e+003,5.508464e-003
1.619939e+003,5.479902e-003
1.621867e+003,5.660556e-003
1.623796e+003,5.796339e-003
1.625724e+003,6.062843e-003
1.627653e+003,6.269831e-003
1.629581e+003,6.473105e-003
1.631510e+003,6.407864e-003
1.633438e+003,6.484870e-003
1.635367e+003,6.728858e-003
1.637295e+003,7.274766e-003
1.639224e+003,7.268298e-003
1.641152e+003,7.284038e-003
1.643081e+003,7.215343e-003
1.645009e+003,7.460009e-003
1.646938e+003,7.730115e-003
1.648866e+003,7.590827e-003
1.650795e+003,7.305451e-003
1.652723e+003,7.628109e-003
1.654652e+003,7.634275e-003
1.656580e+003,7.506277e-003
1.658509e+003,7.227588e-003
1.660437e+003,7.173728e-003
1.662366e+003,7.082231e-003
1.664294e+003,6.962199e-003
1.666223e+003,6.684069e-003
1.668151e+003,6.638274e-003
1.670080e+003,6.392729e-003
1.672008e+003,6.113466e-003
1.673937e+003,5.817242e-003
1.675865e+003,5.724553e-003
1.677794e+003,5.453631e-003
1.679722e+003,5.311251e-003
1.681651e+003,4.999496e-003
1.683579e+003,4.936267e-003
1.685508e+003,4.517503e-003
1.687436e+003,4.334264e-003
1.689365e+003,3.967766e-003
1.691293e+003,3.728133e-003
1.693222e+003,3.429946e-003
1.695150e+003,3.252205e-003
1.697079e+003,2.902120e-003
1.699007e+003,2.864163e-003
1.700936e+003,2.480585e-003
1.702864e+003,2.477914e-003
1.704793e+003,2.269253e-003
1.706721e+003,2.302796e-003
1.708650e+003,2.228081e-003
1.710578e+003,2.224084e-003
1.712507e+003,2.078809e-003
1.714435e+003,2.216440e-003
1.716364e+003,2.304785e-003
1.718292e+003,2.477847e-003
1.720221e+003,2.297800e-003
1.722149e+003,2.232842e-003
1.724078e+003,2.144713e-003
1.726006e+003,2.209049e-003
1.727935e+003,2.164498e-003
1.729863e+003,2.347361e-003
1.731792e+003,2.369884e-003
1.733720e+003,2.551630e-003
1.735649e+003,2.384190e-003
1.737577e+003,2.380989e-003
1.739506e+003,2.228662e-003
1.741434e+003,2.239227e-003
1.743363e+003,2.107408e-003
1.745291e+003,1.977768e-003
1.747220e+003,1.689106e-003
1.749148e+003,1.610871e-003
1.751077e+003,1.391862e-003
1.753005e+003,1.170754e-003
1.754934e+003,9.409711e-004
1.756862e+003,8.863136e-004
1.758791e+003,6.642677e-004
1.760719e+003,6.592125e-004
1.762648e+003,5.849041e-004
1.764576e+003,5.409718e-004
1.766505e+003,4.179887e-004
1.768433e+003,5.035326e-004
1.770362e+003,4.259534e-004
1.772290e+003,5.556680e-004
1.774219e+003,3.423803e-004
1.776147e+003,2.342500e-004
1.778076e+003,8.830428e-005
1.780004e+003,1.816675e-004
1.781933e+003,1.045838e-004
1.783861e+003,1.332872e-004
1.785790e+003,7.490069e-005
1.787718e+003,1.226366e-004
1.789646e+003,3.067032e-005
1.791575e+003,1.898482e-004
1.793504e+003,1.572594e-004
1.795432e+003,2.250448e-004
1.797361e+003,1.288913e-004
1.799289e+003,2.159178e-004
1.801218e+003,1.868010e-004
1.803146e+003,1.414716e-004
1.805074e+003,-4.818663e-005
1.807003e+003,-7.331371e-005
1.808932e+003,-1.582690e-004
1.810860e+003,-1.123399e-004
1.812789e+003,-3.588349e-004
1.814717e+003,-6.273277e-004
1.816646e+003,-8.442029e-004
1.818574e+003,-4.500821e-004
1.820502e+003,-3.533326e-004
1.822431e+003,-2.607293e-004
1.824360e+003,-4.043430e-004
1.826288e+003,-4.323907e-004
1.828217e+003,-5.173944e-004
1.830145e+003,-4.447289e-004
1.832073e+003,-7.484891e-004
1.834002e+003,-8.062050e-004
1.835931e+003,-8.613430e-004
1.837859e+003,-7.052943e-004
1.839788e+003,-8.913651e-004
1.841716e+003,-9.021312e-004
1.843645e+003,-1.037329e-003
1.845573e+003,-8.875020e-004
1.847501e+003,-1.030073e-003
1.849430e+003,-8.515604e-004
1.851359e+003,-1.040012e-003
1.853287e+003,-9.954236e-004
1.855216e+003,-9.894483e-004
1.857144e+003,-8.591898e-004
1.859073e+003,-1.065258e-003
1.861001e+003,-1.053669e-003
1.862929e+003,-1.195021e-003
1.864858e+003,-1.134943e-003
1.866787e+003,-1.303848e-003
1.868715e+003,-1.161419e-003
1.870644e+003,-1.106273e-003
1.872572e+003,-9.017177e-004
1.874500e+003,-1.102939e-003
1.876429e+003,-1.098536e-003
1.878357e+003,-1.279343e-003
1.880286e+003,-1.226649e-003
1.882215e+003,-1.327511e-003
1.884143e+003,-1.174506e-003
1.886072e+003,-1.317065e-003
1.888000e+003,-1.035217e-003
1.889928e+003,-8.981526e-004
1.891857e+003,-5.026162e-004
1.893785e+003,-5.352199e-004
1.895714e+003,-3.815480e-004
1.897643e+003,-6.453320e-004
1.899571e+003,-4.794598e-004
1.901500e+003,-4.737154e-004
1.903428e+003,-4.679784e-004
1.905356e+003,-4.622601e-004
1.907285e+003,-4.565567e-004
1.909213e+003,-4.508570e-004
1.911142e+003,-4.451685e-004
1.913071e+003,-4.394948e-004
1.914999e+003,-4.338287e-004
1.916927e+003,-4.281811e-004
1.918856e+003,-4.225336e-004
1.920784e+003,-4.169047e-004
1.922713e+003,-4.112870e-004
1.924641e+003,-4.056804e-004
1.926570e+003,-4.000776e-004
1.928499e+003,-3.944896e-004
1.930427e+003,-3.889203e-004
1.932355e+003,-3.833622e-004
1.934284e+003,-3.778040e-004
1.936212e+003,-3.722608e-004
1.938141e+003,-3.667325e-004
1.940070e+003,-3.612153e-004
1.941998e+003,-3.557093e-004
1.943927e+003,-3.502145e-004
1.945855e+003,-3.447309e-004
1.947783e+003,-3.392585e-004
1.949712e+003,-3.337935e-004
1.951640e+003,-3.283396e-004
1.953569e+003,-3.229044e-004
1.955498e+003,-3.174730e-004
1.957426e+003,-3.120564e-004
1.959354e+003,-3.066510e-004
1.961283e+003,-3.012568e-004
1.963211e+003,-2.958737e-004
1.965140e+003,-2.905056e-004
1.967068e+003,-2.851449e-004
1.968997e+003,-2.797954e-004
1.970926e+003,-2.744533e-004
1.972854e+003,-2.691261e-004
1.974782e+003,-2.638102e-004
1.976711e+003,-2.585053e-004
1.978639e+003,-2.532117e-004
1.980568e+003,-2.479292e-004
1.982496e+003,-2.426617e-004
1.984425e+003,-2.373978e-004
1.986354e+003,-2.321489e-004
1.988282e+003,-2.269112e-004
1.990210e+003,-2.216883e-004
1.992139e+003,-2.164729e-004
1.994067e+003,-2.112687e-004
1.995996e+003,-2.060756e-004
1.997924e+003,-2.008937e-004
1.999853e+003,-1.957268e-004
2.001781e+003,-1.905672e-004
2.003710e+003,-1.854189e-004
2.005638e+003,-1.802854e-004
2.007567e+003,-1.751594e-004
2.009495e+003,-1.700446e-004
2.011424e+003,-1.649410e-004
2.013352e+003,-1.598485e-004
2.015281e+003,-1.547709e-004
2.017209e+003,-1.497082e-004
2.019138e+003,-1.446456e-004
2.021066e+003,-1.395978e-004
2.022995e+003,-1.345612e-004
2.024923e+003,-1.295395e-004
2.026852e+003,-1.245290e-004
2.028781e+003,-1.195259e-004
2.030709e+003,-1.145378e-004
2.032637e+003,-1.095533e-004
2.034566e+003,-1.045913e-004
2.036494e+003,-9.963289e-005
2.038423e+003,-9.468943e-005
2.040351e+003,-8.975342e-005
2.042280e+003,-8.483231e-005
2.044208e+003,-7.992238e-005
2.046137e+003,-7.501990e-005
2.048065e+003,-7.013232e-005
2.049994e+003,-6.525218e-005
2.051922e+003,-6.039068e-005
2.053851e+003,-5.553290e-005
2.055779e+003,-5.068257e-005
2.057708e+003,-4.585460e-005
2.059636e+003,-4.103407e-005
2.061565e+003,-3.622845e-005
2.063493e+003,-3.142655e-005
2.065422e+003,-2.663955e-005
2.067350e+003,-2.186745e-005
2.069279e+003,-1.709536e-005
2.071207e+003,-1.233816e-005
2.073136e+003,-7.599592e-006
2.075064e+003,-2.864748e-006
2.076993e+003,1.847744e-006
2.078921e+003,6.560236e-006
2.080850e+003,1.125410e-005
2.082778e+003,1.594424e-005
2.084707e+003,2.062693e-005
2.086635e+003,2.528727e-005
2.088564e+003,2.994016e-005
2.090492e+003,3.458187e-005
2.092421e+003,3.920496e-005
2.094349e+003,4.382804e-005
2.096278e+003,4.843622e-005
2.098206e+003,5.303696e-005
2.100135e+003,5.762652e-005
2.102063e+003,6.219745e-005
2.103992e+003,6.675720e-005
2.105920e+003,7.130578e-005
2.107849e+003,7.585064e-005
2.109777e+003,8.037686e-005
2.111706e+003,8.489192e-005
2.113634e+003,8.940697e-005
2.115563e+003,9.390339e-005
2.117491e+003,9.838492e-005
2.119420e+003,1.028553e-004
2.121348e+003,1.073182e-004
2.123277e+003,1.117662e-004
2.125205e+003,1.162067e-004
2.127134e+003,1.206361e-004
2.129062e+003,1.250543e-004
2.130991e+003,1.294613e-004
2.132919e+003,1.338571e-004
2.134848e+003,1.382381e-004
2.136776e+003,1.426041e-004
2.138705e+003,1.469739e-004
2.140633e+003,1.513176e-004
2.142562e+003,1.556613e-004
2.144490e+003,1.599900e-004
2.146419e+003,1.643002e-004
2.148347e+003,1.686066e-004
2.150276e+003,1.728982e-004
2.152204e+003,1.771785e-004
2.154133e+003,1.814514e-004
2.156061e+003,1.857206e-004
2.157990e+003,1.899637e-004
2.159918e+003,1.941957e-004
2.161847e+003,1.984239e-004
2.163775e+003,2.026409e-004
2.165704e+003,2.068393e-004
2.167632e+003,2.110265e-004
2.169561e+003,2.152100e-004
2.171489e+003,2.193823e-004
2.173418e+003,2.235435e-004
2.175346e+003,2.276935e-004
2.177275e+003,2.318285e-004
2.179203e+003,2.359487e-004
2.181132e+003,2.400614e-004
2.183060e+003,2.441593e-004
2.184989e+003,2.482533e-004
2.186917e+003,2.523363e-004
2.188846e+003,2.564080e-004
2.190774e+003,2.604686e-004
2.192703e+003,2.645068e-004
2.194631e+003,2.685376e-004
2.196560e+003,2.725646e-004
2.198488e+003,2.765730e-004
2.200417e+003,2.805851e-004
2.202345e+003,2.845749e-004
2.204274e+003,2.885498e-004
2.206202e+003,2.925210e-004
2.208131e+003,2.964772e-004
2.210059e+003,3.004186e-004
2.211988e+003,3.043488e-004
2.213916e+003,3.082640e-004
2.215845e+003,3.121793e-004
2.217773e+003,3.160872e-004
2.219702e+003,3.199689e-004
2.221630e+003,3.238544e-004
2.223559e+003,3.277175e-004
2.225487e+003,3.315769e-004
2.227416e+003,3.354140e-004
2.229344e+003,3.392473e-004
2.231273e+003,3.430769e-004
2.233201e+003,3.468841e-004
2.235130e+003,3.506802e-004
2.237058e+003,3.544725e-004
2.238987e+003,3.582388e-004
2.240915e+003,3.620051e-004
2.242844e+003,3.657565e-004
2.244772e+003,3.695078e-004
2.246701e+003,3.732368e-004
2.248629e+003,3.769584e-004
2.250558e+003,3.806651e-004
2.252486e+003,3.843680e-004
2.254415e+003,3.880486e-004
2.256343e+003,3.917255e-004
2.258272e+003,3.953874e-004
2.260200e+003,3.990382e-004
2.262129e+003,4.026890e-004
2.264057e+003,4.063137e-004
2.265986e+003,4.099309e-004
2.267914e+003,4.135408e-004
2.269843e+003,4.171319e-004
2.271771e+003,4.207231e-004
2.273700e+003,4.242919e-004
2.275628e+003,4.278645e-004
2.277557e+003,4.314110e-004
2.279485e+003,4.349537e-004
2.281414e+003,4.384853e-004
2.283342e+003,4.419982e-004
2.285271e+003,4.455000e-004
2.287199e+003,4.489943e-004
2.289128e+003,4.524849e-004
2.291056e+003,4.559644e-004
2.292985e+003,4.594214e-004
2.294913e+003,4.628710e-004
2.296842e+003,4.663132e-004
2.298770e+003,4.697368e-004
2.300699e+003,4.731528e-004
2.302627e+003,4.765615e-004
2.304556e+003,4.799552e-004
2.306484e+003,4.833415e-004
2.308413e+003,4.867092e-004
2.310341e+003,4.900694e-004
2.312270e+003,4.934184e-004
2.314198e+003,4.967600e-004
2.316127e+003,5.000830e-004
2.318055e+003,5.033948e-004
2.319984e+003,5.067065e-004
2.321912e+003,5.100034e-004
2.323841e+003,5.132817e-004
2.325769e+003,5.165450e-004
2.327698e+003,5.198121e-004
2.329626e+003,5.230606e-004
2.331555e+003,5.262941e-004
2.333483e+003,5.295277e-004
2.335412e+003,5.327314e-004
2.337340e+003,5.359426e-004
2.339269e+003,5.391389e-004
2.341197e+003,5.423129e-004
2.343126e+003,5.454794e-004
2.345054e+003,5.486384e-004
2.346983e+003,5.517974e-004
2.348911e+003,5.549267e-004
2.350840e+003,5.580485e-004
2.352768e+003,5.611703e-004
2.354697e+003,5.642623e-004
2.356625e+003,5.673543e-004
2.358554e+003,5.704314e-004
2.360482e+003,5.735010e-004
2.362411e+003,5.765557e-004
2.364339e+003,5.796030e-004
2.366268e+003,5.826429e-004
2.368196e+003,5.856678e-004
2.370125e+003,5.886704e-004
2.372053e+003,5.916804e-004
2.373982e+003,5.946681e-004
2.375910e+003,5.976483e-004
2.377839e+003,6.006211e-004
2.379767e+003,6.035715e-004
2.381696e+003,6.065145e-004
2.383624e+003,6.094426e-004
2.385553e+003,6.123707e-004
2.387481e+003,6.152838e-004
2.389410e+003,6.181821e-004
2.391338e+003,6.210729e-004
2.393267e+003,6.239489e-004
2.395195e+003,6.268099e-004
2.397124e+003,6.296635e-004
2.399052e+003,6.325096e-004
2.400981e+003,7.029176e-004
2.402909e+003,6.569847e-004
2.404838e+003,6.795824e-004
2.406766e+003,7.936582e-004
2.408695e+003,1.060754e-003
2.410623e+003,1.253627e-003
2.412552e+003,1.227804e-003
2.414480e+003,1.048304e-003
2.416409e+003,1.227878e-003
2.418337e+003,1.240365e-003
2.420266e+003,1.194283e-003
2.422194e+003,1.207016e-003
2.424123e+003,1.190312e-003
2.426051e+003,1.019999e-003
2.427979e+003,1.116134e-003
2.429908e+003,1.271680e-003
2.431837e+003,1.276232e-003
2.433765e+003,1.200408e-003
2.435694e+003,1.154788e-003
2.437622e+003,1.116239e-003
2.439551e+003,1.128674e-003
2.441479e+003,1.031004e-003
2.443407e+003,1.038380e-003
2.445336e+003,1.118921e-003
2.447265e+003,1.133792e-003
2.449193e+003,1.115225e-003
2.451122e+003,1.198970e-003
2.453050e+003,1.219906e-003
2.454979e+003,1.397260e-003
2.456907e+003,1.419224e-003
2.458836e+003,1.369268e-003
2.460764e+003,1.260236e-003
2.462693e+003,1.289517e-003
2.464621e+003,1.307435e-003
2.466550e+003,1.346283e-003
2.468478e+003,1.403473e-003
2.470406e+003,1.460761e-003
2.472335e+003,1.482688e-003
2.474264e+003,1.648955e-003
2.476192e+003,1.815952e-003
2.478121e+003,1.826741e-003
2.480049e+003,1.737416e-003
2.481978e+003,1.845159e-003
2.483906e+003,1.884133e-003
2.485835e+003,1.842029e-003
2.487763e+003,1.685381e-003
2.489692e+003,1.633644e-003
2.491620e+003,1.664177e-003
2.493549e+003,1.820669e-003
2.495477e+003,1.847416e-003
2.497406e+003,1.744710e-003
2.499334e+003,1.782365e-003
2.501263e+003,1.975305e-003
2.503191e+003,2.156623e-003
2.505120e+003,2.153777e-003
2.507048e+003,2.015345e-003
2.508977e+003,2.146222e-003
2.510905e+003,2.293631e-003
2.512833e+003,2.332874e-003
2.514762e+003,2.355002e-003
2.516691e+003,2.470009e-003
2.518619e+003,2.551012e-003
2.520548e+003,2.683006e-003
2.522476e+003,2.840728e-003
2.524405e+003,3.089465e-003
2.526333e+003,3.210180e-003
2.528261e+003,3.188893e-003
2.530190e+003,2.996154e-003
2.532119e+003,2.994277e-003
2.534047e+003,2.967298e-003
2.535976e+003,2.971642e-003
2.537904e+003,3.021404e-003
2.539833e+003,3.111467e-003
2.541761e+003,3.242999e-003
2.543689e+003,3.414169e-003
2.545618e+003,3.565259e-003
2.547547e+003,3.850713e-003
2.549475e+003,3.977865e-003
2.551404e+003,3.963530e-003
2.553332e+003,3.976367e-003
2.555260e+003,4.120350e-003
2.557189e+003,4.292518e-003
2.559117e+003,4.387423e-003
2.561046e+003,4.249260e-003
2.562975e+003,4.324116e-003
2.564903e+003,4.462078e-003
2.566832e+003,4.620895e-003
2.568760e+003,4.866943e-003
2.570688e+003,5.110405e-003
2.572617e+003,5.282603e-003
2.574546e+003,5.447537e-003
2.576474e+003,5.744204e-003
2.578403e+003,6.058037e-003
2.580331e+003,6.191224e-003
2.582260e+003,6.303377e-003
2.584188e+003,6.458595e-003
2.586116e+003,6.686978e-003
2.588045e+003,6.888293e-003
2.589974e+003,7.207558e-003
2.591902e+003,7.441372e-003
2.593831e+003,7.584669e-003
2.595759e+003,7.771865e-003
2.597688e+003,8.008346e-003
2.599616e+003,8.151963e-003
2.601544e+003,8.420549e-003
2.603473e+003,8.715592e-003
2.605402e+003,9.039201e-003
2.607330e+003,9.271033e-003
2.609259e+003,9.530045e-003
2.611187e+003,9.837791e-003
2.613115e+003,1.016921e-002
2.615044e+003,1.048528e-002
2.616972e+003,1.083458e-002
2.618901e+003,1.110281e-002
2.620830e+003,1.153596e-002
2.622758e+003,1.208329e-002
2.624687e+003,1.247819e-002
2.626615e+003,1.285868e-002
2.628543e+003,1.333007e-002
2.630472e+003,1.376459e-002
2.632400e+003,1.419152e-002
2.634329e+003,1.443543e-002
2.636258e+003,1.452474e-002
2.638186e+003,1.454443e-002
2.640115e+003,1.451122e-002
2.642043e+003,1.450513e-002
2.643971e+003,1.457719e-002
2.645900e+003,1.460029e-002
2.647828e+003,1.462142e-002
2.649757e+003,1.472303e-002
2.651686e+003,1.489183e-002
2.653614e+003,1.510555e-002
2.655542e+003,1.523323e-002
2.657471e+003,1.530115e-002
2.659399e+003,1.531546e-002
2.661328e+003,1.521704e-002
2.663256e+003,1.501495e-002
2.665185e+003,1.483524e-002
2.667114e+003,1.472844e-002
2.669042e+003,1.455351e-002
2.670970e+003,1.438682e-002
2.672899e+003,1.416684e-002
2.674827e+003,1.401282e-002
2.676756e+003,1.390551e-002
2.678685e+003,1.373704e-002
2.680613e+003,1.358947e-002
2.682542e+003,1.347097e-002
2.684470e+003,1.332645e-002
2.686398e+003,1.317137e-002
2.688327e+003,1.305249e-002
2.690255e+003,1.299583e-002
2.692184e+003,1.288117e-002
2.694113e+003,1.277921e-002
2.696041e+003,1.279487e-002
2.697969e+003,1.285719e-002
2.699898e+003,1.295657e-002
2.701826e+003,1.310743e-002
2.703755e+003,1.331369e-002
2.705683e+003,1.353803e-002
2.707612e+003,1.370260e-002
2.709541e+003,1.382235e-002
2.711469e+003,1.394428e-002
2.713397e+003,1.406427e-002
2.715326e+003,1.420157e-002
2.717254e+003,1.444558e-002
2.719183e+003,1.466639e-002
2.721111e+003,1.491445e-002
2.723040e+003,1.520269e-002
2.724969e+003,1.544542e-002
2.726897e+003,1.571640e-002
2.728825e+003,1.606780e-002
2.730754e+003,1.633491e-002
2.732682e+003,1.656158e-002
2.734611e+003,1.675091e-002
2.736539e+003,1.692340e-002
2.738468e+003,1.709671e-002
2.740396e+003,1.724192e-002
2.742325e+003,1.729643e-002
2.744253e+003,1.727842e-002
2.746182e+003,1.719479e-002
2.748110e+003,1.719396e-002
2.750039e+003,1.727675e-002
2.751967e+003,1.744703e-002
2.753896e+003,1.768961e-002
2.755824e+003,1.802453e-002
2.757753e+003,1.837373e-002
2.759681e+003,1.876354e-002
2.761610e+003,1.915806e-002
2.763538e+003,1.958483e-002
2.765467e+003,2.008088e-002
2.767395e+003,2.059130e-002
2.769324e+003,2.112240e-002
2.771252e+003,2.173208e-002
2.773181e+003,2.241266e-002
2.775109e+003,2.324793e-002
2.777038e+003,2.421394e-002
2.778966e+003,2.520354e-002
2.780895e+003,2.626167e-002
2.782823e+003,2.745059e-002
2.784752e+003,2.878189e-002
2.786680e+003,3.018952e-002
2.788609e+003,3.169239e-002
2.790537e+003,3.327583e-002
2.792466e+003,3.500946e-002
2.794394e+003,3.683568e-002
2.796323e+003,3.866618e-002
2.798251e+003,4.056615e-002
2.800180e+003,4.268157e-002
2.802108e+003,4.480818e-002
2.804037e+003,4.705988e-002
2.805965e+003,4.961337e-002
2.807894e+003,5.248465e-002
2.809822e+003,5.558807e-002
2.811751e+003,5.904108e-002
2.813679e+003,6.302840e-002
2.815608e+003,6.759275e-002
2.817536e+003,7.277006e-002
2.819465e+003,7.892773e-002
2.821393e+003,8.631404e-002
2.823322e+003,9.533286e-002
2.825250e+003,1.065318e-001
2.827179e+003,1.207127e-001
2.829107e+003,1.390176e-001
2.831036e+003,1.634248e-001
2.832964e+003,1.967812e-001
2.834893e+003,2.434269e-001
2.836821e+003,3.095477e-001
2.838750e+003,4.055639e-001
2.840678e+003,5.483395e-001
2.842607e+003,7.590717e-001
2.844535e+003,1.047014e+000
2.846464e+003,1.336805e+000
2.848392e+003,1.378000e+000
2.850321e+003,1.113136e+000
2.852249e+003,8.170592e-001
2.854178e+003,6.079119e-001
2.856106e+003,4.656034e-001
2.858035e+003,3.648967e-001
2.859963e+003,2.933550e-001
2.861892e+003,2.437946e-001
2.863820e+003,2.109255e-001
2.865749e+003,1.909095e-001
2.867677e+003,1.807106e-001
2.869606e+003,1.773894e-001
2.871534e+003,1.785774e-001
2.873463e+003,1.840494e-001
2.875391e+003,1.950747e-001
2.877320e+003,2.123966e-001
2.879248e+003,2.355110e-001
2.881177e+003,2.631383e-001
2.883105e+003,2.941933e-001
2.885034e+003,3.282783e-001
2.886962e+003,3.646833e-001
2.888891e+003,4.026237e-001
2.890819e+003,4.413171e-001
2.892748e+003,4.797659e-001
2.894676e+003,5.177543e-001
2.896605e+003,5.561712e-001
2.898533e+003,5.967307e-001
2.900462e+003,6.423787e-001
2.902390e+003,6.976657e-001
2.904319e+003,7.696567e-001
2.906247e+003,8.680004e-001
2.908176e+003,1.003261e+000
2.910104e+003,1.182799e+000
2.912033e+003,1.391502e+000
2.913961e+003,1.553555e+000
2.915890e+003,1.557752e+000
2.917818e+003,1.398450e+000
2.919747e+003,1.181963e+000
2.921675e+003,9.822718e-001
2.923604e+003,8.181063e-001
2.925532e+003,6.869972e-001
2.927461e+003,5.806945e-001
2.929389e+003,4.918619e-001
2.931318e+003,4.162720e-001
2.933246e+003,3.514970e-001
2.935175e+003,2.961939e-001
2.937103e+003,2.492601e-001
2.939032e+003,2.096962e-001
2.940960e+003,1.768337e-001
2.942889e+003,1.501787e-001
2.944817e+003,1.295448e-001
2.946746e+003,1.144552e-001
2.948674e+003,1.040008e-001
2.950603e+003,9.676195e-002
2.952531e+003,9.104541e-002
2.954460e+003,8.558851e-002
2.956388e+003,8.005837e-002
2.958317e+003,7.427992e-002
2.960245e+003,6.818696e-002
2.962174e+003,6.179591e-002
2.964102e+003,5.531315e-002
2.966031e+003,4.904568e-002
2.967959e+003,4.344625e-002
2.969888e+003,3.862529e-002
2.971816e+003,3.449727e-002
2.973745e+003,3.104785e-002
2.975673e+003,2.826064e-002
2.977602e+003,2.595487e-002
2.979530e+003,2.401431e-002
2.981459e+003,2.226835e-002
2.983387e+003,2.086456e-002
2.985316e+003,1.968565e-002
2.987244e+003,1.859278e-002
2.989173e+003,1.763634e-002
2.991101e+003,1.687805e-002
2.993030e+003,1.616756e-002
2.994958e+003,1.547844e-002
2.996887e+003,1.482541e-002
2.998815e+003,1.432262e-002
3.000744e+003,1.389686e-002
3.002672e+003,1.348495e-002
3.004601e+003,1.306929e-002
3.006529e+003,1.267036e-002
3.008458e+003,1.235753e-002
3.010386e+003,1.209564e-002
3.012315e+003,1.178987e-002
3.014243e+003,1.147391e-002
3.016172e+003,1.121795e-002
3.018100e+003,1.105089e-002
3.020029e+003,1.092348e-002
3.021957e+003,1.077000e-002
3.023886e+003,1.053508e-002
3.025814e+003,1.028495e-002
3.027743e+003,1.015976e-002
3.029671e+003,9.982489e-003
3.031600e+003,9.739883e-003
3.033528e+003,9.552233e-003
3.035457e+003,9.317406e-003
3.037385e+003,9.046696e-003
3.039314e+003,8.738093e-003
3.041242e+003,8.376554e-003
3.043171e+003,8.108221e-003
3.045099e+003,7.943958e-003
3.047028e+003,7.748134e-003
3.048956e+003,7.508129e-003
3.050885e+003,7.297300e-003
3.052813e+003,7.114835e-003
3.054742e+003,6.896161e-003
3.056670e+003,6.669000e-003
3.058599e+003,6.595872e-003
3.060527e+003,6.542727e-003
3.062456e+003,6.425880e-003
3.064384e+003,6.301574e-003
3.066313e+003,6.149501e-003
3.068241e+003,5.995505e-003
3.070170e+003,5.870499e-003
3.072098e+003,5.831383e-003
3.074027e+003,5.757011e-003
3.075955e+003,5.685374e-003
3.077884e+003,5.614422e-003
3.079812e+003,5.474262e-003
3.081741e+003,5.310439e-003
3.083669e+003,5.140960e-003
3.085598e+003,5.001567e-003
3.087526e+003,4.865736e-003
3.089455e+003,4.658371e-003
3.091383e+003,4.449680e-003
3.093312e+003,4.257850e-003
3.095240e+003,4.035972e-003
3.097169e+003,3.736436e-003
3.099097e+003,3.465779e-003
3.101026e+003,3.253192e-003
3.102954e+003,3.042571e-003
3.104883e+003,2.853133e-003
3.106811e+003,2.763741e-003
3.108740e+003,2.703577e-003
3.110668e+003,2.540343e-003
3.112597e+003,2.472498e-003
3.114525e+003,2.479345e-003
3.116454e+003,2.342127e-003
3.118382e+003,2.170563e-003
3.120311e+003,2.124369e-003
3.122239e+003,2.161495e-003
3.124168e+003,2.143182e-003
3.126096e+003,2.065480e-003
3.128025e+003,2.069637e-003
3.129953e+003,2.078556e-003
3.131882e+003,2.022699e-003
3.133810e+003,1.994357e-003
3.135739e+003,1.988053e-003
3.137667e+003,1.963526e-003
3.139596e+003,1.963392e-003
3.141524e+003,2.075233e-003
3.143453e+003,2.083056e-003
3.145381e+003,2.011240e-003
3.147310e+003,2.026804e-003
3.149238e+003,2.029367e-003
3.151167e+003,1.937091e-003
3.153095e+003,1.979277e-003
3.155024e+003,2.030209e-003
3.156952e+003,2.017252e-003
3.158881e+003,1.954988e-003
3.160809e+003,2.022542e-003
3.162738e+003,2.172142e-003
3.164666e+003,2.250202e-003
3.166594e+003,2.238318e-003
3.168523e+003,2.253301e-003
3.170452e+003,2.290495e-003
3.172380e+003,2.347708e-003
3.174309e+003,2.340093e-003
3.176237e+003,2.356946e-003
3.178166e+003,2.407886e-003
3.180094e+003,2.493434e-003
3.182022e+003,2.479337e-003
3.183951e+003,2.424777e-003
3.185880e+003,2.485447e-003
3.187808e+003,2.567060e-003
3.189737e+003,2.524517e-003
3.191665e+003,2.600595e-003
3.193594e+003,2.686255e-003
3.195522e+003,2.728030e-003
3.197450e+003,2.667025e-003
3.199379e+003,2.651088e-003
3.201308e+003,2.670139e-003
3.203236e+003,2.771050e-003
3.205165e+003,2.809010e-003
3.207093e+003,2.767801e-003
3.209021e+003,2.786614e-003
3.210950e+003,2.773851e-003
3.212878e+003,2.824850e-003
3.214807e+003,2.870902e-003
3.216736e+003,2.808638e-003
3.218664e+003,2.840266e-003
3.220593e+003,2.881035e-003
3.222521e+003,2.929948e-003
3.224449e+003,2.941504e-003
3.226378e+003,3.046684e-003
3.228307e+003,3.065616e-003
3.230235e+003,2.987601e-003
3.232164e+003,3.041849e-003
3.234092e+003,3.154553e-003
3.236021e+003,3.145970e-003
3.237949e+003,3.145047e-003
3.239877e+003,3.147908e-003
3.241806e+003,3.229484e-003
3.243735e+003,3.367767e-003
3.245663e+003,3.433384e-003
3.247592e+003,3.539070e-003
3.249520e+003,3.532372e-003
3.251448e+003,3.513440e-003
3.253377e+003,3.697939e-003
3.255305e+003,3.780074e-003
3.257234e+003,3.842101e-003
3.259163e+003,3.924534e-003
3.261091e+003,3.983133e-003
3.263020e+003,4.128501e-003
3.264948e+003,4.279837e-003
3.266876e+003,4.327416e-003
3.268805e+003,4.371688e-003
3.270733e+003,4.371047e-003
3.272662e+003,4.445076e-003
3.274591e+003,4.524752e-003
3.276519e+003,4.508868e-003
3.278448e+003,4.517339e-003
3.280376e+003,4.608348e-003
3.282304e+003,4.608281e-003
3.284233e+003,4.666165e-003
3.286161e+003,4.732370e-003
3.288090e+003,4.784785e-003
3.290019e+003,4.780248e-003
3.291947e+003,4.778609e-003
3.293875e+003,4.826464e-003
3.295804e+003,4.828818e-003
3.297732e+003,4.886679e-003
3.299661e+003,4.931159e-003
3.301589e+003,4.913658e-003
3.303518e+003,4.896961e-003
3.305447e+003,4.914783e-003
3.307375e+003,4.851744e-003
3.309303e+003,4.826866e-003
3.311232e+003,4.828714e-003
3.313160e+003,4.901960e-003
3.315089e+003,4.943773e-003
3.317018e+003,4.886530e-003
3.318946e+003,4.764162e-003
3.320875e+003,4.700616e-003
3.322803e+003,4.767366e-003
3.324731e+003,4.869290e-003
3.326660e+003,4.848838e-003
3.328588e+003,4.734911e-003
3.330517e+003,4.698403e-003
3.332446e+003,4.697636e-003
3.334374e+003,4.668966e-003
3.336302e+003,4.628196e-003
3.338231e+003,4.657656e-003
3.340159e+003,4.637897e-003
3.342088e+003,4.604608e-003
3.344016e+003,4.553281e-003
3.345945e+003,4.575849e-003
3.347874e+003,4.625730e-003
3.349802e+003,4.569307e-003
3.351730e+003,4.469223e-003
3.353659e+003,4.373886e-003
3.355587e+003,4.456334e-003
3.357516e+003,4.506625e-003
3.359444e+003,4.438147e-003
3.361373e+003,4.372925e-003
3.363302e+003,4.399039e-003
3.365230e+003,4.426971e-003
3.367158e+003,4.365191e-003
3.369087e+003,4.322097e-003
3.371015e+003,4.244536e-003
3.372944e+003,4.209794e-003
3.374872e+003,4.177518e-003
3.376801e+003,4.101761e-003
3.378729e+003,4.013471e-003
3.380658e+003,3.877424e-003
3.382586e+003,3.846891e-003
3.384515e+003,3.921956e-003
3.386443e+003,3.963754e-003
3.388372e+003,3.890246e-003
3.390300e+003,3.825530e-003
3.392229e+003,3.743306e-003
3.394157e+003,3.634550e-003
3.396086e+003,3.567889e-003
3.398014e+003,3.557704e-003
3.399943e+003,3.627971e-003
3.401871e+003,3.689378e-003
3.403800e+003,3.606424e-003
3.405728e+003,3.482237e-003
3.407657e+003,3.443114e-003
3.409585e+003,3.278129e-003
3.411514e+003,3.277861e-003
3.413442e+003,3.296442e-003
3.415371e+003,3.175236e-003
3.417299e+003,3.113918e-003
3.419228e+003,3.145136e-003
3.421156e+003,3.174566e-003
3.423085e+003,3.094457e-003
3.425013e+003,3.008798e-003
3.426942e+003,2.897322e-003
3.428870e+003,2.850190e-003
3.430799e+003,2.911463e-003
3.432727e+003,2.924658e-003
3.434656e+003,2.846546e-003
3.436584e+003,2.807789e-003
3.438513e+003,2.743140e-003
3.440441e+003,2.618514e-003
3.442370e+003,2.613045e-003
3.444298e+003,2.614394e-003
3.446227e+003,2.689198e-003
3.448155e+003,2.714872e-003
3.450084e+003,2.535015e-003
3.452012e+003,2.466775e-003
3.453941e+003,2.453849e-003
3.455869e+003,2.303161e-003
3.457798e+003,2.079763e-003
3.459726e+003,2.057649e-003
3.461655e+003,2.135344e-003
3.463583e+003,2.120204e-003
3.465512e+003,2.105787e-003
3.467440e+003,2.052210e-003
3.469369e+003,1.882173e-003
3.471297e+003,1.870416e-003
3.473226e+003,1.840577e-003
3.475154e+003,1.657248e-003
3.477083e+003,1.567475e-003
3.479011e+003,1.693845e-003
3.480940e+003,1.751997e-003
3.482868e+003,1.645088e-003
3.484797e+003,1.463875e-003
3.486725e+003,1.425147e-003
3.488654e+003,1.444876e-003
3.490582e+003,1.272768e-003
3.492511e+003,1.174696e-003
3.494439e+003,1.279615e-003
3.496368e+003,1.365460e-003
3.498296e+003,1.204774e-003
3.500225e+003,1.053952e-003
3.502153e+003,1.077123e-003
3.504082e+003,1.064993e-003
3.506010e+003,8.760467e-004
3.507939e+003,7.939413e-004
3.509867e+003,8.860156e-004
3.511796e+003,9.548292e-004
3.513724e+003,9.008273e-004
3.515653e+003,7.842481e-004
3.517581e+003,6.730035e-004
3.519510e+003,5.322620e-004
3.521438e+003,4.054680e-004
3.523367e+003,4.446954e-004
3.525295e+003,4.931837e-004
3.527224e+003,4.833713e-004
3.529152e+003,5.210638e-004
3.531081e+003,5.022585e-004
3.533009e+003,2.920702e-004
3.534938e+003,1.927540e-004
3.536866e+003,1.695976e-004
3.538795e+003,2.190471e-006
3.540723e+003,-9.568781e-005
3.542652e+003,-9.312481e-005
3.544580e+003,1.343340e-004
3.546509e+003,3.188252e-004
3.548437e+003,1.671761e-004
3.550366e+003,1.253411e-004
3.552294e+003,1.849085e-004
3.554223e+003,-7.433444e-005
3.556151e+003,-3.689975e-004
3.558080e+003,-3.625825e-004
3.560008e+003,-6.385893e-005
3.561937e+003,-1.163036e-004
3.563865e+003,-3.670603e-004
3.565794e+003,-2.998859e-004
3.567722e+003,1.564622e-007
3.569651e+003,-1.187474e-004
3.571579e+003,-3.926605e-004
3.573508e+003,-7.256642e-004
3.575436e+003,-7.982329e-004
3.577365e+003,-5.579442e-004
3.579293e+003,-2.922863e-004
3.581222e+003,-3.807172e-004
3.583150e+003,-5.353466e-004
3.585079e+003,-4.784465e-004
3.587007e+003,2.671033e-005
3.588936e+003,1.685098e-004
3.590864e+003,-6.543100e-005
3.592793e+003,7.645041e-005
3.594721e+003,3.886968e-004
3.596650e+003,6.292164e-004
3.598578e+003,1.117229e-003
3.600507e+003,1.511015e-003
3.602435e+003,1.436397e-003
3.604364e+003,1.228310e-003
3.606292e+003,1.063414e-003
3.608221e+003,1.188725e-003
3.610149e+003,1.137681e-003
3.612078e+003,1.056284e-003
3.614006e+003,6.208345e-004
3.615935e+003,6.050617e-005
3.617863e+003,-7.668883e-005
3.619792e+003,4.459918e-004
3.621720e+003,4.338324e-004
3.623649e+003,-1.857653e-004
3.625577e+003,-6.470531e-004
3.627506e+003,-3.416166e-004
3.629434e+003,7.500648e-004
3.631363e+003,4.075617e-004
3.633291e+003,-1.358911e-004
3.635220e+003,-4.845932e-004
3.637148e+003,-6.133914e-004
3.639077e+003,-2.513826e-004
3.641005e+003,1.036227e-004
3.642934e+003,1.763552e-005
3.644862e+003,-4.209951e-004
3.646791e+003,-8.509234e-004
3.648719e+003,1.477897e-004
3.650648e+003,9.995326e-004
3.652576e+003,1.476482e-004
3.654505e+003,-3.356561e-004
3.656433e+003,-3.288761e-004
3.658362e+003,-3.540367e-004
3.660290e+003,-5.077124e-004
3.662219e+003,-7.494166e-004
3.664147e+003,-1.227364e-003
3.666076e+003,-1.647279e-003
3.668004e+003,-1.756489e-003
3.669933e+003,-1.196496e-003
3.671861e+003,-8.948669e-004
3.673790e+003,-1.105696e-003
3.675718e+003,-6.196052e-004
3.677647e+003,-5.365238e-004
3.679575e+003,-6.725118e-004
3.681504e+003,-8.264631e-004
3.683432e+003,-9.225011e-004
3.685361e+003,-1.009524e-003
3.687289e+003,-8.885413e-004
3.689218e+003,-6.075650e-004
3.691146e+003,-3.594011e-004
3.693075e+003,-3.391579e-004
3.695003e+003,-2.722591e-004
3.696932e+003,-3.654063e-004
3.698860e+003,-7.043257e-004
3.700789e+003,-7.263571e-004
3.702717e+003,-6.511733e-004
3.704646e+003,-9.641498e-004
3.706574e+003,-1.230903e-003
3.708503e+003,-1.075558e-003
3.710431e+003,-5.297363e-004
3.712360e+003,-1.569465e-004
3.714288e+003,-4.728362e-004
3.716217e+003,-8.122250e-004
3.718145e+003,-9.000078e-004
3.720074e+003,-7.968470e-004
3.722002e+003,-6.908029e-004
3.723931e+003,-9.188652e-004
3.725859e+003,-9.307787e-004
3.727788e+003,-1.011468e-003
3.729716e+003,-1.237370e-003
3.731645e+003,-1.524009e-003
3.733573e+003,-1.062490e-003
3.735502e+003,-1.787990e-004
3.737430e+003,-6.625131e-004
3.739359e+003,-1.249932e-003
3.741287e+003,-1.359507e-003
3.743216e+003,-6.461963e-004
3.745144e+003,2.410561e-004
3.747073e+003,-2.154931e-004
3.749001e+003,-5.728453e-004
3.750930e+003,-7.088482e-005
3.752858e+003,2.025813e-005
3.754787e+003,-3.575087e-004
3.756715e+003,-6.766096e-004
3.758644e+003,-5.294681e-004
3.760572e+003,-2.706051e-004
3.762501e+003,-3.705546e-004
3.764429e+003,-2.484247e-004
3.766358e+003,-2.360642e-004
3.768286e+003,-4.096925e-004
3.770215e+003,-1.718253e-004
3.772143e+003,-1.580641e-004
3.774072e+003,-3.536940e-004
3.776000e+003,-4.622042e-004
3.777929e+003,-4.628748e-004
3.779857e+003,-3.252178e-004
3.781786e+003,-3.927052e-004
3.783714e+003,-5.331635e-004
3.785643e+003,-4.162118e-004
3.787571e+003,-4.409775e-004
3.789500e+003,-5.704314e-004
3.791428e+003,-6.388798e-004
3.793357e+003,-7.869080e-004
3.795285e+003,-6.747916e-004
3.797214e+003,-5.155653e-004
3.799142e+003,-6.715804e-004
3.801071e+003,-1.222268e-004
3.802999e+003,-3.825873e-005
3.804927e+003,-2.866462e-004
3.806856e+003,-3.978610e-006
3.808785e+003,1.620874e-004
3.810713e+003,9.901822e-006
3.812642e+003,-1.516044e-004
3.814570e+003,-5.933642e-005
3.816499e+003,2.608001e-004
3.818427e+003,1.783073e-004
3.820355e+003,3.133491e-004
3.822284e+003,5.445555e-004
3.824213e+003,3.700554e-004
3.826141e+003,3.415868e-004
3.828070e+003,1.855046e-004
3.829998e+003,1.319870e-004
3.831927e+003,2.111346e-004
3.833855e+003,1.870021e-004
3.835783e+003,2.996251e-004
3.837712e+003,8.183122e-004
3.839641e+003,7.441640e-004
3.841569e+003,3.333390e-004
3.843498e+003,5.047619e-004
3.845426e+003,4.857183e-004
3.847354e+003,3.101006e-004
3.849283e+003,-1.125038e-005
3.851211e+003,-1.444742e-004
3.853140e+003,8.656159e-004
3.855069e+003,1.329787e-003
3.856997e+003,8.000359e-004
3.858926e+003,1.945272e-004
3.860854e+003,3.477857e-004
3.862782e+003,9.423941e-004
3.864711e+003,1.250692e-003
3.866640e+003,5.714968e-004
3.868568e+003,3.345385e-004
3.870497e+003,6.983727e-004
3.872425e+003,9.481758e-004
3.874354e+003,1.125984e-003
3.876282e+003,6.234050e-004
3.878210e+003,1.432300e-004
3.880139e+003,4.247576e-004
3.882068e+003,6.596223e-004
3.883996e+003,7.138252e-004
3.885925e+003,9.258538e-004
3.887853e+003,4.621372e-004
3.889781e+003,2.777502e-004
3.891710e+003,7.209554e-004
3.893638e+003,8.425862e-004
3.895567e+003,6.842613e-004
3.897496e+003,7.193312e-004
3.899424e+003,8.375496e-004
3.901353e+003,1.061395e-003
3.903281e+003,1.330137e-003
3.905209e+003,1.216002e-003
3.907138e+003,7.816628e-004
3.909066e+003,5.611852e-004
3.910995e+003,5.878583e-004
3.912924e+003,5.592927e-004
3.914852e+003,5.808622e-004
3.916781e+003,8.087531e-004
3.918709e+003,7.994026e-004
3.920637e+003,5.344003e-004
3.922566e+003,5.383417e-004
3.924494e+003,7.941723e-004
3.926423e+003,6.387010e-004
3.928352e+003,4.241318e-004
3.930280e+003,4.299879e-004
3.932208e+003,6.478131e-004
3.934137e+003,5.658939e-004
3.936065e+003,3.372133e-004
3.937994e+003,2.493709e-004
3.939922e+003,3.056005e-004
3.941851e+003,4.387870e-004
3.943780e+003,3.590733e-004
3.945708e+003,1.146495e-004
3.947636e+003,1.393482e-004
3.949565e+003,2.160817e-004
3.951493e+003,2.383292e-004
3.953422e+003,3.480464e-004
3.955351e+003,4.138052e-004
3.957279e+003,4.178435e-004
3.959208e+003,3.340095e-004
3.961136e+003,3.691316e-004
3.963064e+003,5.143955e-004
3.964993e+003,4.245862e-004
3.966921e+003,1.170710e-004
3.968850e+003,5.115569e-005
3.970779e+003,1.470372e-004
3.972707e+003,2.263114e-004
3.974635e+003,2.815947e-004
3.976564e+003,2.893656e-004
3.978492e+003,2.215132e-004
3.980421e+003,2.570152e-004
3.982349e+003,3.056377e-004
3.984278e+003,3.211871e-004
3.986207e+003,2.188012e-004
3.988135e+003,1.637191e-004
3.990063e+003,2.049208e-004
3.991992e+003,2.790689e-004
3.993920e+003,4.166365e-004
3.995849e+003,4.052520e-004
3.997777e+003,2.734289e-004
3.999706e+003,2.336353e-004
4.001635e+003,0.000000e+000
