3.991992e+002,0.000000e+000
4.011277e+002,0.000000e+000
4.030562e+002,0.000000e+000
4.049846e+002,0.000000e+000
4.069131e+002,0.000000e+000
4.088416e+002,0.000000e+000
4.107701e+002,0.000000e+000
4.126986e+002,0.000000e+000
4.146271e+002,0.000000e+000
4.165556e+002,0.000000e+000
4.184841e+002,0.000000e+000
4.204126e+002,0.000000e+000
4.223411e+002,0.000000e+000
4.242697e+002,0.000000e+000
4.261982e+002,0.000000e+000
4.281266e+002,0.000000e+000
4.300551e+002,0.000000e+000
4.319836e+002,0.000000e+000
4.339121e+002,0.000000e+000
4.358406e+002,0.000000e+000
4.377691e+002,0.000000e+000
4.396976e+002,0.000000e+000
4.416261e+002,0.000000e+000
4.435546e+002,0.000000e+000
4.454831e+002,0.000000e+000
4.474116e+002,0.000000e+000
4.493401e+002,0.000000e+000
4.512686e+002,0.000000e+000
4.531971e+002,0.000000e+000
4.551256e+002,0.000000e+000
4.570541e+002,0.000000e+000
4.589826e+002,0.000000e+000
4.609111e+002,0.000000e+000
4.628396e+002,0.000000e+000
4.647681e+002,0.000000e+000
4.666966e+002,0.000000e+000
4.686251e+002,0.000000e+000
4.705536e+002,0.000000e+000
4.724821e+002,0.000000e+000
4.744106e+002,0.000000e+000
4.763391e+002,0.000000e+000
4.782676e+002,0.000000e+000
4.801961e+002,0.000000e+000
4.821246e+002,0.000000e+000
4.840531e+002,0.000000e+000
4.859816e+002,0.000000e+000
4.879101e+002,0.000000e+000
4.898386e+002,0.000000e+000
4.917671e+002,0.000000e+000
4.936956e+002,0.000000e+000
4.956241e+002,0.000000e+000
4.975526e+002,0.000000e+000
4.994811e+002,0.000000e+000
5.014096e+002,0.000000e+000
5.033381e+002,0.000000e+000
5.052666e+002,0.000000e+000
5.071951e+002,0.000000e+000
5.091236e+002,0.000000e+000
5.110521e+002,0.000000e+000
5.129806e+002,0.000000e+000
5.149091e+002,0.000000e+000
5.168376e+002,0.000000e+000
5.187661e+002,0.000000e+000
5.206946e+002,0.000000e+000
5.226230e+002,0.000000e+000
5.245516e+002,1.588091e-005
5.264800e+002,1.750900e-004
5.284086e+002,2.329010e-004
5.303370e+002,2.026032e-004
5.322656e+002,2.873437e-004
5.341940e+002,2.436005e-004
5.361226e+002,2.275994e-004
5.380510e+002,2.587279e-004
5.399796e+002,2.050335e-004
5.419081e+002,4.429230e-005
5.438365e+002,5.855225e-006
5.457650e+002,-1.150151e-004
5.476935e+002,-9.566220e-005
5.496221e+002,1.159655e-004
5.515505e+002,3.665155e-004
5.534790e+002,6.995769e-004
5.554075e+002,8.722395e-004
5.573361e+002,4.802281e-004
5.592645e+002,1.708106e-004
5.611931e+002,6.747153e-005
5.631215e+002,9.587081e-005
5.650500e+002,1.150928e-005
5.669785e+002,-9.794300e-005
5.689070e+002,-1.205779e-004
5.708355e+002,7.606298e-005
5.727640e+002,7.227063e-007
5.746925e+002,-1.392127e-004
5.766210e+002,-2.345159e-004
5.785495e+002,-2.006041e-004
5.804780e+002,-2.789311e-004
5.824065e+002,-3.037769e-004
5.843350e+002,-2.752081e-004
5.862635e+002,-1.330292e-004
5.881920e+002,-1.654401e-004
5.901205e+002,-2.832706e-004
5.920490e+002,-4.302263e-004
5.939775e+002,-4.189298e-004
5.959060e+002,-2.798690e-004
5.978345e+002,-7.971097e-005
5.997630e+002,-5.812291e-005
6.016915e+002,-3.807619e-005
6.036200e+002,7.233769e-005
6.055485e+002,1.466796e-004
6.074770e+002,9.034760e-006
6.094055e+002,-1.203855e-004
6.113340e+002,-1.670159e-004
6.132625e+002,-2.160948e-004
6.151910e+002,-8.434616e-005
6.171195e+002,-7.060356e-006
6.190480e+002,-6.875861e-005
6.209765e+002,1.666127e-004
6.229050e+002,4.057065e-004
6.248335e+002,4.772451e-004
6.267620e+002,4.500430e-004
6.286905e+002,3.881846e-004
6.306190e+002,3.421409e-004
6.325475e+002,4.859697e-004
6.344760e+002,6.833309e-004
6.364045e+002,8.241693e-004
6.383330e+002,7.856740e-004
6.402615e+002,8.092523e-004
6.421899e+002,8.244505e-004
6.441185e+002,7.529007e-004
6.460470e+002,5.601309e-004
6.479755e+002,5.418044e-004
6.499039e+002,4.488826e-004
6.518325e+002,5.160775e-004
6.537610e+002,6.009052e-004
6.556895e+002,7.493310e-004
6.576179e+002,8.231243e-004
6.595464e+002,7.892950e-004
6.614750e+002,7.237354e-004
6.634034e+002,8.771541e-004
6.653319e+002,8.296454e-004
6.672604e+002,8.298317e-004
6.691890e+002,1.019634e-003
6.711174e+002,1.308576e-003
6.730460e+002,1.337660e-003
6.749745e+002,1.352220e-003
6.769030e+002,1.386466e-003
6.788314e+002,1.428812e-003
6.807599e+002,1.476941e-003
6.826885e+002,1.737571e-003
6.846169e+002,1.881953e-003
6.865454e+002,2.076233e-003
6.884739e+002,2.234002e-003
6.904025e+002,2.576103e-003
6.923309e+002,2.907610e-003
6.942594e+002,3.403326e-003
6.961879e+002,3.800379e-003
6.981165e+002,4.487075e-003
7.000449e+002,5.447708e-003
7.019734e+002,6.759368e-003
7.039019e+002,8.286107e-003
7.058304e+002,1.057276e-002
7.077589e+002,1.369652e-002
7.096874e+002,1.848144e-002
7.116159e+002,2.585388e-002
7.135444e+002,3.949455e-002
7.154729e+002,6.495595e-002
7.174014e+002,1.025489e-001
7.193299e+002,1.181686e-001
7.212584e+002,8.640449e-002
7.231869e+002,5.622916e-002
7.251154e+002,4.549753e-002
7.270439e+002,4.937801e-002
7.289724e+002,6.529175e-002
7.309009e+002,6.361647e-002
7.328294e+002,3.655399e-002
7.347579e+002,1.817502e-002
7.366864e+002,1.178163e-002
7.386149e+002,9.198237e-003
7.405434e+002,7.573023e-003
7.424719e+002,6.671830e-003
7.444004e+002,5.972449e-003
7.463289e+002,5.451212e-003
7.482574e+002,4.951163e-003
7.501859e+002,4.673371e-003
7.521144e+002,4.405136e-003
7.540428e+002,4.129321e-003
7.559714e+002,3.798302e-003
7.578999e+002,3.568573e-003
7.598284e+002,3.386125e-003
7.617568e+002,3.189072e-003
7.636854e+002,2.916368e-003
7.656139e+002,2.812464e-003
7.675424e+002,2.758362e-003
7.694709e+002,2.639237e-003
7.713994e+002,2.502694e-003
7.733279e+002,2.378807e-003
7.752563e+002,2.214977e-003
7.771849e+002,2.227831e-003
7.791134e+002,2.252808e-003
7.810419e+002,2.216945e-003
7.829703e+002,2.201204e-003
7.848989e+002,2.187183e-003
7.868274e+002,2.202789e-003
7.887559e+002,2.262184e-003
7.906843e+002,2.286362e-003
7.926129e+002,2.307663e-003
7.945414e+002,2.363911e-003
7.964698e+002,2.406236e-003
7.983983e+002,2.373674e-003
8.003268e+002,2.358333e-003
8.022554e+002,2.373125e-003
8.041838e+002,2.407989e-003
8.061123e+002,2.404131e-003
8.080408e+002,2.331642e-003
8.099694e+002,2.203493e-003
8.118978e+002,2.048400e-003
8.138263e+002,1.973306e-003
8.157548e+002,1.899807e-003
8.176833e+002,1.817266e-003
8.196118e+002,1.766172e-003
8.215403e+002,1.732666e-003
8.234689e+002,1.643119e-003
8.253973e+002,1.548319e-003
8.273258e+002,1.537817e-003
8.292543e+002,1.528780e-003
8.311829e+002,1.369641e-003
8.331113e+002,1.221119e-003
8.350398e+002,1.181489e-003
8.369683e+002,1.203819e-003
8.388969e+002,1.257744e-003
8.408253e+002,1.281856e-003
8.427538e+002,1.245992e-003
8.446823e+002,1.223709e-003
8.466108e+002,1.291052e-003
8.485393e+002,1.349902e-003
8.504678e+002,1.371566e-003
8.523963e+002,1.345524e-003
8.543248e+002,1.306438e-003
8.562533e+002,1.353032e-003
8.581818e+002,1.309156e-003
8.601103e+002,1.254549e-003
8.620388e+002,1.238346e-003
8.639673e+002,1.349735e-003
8.658958e+002,1.441760e-003
8.678243e+002,1.479277e-003
8.697528e+002,1.389140e-003
8.716813e+002,1.376844e-003
8.736098e+002,1.426646e-003
8.755383e+002,1.512234e-003
8.774668e+002,1.530544e-003
8.793953e+002,1.526060e-003
8.813238e+002,1.564270e-003
8.832523e+002,1.682379e-003
8.851808e+002,1.781922e-003
8.871093e+002,1.884528e-003
8.890378e+002,1.929156e-003
8.909663e+002,1.915318e-003
8.928948e+002,1.809749e-003
8.948232e+002,1.712921e-003
8.967518e+002,1.584032e-003
8.986803e+002,1.529601e-003
9.006088e+002,1.605624e-003
9.025372e+002,1.751152e-003
9.044658e+002,2.091355e-003
9.063943e+002,2.628548e-003
9.083228e+002,2.890992e-003
9.102512e+002,2.830939e-003
9.121797e+002,2.503055e-003
9.141083e+002,1.987177e-003
9.160367e+002,1.557407e-003
9.179653e+002,1.546273e-003
9.198937e+002,1.546960e-003
9.218223e+002,1.537280e-003
9.237507e+002,1.533491e-003
9.256793e+002,1.493827e-003
9.276077e+002,1.488809e-003
9.295363e+002,1.534500e-003
9.314647e+002,1.541411e-003
9.333932e+002,1.500257e-003
9.353217e+002,1.470300e-003
9.372502e+002,1.445793e-003
9.391787e+002,1.402015e-003
9.411072e+002,1.440925e-003
9.430358e+002,1.445882e-003
9.449642e+002,1.427038e-003
9.468928e+002,1.519765e-003
9.488212e+002,1.590506e-003
9.507498e+002,1.578510e-003
9.526782e+002,1.660441e-003
9.546068e+002,1.708606e-003
9.565352e+002,1.740558e-003
9.584637e+002,1.772853e-003
9.603922e+002,1.870562e-003
9.623207e+002,1.923474e-003
9.642492e+002,2.038288e-003
9.661777e+002,2.111309e-003
9.681062e+002,2.127721e-003
9.700347e+002,2.094436e-003
9.719632e+002,2.100220e-003
9.738917e+002,2.138314e-003
9.758202e+002,2.180675e-003
9.777487e+002,2.197776e-003
9.796772e+002,2.280353e-003
9.816057e+002,2.402774e-003
9.835342e+002,2.557847e-003
9.854627e+002,2.699809e-003
9.873912e+002,2.904459e-003
9.893197e+002,3.107777e-003
9.912482e+002,3.284230e-003
9.931767e+002,3.352541e-003
9.951052e+002,3.436187e-003
9.970337e+002,3.523760e-003
9.989622e+002,3.703795e-003
1.000891e+003,3.905577e-003
1.002819e+003,4.131678e-003
1.004748e+003,4.374258e-003
1.006676e+003,4.756212e-003
1.008605e+003,5.202465e-003
1.010533e+003,5.740954e-003
1.012462e+003,6.348981e-003
1.014390e+003,6.998923e-003
1.016319e+003,7.451428e-003
1.018247e+003,7.687908e-003
1.020176e+003,7.629848e-003
1.022104e+003,7.401532e-003
1.024033e+003,7.108592e-003
1.025961e+003,6.917344e-003
1.027890e+003,6.731629e-003
1.029818e+003,6.653074e-003
1.031747e+003,6.614253e-003
1.033675e+003,6.643854e-003
1.035604e+003,6.633835e-003
1.037532e+003,6.729851e-003
1.039461e+003,6.881623e-003
1.041389e+003,7.091733e-003
1.043318e+003,7.268466e-003
1.045246e+003,7.388648e-003
1.047175e+003,7.411245e-003
1.049103e+003,7.373825e-003
1.051032e+003,7.122409e-003
1.052960e+003,6.795513e-003
1.054889e+003,6.537268e-003
1.056817e+003,6.444192e-003
1.058746e+003,6.438596e-003
1.060674e+003,6.476728e-003
1.062603e+003,6.433265e-003
1.064531e+003,6.454809e-003
1.066460e+003,6.425945e-003
1.068388e+003,6.461047e-003
1.070317e+003,6.499918e-003
1.072245e+003,6.631514e-003
1.074174e+003,6.846416e-003
1.076102e+003,7.040843e-003
1.078031e+003,7.139878e-003
1.079959e+003,7.209533e-003
1.081888e+003,7.229497e-003
1.083816e+003,7.244673e-003
1.085745e+003,7.154603e-003
1.087673e+003,7.114228e-003
1.089602e+003,7.136377e-003
1.091530e+003,7.163681e-003
1.093459e+003,7.119380e-003
1.095387e+003,7.115007e-003
1.097316e+003,7.039975e-003
1.099244e+003,7.027619e-003
1.101173e+003,6.935243e-003
1.103101e+003,6.891184e-003
1.105030e+003,6.841542e-003
1.106958e+003,6.753599e-003
1.108887e+003,6.600256e-003
1.110815e+003,6.512726e-003
1.112744e+003,6.392624e-003
1.114672e+003,6.285336e-003
1.116601e+003,6.160522e-003
1.118529e+003,6.057205e-003
1.120458e+003,5.965685e-003
1.122386e+003,5.909128e-003
1.124315e+003,5.817067e-003
1.126243e+003,5.787264e-003
1.128172e+003,5.779954e-003
1.130100e+003,5.852424e-003
1.132029e+003,5.834421e-003
1.133957e+003,5.894529e-003
1.135885e+003,5.938210e-003
1.137814e+003,6.073661e-003
1.139743e+003,6.266095e-003
1.141671e+003,6.599236e-003
1.143600e+003,7.029748e-003
1.145528e+003,7.812780e-003
1.147457e+003,8.938611e-003
1.149385e+003,1.055537e-002
1.151314e+003,1.246670e-002
1.153242e+003,1.416980e-002
1.155171e+003,1.526834e-002
1.157099e+003,1.595540e-002
1.159028e+003,1.627022e-002
1.160956e+003,1.636554e-002
1.162885e+003,1.619116e-002
1.164813e+003,1.576735e-002
1.166742e+003,1.505926e-002
1.168670e+003,1.420957e-002
1.170599e+003,1.318470e-002
1.172527e+003,1.216811e-002
1.174456e+003,1.118222e-002
1.176384e+003,1.025167e-002
1.178313e+003,9.282024e-003
1.180241e+003,8.553857e-003
1.182170e+003,8.135218e-003
1.184098e+003,7.935118e-003
1.186027e+003,7.873040e-003
1.187955e+003,7.981232e-003
1.189884e+003,8.097353e-003
1.191812e+003,8.304062e-003
1.193740e+003,8.593628e-003
1.195669e+003,9.011710e-003
1.197598e+003,9.516748e-003
1.199526e+003,1.023951e-002
1.201455e+003,1.111489e-002
1.203383e+003,1.216975e-002
1.205312e+003,1.327030e-002
1.207240e+003,1.436810e-002
1.209168e+003,1.535488e-002
1.211097e+003,1.619668e-002
1.213026e+003,1.683372e-002
1.214954e+003,1.745208e-002
1.216883e+003,1.799008e-002
1.218811e+003,1.855037e-002
1.220740e+003,1.904765e-002
1.222668e+003,1.958848e-002
1.224596e+003,2.008023e-002
1.226525e+003,2.057808e-002
1.228453e+003,2.100853e-002
1.230382e+003,2.151494e-002
1.232311e+003,2.201190e-002
1.234239e+003,2.249282e-002
1.236167e+003,2.280946e-002
1.238096e+003,2.306730e-002
1.240025e+003,2.315647e-002
1.241953e+003,2.308031e-002
1.243882e+003,2.274506e-002
1.245810e+003,2.215963e-002
1.247739e+003,2.129435e-002
1.249667e+003,2.033222e-002
1.251595e+003,1.920904e-002
1.253524e+003,1.805225e-002
1.255453e+003,1.687498e-002
1.257381e+003,1.568419e-002
1.259310e+003,1.436558e-002
1.261238e+003,1.310700e-002
1.263167e+003,1.191049e-002
1.265095e+003,1.090445e-002
1.267023e+003,1.001179e-002
1.268952e+003,9.400729e-003
1.270880e+003,8.935982e-003
1.272809e+003,8.685807e-003
1.274738e+003,8.485423e-003
1.276666e+003,8.395972e-003
1.278594e+003,8.299561e-003
1.280523e+003,8.350192e-003
1.282451e+003,8.370847e-003
1.284380e+003,8.455263e-003
1.286308e+003,8.581312e-003
1.288237e+003,8.827392e-003
1.290166e+003,9.033112e-003
1.292094e+003,9.427428e-003
1.294022e+003,9.802798e-003
1.295951e+003,1.020612e-002
1.297879e+003,1.048487e-002
1.299808e+003,1.073045e-002
1.301736e+003,1.078217e-002
1.303665e+003,1.079648e-002
1.305594e+003,1.065965e-002
1.307522e+003,1.051512e-002
1.309450e+003,1.017634e-002
1.311379e+003,9.849740e-003
1.313307e+003,9.393457e-003
1.315236e+003,8.940373e-003
1.317164e+003,8.474046e-003
1.319093e+003,8.105733e-003
1.321021e+003,7.596117e-003
1.322950e+003,7.225940e-003
1.324878e+003,6.918866e-003
1.326807e+003,6.808773e-003
1.328735e+003,6.734163e-003
1.330664e+003,6.811334e-003
1.332592e+003,6.958105e-003
1.334521e+003,7.386055e-003
1.336449e+003,8.012954e-003
1.338378e+003,8.967305e-003
1.340306e+003,9.632235e-003
1.342235e+003,9.920204e-003
1.344163e+003,1.024920e-002
1.346092e+003,1.088326e-002
1.348021e+003,1.157898e-002
1.349949e+003,1.234240e-002
1.351877e+003,1.266488e-002
1.353806e+003,1.271284e-002
1.355734e+003,1.250775e-002
1.357663e+003,1.255256e-002
1.359591e+003,1.290161e-002
1.361520e+003,1.382344e-002
1.363448e+003,1.501762e-002
1.365377e+003,1.601239e-002
1.367305e+003,1.676530e-002
1.369234e+003,1.686787e-002
1.371162e+003,1.580426e-002
1.373091e+003,1.477557e-002
1.375019e+003,1.444669e-002
1.376948e+003,1.432583e-002
1.378876e+003,1.265867e-002
1.380805e+003,1.002350e-002
1.382733e+003,8.045372e-003
1.384662e+003,7.251570e-003
1.386590e+003,6.882878e-003
1.388519e+003,6.609701e-003
1.390447e+003,6.193548e-003
1.392376e+003,6.217331e-003
1.394304e+003,6.338350e-003
1.396233e+003,6.471120e-003
1.398161e+003,6.299308e-003
1.400090e+003,6.425528e-003
1.402018e+003,6.189913e-003
1.403947e+003,6.457595e-003
1.405875e+003,6.527642e-003
1.407804e+003,6.678473e-003
1.409732e+003,6.758805e-003
1.411661e+003,7.131591e-003
1.413589e+003,7.203460e-003
1.415518e+003,7.711243e-003
1.417446e+003,8.179892e-003
1.419375e+003,9.091575e-003
1.421303e+003,9.157510e-003
1.423232e+003,1.015302e-002
1.425160e+003,1.153519e-002
1.427089e+003,1.326626e-002
1.429017e+003,1.570199e-002
1.430946e+003,1.933859e-002
1.432874e+003,2.222943e-002
1.434803e+003,2.510408e-002
1.436731e+003,2.828632e-002
1.438660e+003,3.067434e-002
1.440588e+003,3.183929e-002
1.442517e+003,3.378548e-002
1.444445e+003,3.530373e-002
1.446374e+003,3.776884e-002
1.448302e+003,4.127372e-002
1.450231e+003,4.647494e-002
1.452159e+003,5.454976e-002
1.454088e+003,6.521955e-002
1.456016e+003,7.652855e-002
1.457945e+003,1.052133e-001
1.459873e+003,1.554310e-001
1.461802e+003,2.015735e-001
1.463730e+003,1.951106e-001
1.465659e+003,1.464905e-001
1.467587e+003,1.318345e-001
1.469516e+003,1.282067e-001
1.471444e+003,1.454989e-001
1.473373e+003,1.319537e-001
1.475301e+003,7.223397e-002
1.477230e+003,3.219970e-002
1.479158e+003,2.062598e-002
1.481087e+003,1.529925e-002
1.483015e+003,1.290230e-002
1.484944e+003,1.102252e-002
1.486872e+003,1.074746e-002
1.488801e+003,9.660758e-003
1.490729e+003,9.275245e-003
1.492658e+003,7.860821e-003
1.494586e+003,7.833866e-003
1.496515e+003,7.469315e-003
1.498443e+003,7.504933e-003
1.500372e+003,6.755494e-003
1.502300e+003,6.795527e-003
1.504229e+003,6.422713e-003
1.506157e+003,7.581124e-003
1.508086e+003,7.151486e-003
1.510014e+003,6.902674e-003
1.511943e+003,6.329529e-003
1.513871e+003,6.450081e-003
1.515800e+003,6.486323e-003
1.517728e+003,6.865434e-003
1.519657e+003,6.417193e-003
1.521585e+003,7.330662e-003
1.523514e+003,6.564820e-003
1.525442e+003,6.530326e-003
1.527371e+003,6.277373e-003
1.529299e+003,6.253418e-003
1.531228e+003,6.064801e-003
1.533156e+003,6.723095e-003
1.535085e+003,6.605865e-003
1.537013e+003,6.725570e-003
1.538942e+003,7.262414e-003
1.540870e+003,8.580053e-003
1.542799e+003,7.488497e-003
1.544727e+003,7.189047e-003
1.546656e+003,6.399583e-003
1.548584e+003,6.353021e-003
1.550513e+003,6.170178e-003
1.552441e+003,6.027728e-003
1.554370e+003,6.024214e-003
1.556298e+003,6.261421e-003
1.558227e+003,6.576978e-003
1.560155e+003,6.302655e-003
1.562084e+003,5.115332e-003
1.564012e+003,5.077768e-003
1.565941e+003,5.018318e-003
1.567869e+003,5.068842e-003
1.569798e+003,5.234543e-003
1.571726e+003,5.166156e-003
1.573655e+003,4.897496e-003
1.575583e+003,5.334996e-003
1.577512e+003,5.229676e-003
1.579440e+003,4.865304e-003
1.581369e+003,4.623847e-003
1.583297e+003,4.618458e-003
1.585226e+003,4.482646e-003
1.587154e+003,4.489634e-003
1.589083e+003,4.421899e-003
1.591011e+003,4.455373e-003
1.592940e+003,4.351018e-003
1.594868e+003,4.441023e-003
1.596797e+003,4.380582e-003
1.598725e+003,4.438007e-003
1.600654e+003,4.457694e-003
1.602582e+003,4.581576e-003
1.604511e+003,4.468225e-003
1.606439e+003,4.516276e-003
1.608368e+003,4.566347e-003
1.610296e+003,4.679540e-003
1.612225e+003,4.653169e-003
1.614153e+003,4.850281e-003
1.616082e+003,5.261367e-003
1.618010e+003,5.514018e-003
1.619939e+003,5.142638e-003
1.621867e+003,5.372815e-003
1.623796e+003,5.720010e-003
1.625724e+003,5.644690e-003
1.627653e+003,5.707396e-003
1.629581e+003,5.904967e-003
1.631510e+003,5.889555e-003
1.633438e+003,6.157670e-003
1.635367e+003,6.912254e-003
1.637295e+003,7.134920e-003
1.639224e+003,6.620556e-003
1.641152e+003,6.735509e-003
1.643081e+003,6.811684e-003
1.645009e+003,7.046316e-003
1.646938e+003,7.528860e-003
1.648866e+003,7.320289e-003
1.650795e+003,6.847631e-003
1.652723e+003,7.135736e-003
1.654652e+003,6.958224e-003
1.656580e+003,6.516976e-003
1.658509e+003,6.269002e-003
1.660437e+003,6.248400e-003
1.662366e+003,6.121142e-003
1.664294e+003,5.922640e-003
1.666223e+003,5.661597e-003
1.668151e+003,5.785964e-003
1.670080e+003,5.649906e-003
1.672008e+003,5.333526e-003
1.673937e+003,4.930479e-003
1.675865e+003,4.885823e-003
1.677794e+003,4.545409e-003
1.679722e+003,4.651628e-003
1.681651e+003,4.624220e-003
1.683579e+003,4.780836e-003
1.685508e+003,4.369363e-003
1.687436e+003,3.963491e-003
1.689365e+003,3.750578e-003
1.691293e+003,3.543619e-003
1.693222e+003,3.215831e-003
1.695150e+003,3.583027e-003
1.697079e+003,3.889792e-003
1.699007e+003,3.594859e-003
1.700936e+003,3.460864e-003
1.702864e+003,3.161835e-003
1.704793e+003,2.985826e-003
1.706721e+003,3.140282e-003
1.708650e+003,2.827212e-003
1.710578e+003,2.916263e-003
1.712507e+003,2.983360e-003
1.714435e+003,3.373045e-003
1.716364e+003,3.390469e-003
1.718292e+003,3.488444e-003
1.720221e+003,3.171328e-003
1.722149e+003,3.130827e-003
1.724078e+003,3.190234e-003
1.726006e+003,3.192814e-003
1.727935e+003,3.181437e-003
1.729863e+003,3.662467e-003
1.731792e+003,3.777210e-003
1.733720e+003,4.151028e-003
1.735649e+003,3.969947e-003
1.737577e+003,3.649905e-003
1.739506e+003,3.668042e-003
1.741434e+003,3.574910e-003
1.743363e+003,3.355935e-003
1.745291e+003,3.323516e-003
1.747220e+003,3.338069e-003
1.749148e+003,3.354894e-003
1.751077e+003,2.731532e-003
1.753005e+003,2.140308e-003
1.754934e+003,1.703307e-003
1.756862e+003,1.746777e-003
1.758791e+003,1.427449e-003
1.760719e+003,1.379106e-003
1.762648e+003,1.238642e-003
1.764576e+003,9.202100e-004
1.766505e+003,8.437410e-004
1.768433e+003,1.182929e-003
1.770362e+003,1.158400e-003
1.772290e+003,1.520881e-003
1.774219e+003,1.068357e-003
1.776147e+003,6.683171e-004
1.778076e+003,5.074032e-004
1.780004e+003,7.441901e-004
1.781933e+003,6.137453e-004
1.783861e+003,5.209669e-004
1.785790e+003,4.371963e-004
1.787718e+003,3.920477e-004
1.789646e+003,4.081614e-004
1.791575e+003,7.627625e-004
1.793504e+003,5.458444e-004
1.795432e+003,4.596896e-004
1.797361e+003,3.748760e-004
1.799289e+003,5.179532e-004
1.801218e+003,5.093701e-004
1.803146e+003,3.814138e-004
1.805074e+003,2.081972e-004
1.807003e+003,2.448726e-004
1.808932e+003,1.800824e-004
1.810860e+003,2.401806e-004
1.812789e+003,-7.024035e-006
1.814717e+003,-2.336539e-004
1.816646e+003,-4.363321e-004
1.818574e+003,-1.480579e-004
1.820502e+003,1.697242e-005
1.822431e+003,1.935009e-004
1.824360e+003,2.008956e-004
1.826288e+003,1.412798e-004
1.828217e+003,-1.837388e-004
1.830145e+003,-1.018755e-004
1.832073e+003,-4.496798e-004
1.834002e+003,-5.741678e-004
1.835931e+003,-6.129574e-004
1.837859e+003,-4.494004e-004
1.839788e+003,-4.590489e-004
1.841716e+003,-4.309751e-004
1.843645e+003,-4.332121e-004
1.845573e+003,-2.815388e-004
1.847501e+003,-6.076824e-004
1.849430e+003,-7.791091e-004
1.851359e+003,-9.874813e-004
1.853287e+003,-8.648336e-004
1.855216e+003,-9.250846e-004
1.857144e+003,-7.209126e-004
1.859073e+003,-9.494703e-004
1.861001e+003,-1.133652e-003
1.862929e+003,-1.184233e-003
1.864858e+003,-8.028578e-004
1.866787e+003,-6.839614e-004
1.868715e+003,-3.737621e-004
1.870644e+003,-7.095039e-004
1.872572e+003,-9.094104e-004
1.874500e+003,-1.196755e-003
1.876429e+003,-1.158057e-003
1.878357e+003,-1.258684e-003
1.880286e+003,-9.864606e-004
1.882215e+003,-1.048980e-003
1.884143e+003,-9.140912e-004
1.886072e+003,-8.441396e-004
1.888000e+003,-5.946979e-004
1.889928e+003,-5.971976e-004
1.891857e+003,-3.259704e-004
1.893785e+003,-4.707035e-004
1.895714e+003,-3.453325e-004
1.897643e+003,-6.016959e-004
1.899571e+003,-5.841851e-004
1.901500e+003,-5.770791e-004
1.903428e+003,-5.699843e-004
1.905356e+003,-5.629044e-004
1.907285e+003,-5.558413e-004
1.909213e+003,-5.487893e-004
1.911142e+003,-5.417503e-004
1.913071e+003,-5.347244e-004
1.914999e+003,-5.277153e-004
1.916927e+003,-5.207192e-004
1.918856e+003,-5.137343e-004
1.920784e+003,-5.067624e-004
1.922713e+003,-4.998092e-004
1.924641e+003,-4.928671e-004
1.926570e+003,-4.859362e-004
1.928499e+003,-4.790220e-004
1.930427e+003,-4.721191e-004
1.932355e+003,-4.652310e-004
1.934284e+003,-4.583579e-004
1.936212e+003,-4.514959e-004
1.938141e+003,-4.446488e-004
1.940070e+003,-4.378147e-004
1.941998e+003,-4.309937e-004
1.943927e+003,-4.241895e-004
1.945855e+003,-4.173983e-004
1.947783e+003,-4.106183e-004
1.949712e+003,-4.038531e-004
1.951640e+003,-3.971029e-004
1.953569e+003,-3.903639e-004
1.955498e+003,-3.836378e-004
1.957426e+003,-3.769286e-004
1.959354e+003,-3.702361e-004
1.961283e+003,-3.635511e-004
1.963211e+003,-3.568772e-004
1.965140e+003,-3.502257e-004
1.967068e+003,-3.435835e-004
1.968997e+003,-3.369562e-004
1.970926e+003,-3.303401e-004
1.972854e+003,-3.237389e-004
1.974782e+003,-3.171526e-004
1.976711e+003,-3.105793e-004
1.978639e+003,-3.040172e-004
1.980568e+003,-2.974719e-004
1.982496e+003,-2.909377e-004
1.984425e+003,-2.844185e-004
1.986354e+003,-2.779141e-004
1.988282e+003,-2.714228e-004
1.990210e+003,-2.649426e-004
1.992139e+003,-2.584793e-004
1.994067e+003,-2.520271e-004
1.995996e+003,-2.455916e-004
1.997924e+003,-2.391674e-004
1.999853e+003,-2.327561e-004
2.001781e+003,-2.263598e-004
2.003710e+003,-2.199784e-004
2.005638e+003,-2.136119e-004
2.007567e+003,-2.072547e-004
2.009495e+003,-2.009124e-004
2.011424e+003,-1.945868e-004
2.013352e+003,-1.882706e-004
2.015281e+003,-1.819711e-004
2.017209e+003,-1.756828e-004
2.019138e+003,-1.694113e-004
2.021066e+003,-1.631491e-004
2.022995e+003,-1.569055e-004
2.024923e+003,-1.506750e-004
2.026852e+003,-1.444537e-004
2.028781e+003,-1.382492e-004
2.030709e+003,-1.320578e-004
2.032637e+003,-1.258813e-004
2.034566e+003,-1.197178e-004
2.036494e+003,-1.135655e-004
2.038423e+003,-1.074299e-004
2.040351e+003,-1.013074e-004
2.042280e+003,-9.519607e-005
2.044208e+003,-8.910336e-005
2.046137e+003,-8.301809e-005
2.048065e+003,-7.694960e-005
2.049994e+003,-7.089786e-005
2.051922e+003,-6.485917e-005
2.053851e+003,-5.882792e-005
2.055779e+003,-5.281158e-005
2.057708e+003,-4.681386e-005
2.059636e+003,-4.082918e-005
2.061565e+003,-3.485568e-005
2.063493e+003,-2.889708e-005
2.065422e+003,-2.295151e-005
2.067350e+003,-1.702085e-005
2.069279e+003,-1.109950e-005
2.071207e+003,-5.196780e-006
2.073136e+003,6.929040e-007
2.075064e+003,6.569549e-006
2.076993e+003,1.243316e-005
2.078921e+003,1.828372e-005
2.080850e+003,2.411753e-005
2.082778e+003,2.993830e-005
2.084707e+003,3.575347e-005
2.086635e+003,4.154630e-005
2.088564e+003,4.732609e-005
2.090492e+003,5.309470e-005
2.092421e+003,5.884841e-005
2.094349e+003,6.458722e-005
2.096278e+003,7.031299e-005
2.098206e+003,7.602945e-005
2.100135e+003,8.173101e-005
2.102063e+003,8.741394e-005
2.103992e+003,9.308569e-005
2.105920e+003,9.874441e-005
2.107849e+003,1.043882e-004
2.109777e+003,1.100209e-004
2.111706e+003,1.156330e-004
2.113634e+003,1.212433e-004
2.115563e+003,1.268331e-004
2.117491e+003,1.324099e-004
2.119420e+003,1.379717e-004
2.121348e+003,1.435187e-004
2.123277e+003,1.490563e-004
2.125205e+003,1.545753e-004
2.127134e+003,1.600813e-004
2.129062e+003,1.655817e-004
2.130991e+003,1.710616e-004
2.132919e+003,1.765285e-004
2.134848e+003,1.819804e-004
2.136776e+003,1.874194e-004
2.138705e+003,1.928490e-004
2.140633e+003,1.982562e-004
2.142562e+003,2.036598e-004
2.144490e+003,2.090447e-004
2.146419e+003,2.144147e-004
2.148347e+003,2.197735e-004
2.150276e+003,2.251156e-004
2.152204e+003,2.304483e-004
2.154133e+003,2.357643e-004
2.156061e+003,2.410691e-004
2.157990e+003,2.463590e-004
2.159918e+003,2.516340e-004
2.161847e+003,2.568979e-004
2.163775e+003,2.621431e-004
2.165704e+003,2.673771e-004
2.167632e+003,2.725981e-004
2.169561e+003,2.778042e-004
2.171489e+003,2.829991e-004
2.173418e+003,2.881829e-004
2.175346e+003,2.933498e-004
2.177275e+003,2.985038e-004
2.179203e+003,3.036372e-004
2.181132e+003,3.087651e-004
2.183060e+003,3.138762e-004
2.184989e+003,3.189743e-004
2.186917e+003,3.240611e-004
2.188846e+003,3.291313e-004
2.190774e+003,3.341883e-004
2.192703e+003,3.392305e-004
2.194631e+003,3.442597e-004
2.196560e+003,3.492795e-004
2.198488e+003,3.542770e-004
2.200417e+003,3.592726e-004
2.202345e+003,3.642458e-004
2.204274e+003,3.692079e-004
2.206202e+003,3.741570e-004
2.208131e+003,3.790874e-004
2.210059e+003,3.840085e-004
2.211988e+003,3.889166e-004
2.213916e+003,3.938060e-004
2.215845e+003,3.986880e-004
2.217773e+003,4.035570e-004
2.219702e+003,4.084073e-004
2.221630e+003,4.132465e-004
2.223559e+003,4.180688e-004
2.225487e+003,4.228819e-004
2.227416e+003,4.276801e-004
2.229344e+003,4.324652e-004
2.231273e+003,4.372373e-004
2.233201e+003,4.419927e-004
2.235130e+003,4.467368e-004
2.237058e+003,4.514642e-004
2.238987e+003,4.561804e-004
2.240915e+003,4.608799e-004
2.242844e+003,4.655682e-004
2.244772e+003,4.702453e-004
2.246701e+003,4.749075e-004
2.248629e+003,4.795548e-004
2.250558e+003,4.841872e-004
2.252486e+003,4.888065e-004
2.254415e+003,4.934128e-004
2.256343e+003,4.980061e-004
2.258272e+003,5.025826e-004
2.260200e+003,5.071480e-004
2.262129e+003,5.117022e-004
2.264057e+003,5.162414e-004
2.265986e+003,5.207658e-004
2.267914e+003,5.252734e-004
2.269843e+003,5.297717e-004
2.271771e+003,5.342551e-004
2.273700e+003,5.387273e-004
2.275628e+003,5.431846e-004
2.277557e+003,5.476251e-004
2.279485e+003,5.520564e-004
2.281414e+003,5.564690e-004
2.283342e+003,5.608704e-004
2.285271e+003,5.652588e-004
2.287199e+003,5.696304e-004
2.289128e+003,5.739946e-004
2.291056e+003,5.783401e-004
2.292985e+003,5.826745e-004
2.294913e+003,5.869940e-004
2.296842e+003,5.912967e-004
2.298770e+003,5.955901e-004
2.300699e+003,5.998667e-004
2.302627e+003,6.041359e-004
2.304556e+003,6.083865e-004
2.306484e+003,6.126240e-004
2.308413e+003,6.168485e-004
2.310341e+003,6.210543e-004
2.312270e+003,6.252527e-004
2.314198e+003,6.294362e-004
2.316127e+003,6.336030e-004
2.318055e+003,6.377604e-004
2.319984e+003,6.419010e-004
2.321912e+003,6.460305e-004
2.323841e+003,6.501451e-004
2.325769e+003,6.542467e-004
2.327698e+003,6.583352e-004
2.329626e+003,6.624032e-004
2.331555e+003,6.664637e-004
2.333483e+003,6.705131e-004
2.335412e+003,6.745458e-004
2.337340e+003,6.785672e-004
2.339269e+003,6.825682e-004
2.341197e+003,6.865617e-004
2.343126e+003,6.905366e-004
2.345054e+003,6.945003e-004
2.346983e+003,6.984584e-004
2.348911e+003,7.023904e-004
2.350840e+003,7.063169e-004
2.352768e+003,7.102247e-004
2.354697e+003,7.141195e-004
2.356625e+003,7.180031e-004
2.358554e+003,7.218681e-004
2.360482e+003,7.257257e-004
2.362411e+003,7.295664e-004
2.364339e+003,7.333960e-004
2.366268e+003,7.372107e-004
2.368196e+003,7.410068e-004
2.370125e+003,7.447973e-004
2.372053e+003,7.485691e-004
2.373982e+003,7.523261e-004
2.375910e+003,7.560737e-004
2.377839e+003,7.598065e-004
2.379767e+003,7.635280e-004
2.381696e+003,7.672310e-004
2.383624e+003,7.709172e-004
2.385553e+003,7.745977e-004
2.387481e+003,7.782578e-004
2.389410e+003,7.819105e-004
2.391338e+003,7.855482e-004
2.393267e+003,7.891711e-004
2.395195e+003,7.927790e-004
2.397124e+003,7.963721e-004
2.399052e+003,7.999558e-004
2.400981e+003,7.056445e-004
2.402909e+003,5.280431e-004
2.404838e+003,5.413145e-004
2.406766e+003,8.341130e-004
2.408695e+003,1.109956e-003
2.410623e+003,1.063684e-003
2.412552e+003,1.073962e-003
2.414480e+003,1.120422e-003
2.416409e+003,1.302749e-003
2.418337e+003,1.272794e-003
2.420266e+003,1.166722e-003
2.422194e+003,1.127796e-003
2.424123e+003,1.056435e-003
2.426051e+003,9.331983e-004
2.427979e+003,1.057286e-003
2.429908e+003,1.000367e-003
2.431837e+003,9.408779e-004
2.433765e+003,9.544604e-004
2.435694e+003,9.738375e-004
2.437622e+003,9.403322e-004
2.439551e+003,1.067787e-003
2.441479e+003,1.113331e-003
2.443407e+003,1.002382e-003
2.445336e+003,8.780528e-004
2.447265e+003,1.077827e-003
2.449193e+003,1.090206e-003
2.451122e+003,1.126170e-003
2.453050e+003,1.155356e-003
2.454979e+003,1.302110e-003
2.456907e+003,1.160566e-003
2.458836e+003,1.024073e-003
2.460764e+003,1.039686e-003
2.462693e+003,1.096064e-003
2.464621e+003,1.122633e-003
2.466550e+003,1.333209e-003
2.468478e+003,1.400765e-003
2.470406e+003,1.468763e-003
2.472335e+003,1.599554e-003
2.474264e+003,1.795832e-003
2.476192e+003,1.743322e-003
2.478121e+003,1.619119e-003
2.480049e+003,1.526676e-003
2.481978e+003,1.677990e-003
2.483906e+003,1.796620e-003
2.485835e+003,1.866752e-003
2.487763e+003,1.815351e-003
2.489692e+003,1.883561e-003
2.491620e+003,1.869777e-003
2.493549e+003,1.906410e-003
2.495477e+003,1.986625e-003
2.497406e+003,2.123192e-003
2.499334e+003,2.101434e-003
2.501263e+003,2.212526e-003
2.503191e+003,2.262305e-003
2.505120e+003,2.248676e-003
2.507048e+003,2.263842e-003
2.508977e+003,2.340298e-003
2.510905e+003,2.279527e-003
2.512833e+003,2.442786e-003
2.514762e+003,2.564210e-003
2.516691e+003,2.622196e-003
2.518619e+003,2.727401e-003
2.520548e+003,2.940355e-003
2.522476e+003,3.052680e-003
2.524405e+003,3.215196e-003
2.526333e+003,3.257647e-003
2.528261e+003,3.130747e-003
2.530190e+003,3.005039e-003
2.532119e+003,3.134184e-003
2.534047e+003,3.227903e-003
2.535976e+003,3.359841e-003
2.537904e+003,3.539264e-003
2.539833e+003,3.557045e-003
2.541761e+003,3.509052e-003
2.543689e+003,3.745837e-003
2.545618e+003,4.076689e-003
2.547547e+003,4.166516e-003
2.549475e+003,4.163867e-003
2.551404e+003,4.374314e-003
2.553332e+003,4.350293e-003
2.555260e+003,4.324496e-003
2.557189e+003,4.449856e-003
2.559117e+003,4.531709e-003
2.561046e+003,4.543398e-003
2.562975e+003,4.599478e-003
2.564903e+003,4.756900e-003
2.566832e+003,5.019164e-003
2.568760e+003,5.175686e-003
2.570688e+003,5.252747e-003
2.572617e+003,5.334035e-003
2.574546e+003,5.502054e-003
2.576474e+003,5.607381e-003
2.578403e+003,5.834386e-003
2.580331e+003,5.971046e-003
2.582260e+003,6.236879e-003
2.584188e+003,6.448811e-003
2.586116e+003,6.674243e-003
2.588045e+003,6.986955e-003
2.589974e+003,7.159134e-003
2.591902e+003,7.238587e-003
2.593831e+003,7.555373e-003
2.595759e+003,7.634349e-003
2.597688e+003,7.933065e-003
2.599616e+003,8.287685e-003
2.601544e+003,8.500876e-003
2.603473e+003,8.622225e-003
2.605402e+003,8.979296e-003
2.607330e+003,9.250147e-003
2.609259e+003,9.529844e-003
2.611187e+003,9.749737e-003
2.613115e+003,1.003550e-002
2.615044e+003,1.042272e-002
2.616972e+003,1.076677e-002
2.618901e+003,1.104703e-002
2.620830e+003,1.153305e-002
2.622758e+003,1.200755e-002
2.624687e+003,1.235067e-002
2.626615e+003,1.265884e-002
2.628543e+003,1.311577e-002
2.630472e+003,1.356430e-002
2.632400e+003,1.395313e-002
2.634329e+003,1.416492e-002
2.636258e+003,1.419758e-002
2.638186e+003,1.415708e-002
2.640115e+003,1.420689e-002
2.642043e+003,1.421570e-002
2.643971e+003,1.413961e-002
2.645900e+003,1.419119e-002
2.647828e+003,1.436872e-002
2.649757e+003,1.457532e-002
2.651686e+003,1.475906e-002
2.653614e+003,1.491533e-002
2.655542e+003,1.500486e-002
2.657471e+003,1.503636e-002
2.659399e+003,1.513467e-002
2.661328e+003,1.516298e-002
2.663256e+003,1.497323e-002
2.665185e+003,1.480009e-002
2.667114e+003,1.473027e-002
2.669042e+003,1.458111e-002
2.670970e+003,1.435928e-002
2.672899e+003,1.412062e-002
2.674827e+003,1.394737e-002
2.676756e+003,1.381342e-002
2.678685e+003,1.370553e-002
2.680613e+003,1.361414e-002
2.682542e+003,1.351540e-002
2.684470e+003,1.344982e-002
2.686398e+003,1.337129e-002
2.688327e+003,1.319910e-002
2.690255e+003,1.302326e-002
2.692184e+003,1.288776e-002
2.694113e+003,1.282993e-002
2.696041e+003,1.281256e-002
2.697969e+003,1.278431e-002
2.699898e+003,1.282246e-002
2.701826e+003,1.299322e-002
2.703755e+003,1.319423e-002
2.705683e+003,1.334646e-002
2.707612e+003,1.349222e-002
2.709541e+003,1.363130e-002
2.711469e+003,1.377904e-002
2.713397e+003,1.397427e-002
2.715326e+003,1.414758e-002
2.717254e+003,1.436794e-002
2.719183e+003,1.458134e-002
2.721111e+003,1.478814e-002
2.723040e+003,1.504049e-002
2.724969e+003,1.533147e-002
2.726897e+003,1.562404e-002
2.728825e+003,1.594376e-002
2.730754e+003,1.617466e-002
2.732682e+003,1.638832e-002
2.734611e+003,1.663328e-002
2.736539e+003,1.682630e-002
2.738468e+003,1.692628e-002
2.740396e+003,1.696380e-002
2.742325e+003,1.704518e-002
2.744253e+003,1.708014e-002
2.746182e+003,1.706498e-002
2.748110e+003,1.706086e-002
2.750039e+003,1.715308e-002
2.751967e+003,1.731255e-002
2.753896e+003,1.752084e-002
2.755824e+003,1.784487e-002
2.757753e+003,1.827879e-002
2.759681e+003,1.870601e-002
2.761610e+003,1.911176e-002
2.763538e+003,1.952075e-002
2.765467e+003,1.992097e-002
2.767395e+003,2.034853e-002
2.769324e+003,2.093425e-002
2.771252e+003,2.162981e-002
2.773181e+003,2.231472e-002
2.775109e+003,2.307971e-002
2.777038e+003,2.390473e-002
2.778966e+003,2.487720e-002
2.780895e+003,2.592145e-002
2.782823e+003,2.709763e-002
2.784752e+003,2.835476e-002
2.786680e+003,2.976886e-002
2.788609e+003,3.132318e-002
2.790537e+003,3.295374e-002
2.792466e+003,3.467194e-002
2.794394e+003,3.650511e-002
2.796323e+003,3.839018e-002
2.798251e+003,4.025443e-002
2.800180e+003,4.223748e-002
2.802108e+003,4.435677e-002
2.804037e+003,4.663182e-002
2.805965e+003,4.910047e-002
2.807894e+003,5.183712e-002
2.809822e+003,5.493893e-002
2.811751e+003,5.847048e-002
2.813679e+003,6.243319e-002
2.815608e+003,6.695011e-002
2.817536e+003,7.227930e-002
2.819465e+003,7.863382e-002
2.821393e+003,8.628493e-002
2.823322e+003,9.559823e-002
2.825250e+003,1.071499e-001
2.827179e+003,1.216717e-001
2.829107e+003,1.403974e-001
2.831036e+003,1.652105e-001
2.832964e+003,1.988472e-001
2.834893e+003,2.458799e-001
2.836821e+003,3.123932e-001
2.838750e+003,4.086956e-001
2.840678e+003,5.519279e-001
2.842607e+003,7.633852e-001
2.844535e+003,1.051960e+000
2.846464e+003,1.337850e+000
2.848392e+003,1.363913e+000
2.850321e+003,1.087938e+000
2.852249e+003,7.934312e-001
2.854178e+003,5.901371e-001
2.856106e+003,4.529271e-001
2.858035e+003,3.557248e-001
2.859963e+003,2.864061e-001
2.861892e+003,2.381775e-001
2.863820e+003,2.060850e-001
2.865749e+003,1.864838e-001
2.867677e+003,1.765688e-001
2.869606e+003,1.736215e-001
2.871534e+003,1.753058e-001
2.873463e+003,1.811826e-001
2.875391e+003,1.924946e-001
2.877320e+003,2.100956e-001
2.879248e+003,2.335542e-001
2.881177e+003,2.616373e-001
2.883105e+003,2.930585e-001
2.885034e+003,3.270630e-001
2.886962e+003,3.631856e-001
2.888891e+003,4.006298e-001
2.890819e+003,4.384884e-001
2.892748e+003,4.760030e-001
2.894676e+003,5.128132e-001
2.896605e+003,5.498720e-001
2.898533e+003,5.888144e-001
2.900462e+003,6.323009e-001
2.902390e+003,6.850109e-001
2.904319e+003,7.536808e-001
2.906247e+003,8.475890e-001
2.908176e+003,9.774673e-001
2.910104e+003,1.151440e+000
2.912033e+003,1.359000e+000
2.913961e+003,1.529729e+000
2.915890e+003,1.542783e+000
2.917818e+003,1.382599e+000
2.919747e+003,1.162688e+000
2.921675e+003,9.622881e-001
2.923604e+003,7.993105e-001
2.925532e+003,6.701269e-001
2.927461e+003,5.659861e-001
2.929389e+003,4.792993e-001
2.931318e+003,4.054766e-001
2.933246e+003,3.422028e-001
2.935175e+003,2.882232e-001
2.937103e+003,2.423996e-001
2.939032e+003,2.037096e-001
2.940960e+003,1.715793e-001
2.942889e+003,1.455110e-001
2.944817e+003,1.251756e-001
2.946746e+003,1.100678e-001
2.948674e+003,9.964117e-002
2.950603e+003,9.267712e-002
2.952531e+003,8.747550e-002
2.954460e+003,8.259736e-002
2.956388e+003,7.733986e-002
2.958317e+003,7.170203e-002
2.960245e+003,6.572759e-002
2.962174e+003,5.953795e-002
2.964102e+003,5.342961e-002
2.966031e+003,4.754315e-002
2.967959e+003,4.227523e-002
2.969888e+003,3.762832e-002
2.971816e+003,3.366349e-002
2.973745e+003,3.034927e-002
2.975673e+003,2.767942e-002
2.977602e+003,2.544796e-002
2.979530e+003,2.349998e-002
2.981459e+003,2.181384e-002
2.983387e+003,2.043176e-002
2.985316e+003,1.923719e-002
2.987244e+003,1.821761e-002
2.989173e+003,1.725444e-002
2.991101e+003,1.638925e-002
2.993030e+003,1.575835e-002
2.994958e+003,1.520687e-002
2.996887e+003,1.456722e-002
2.998815e+003,1.402977e-002
3.000744e+003,1.360026e-002
3.002672e+003,1.314270e-002
3.004601e+003,1.267366e-002
3.006529e+003,1.234229e-002
3.008458e+003,1.207105e-002
3.010386e+003,1.178216e-002
3.012315e+003,1.157383e-002
3.014243e+003,1.138438e-002
3.016172e+003,1.108302e-002
3.018100e+003,1.080037e-002
3.020029e+003,1.059637e-002
3.021957e+003,1.051202e-002
3.023886e+003,1.037047e-002
3.025814e+003,1.015547e-002
3.027743e+003,9.977855e-003
3.029671e+003,9.790793e-003
3.031600e+003,9.592388e-003
3.033528e+003,9.352226e-003
3.035457e+003,9.067927e-003
3.037385e+003,8.751936e-003
3.039314e+003,8.459311e-003
3.041242e+003,8.185927e-003
3.043171e+003,7.927433e-003
3.045099e+003,7.705718e-003
3.047028e+003,7.493850e-003
3.048956e+003,7.290810e-003
3.050885e+003,7.000569e-003
3.052813e+003,6.853756e-003
3.054742e+003,6.812084e-003
3.056670e+003,6.681465e-003
3.058599e+003,6.471068e-003
3.060527e+003,6.338727e-003
3.062456e+003,6.208327e-003
3.064384e+003,6.084241e-003
3.066313e+003,5.966179e-003
3.068241e+003,5.828384e-003
3.070170e+003,5.656976e-003
3.072098e+003,5.583845e-003
3.074027e+003,5.534336e-003
3.075955e+003,5.499564e-003
3.077884e+003,5.441006e-003
3.079812e+003,5.332939e-003
3.081741e+003,5.154070e-003
3.083669e+003,4.970357e-003
3.085598e+003,4.828434e-003
3.087526e+003,4.808549e-003
3.089455e+003,4.654754e-003
3.091383e+003,4.366223e-003
3.093312e+003,4.075065e-003
3.095240e+003,3.961325e-003
3.097169e+003,3.741741e-003
3.099097e+003,3.388591e-003
3.101026e+003,3.164016e-003
3.102954e+003,3.078017e-003
3.104883e+003,2.791110e-003
3.106811e+003,2.584245e-003
3.108740e+003,2.466924e-003
3.110668e+003,2.402861e-003
3.112597e+003,2.308510e-003
3.114525e+003,2.315123e-003
3.116454e+003,2.291810e-003
3.118382e+003,2.175748e-003
3.120311e+003,2.087593e-003
3.122239e+003,2.124585e-003
3.124168e+003,2.201945e-003
3.126096e+003,2.164520e-003
3.128025e+003,2.121177e-003
3.129953e+003,2.028748e-003
3.131882e+003,1.994334e-003
3.133810e+003,1.983982e-003
3.135739e+003,1.930594e-003
3.137667e+003,2.008114e-003
3.139596e+003,2.019659e-003
3.141524e+003,2.068121e-003
3.143453e+003,2.159681e-003
3.145381e+003,2.214819e-003
3.147310e+003,2.230253e-003
3.149238e+003,2.125461e-003
3.151167e+003,2.062183e-003
3.153095e+003,2.147328e-003
3.155024e+003,2.238825e-003
3.156952e+003,2.254188e-003
3.158881e+003,2.158955e-003
3.160809e+003,2.123356e-003
3.162738e+003,2.149209e-003
3.164666e+003,2.181992e-003
3.166594e+003,2.212126e-003
3.168523e+003,2.306927e-003
3.170452e+003,2.402503e-003
3.172380e+003,2.421133e-003
3.174309e+003,2.366893e-003
3.176237e+003,2.318859e-003
3.178166e+003,2.375998e-003
3.180094e+003,2.415121e-003
3.182022e+003,2.518453e-003
3.183951e+003,2.656855e-003
3.185880e+003,2.584390e-003
3.187808e+003,2.523355e-003
3.189737e+003,2.602980e-003
3.191665e+003,2.667360e-003
3.193594e+003,2.727140e-003
3.195522e+003,2.671130e-003
3.197450e+003,2.715942e-003
3.199379e+003,2.787188e-003
3.201308e+003,2.742216e-003
3.203236e+003,2.697732e-003
3.205165e+003,2.703436e-003
3.207093e+003,2.820291e-003
3.209021e+003,2.990890e-003
3.210950e+003,3.049508e-003
3.212878e+003,2.984017e-003
3.214807e+003,2.964240e-003
3.216736e+003,2.948493e-003
3.218664e+003,3.031462e-003
3.220593e+003,3.042396e-003
3.222521e+003,2.946027e-003
3.224449e+003,2.957687e-003
3.226378e+003,3.063489e-003
3.228307e+003,3.134981e-003
3.230235e+003,3.067575e-003
3.232164e+003,3.070172e-003
3.234092e+003,3.182456e-003
3.236021e+003,3.351919e-003
3.237949e+003,3.356114e-003
3.239877e+003,3.300648e-003
3.241806e+003,3.357738e-003
3.243735e+003,3.504705e-003
3.245663e+003,3.647108e-003
3.247592e+003,3.612362e-003
3.249520e+003,3.576785e-003
3.251448e+003,3.687423e-003
3.253377e+003,3.743824e-003
3.255305e+003,3.782526e-003
3.257234e+003,3.876928e-003
3.259163e+003,3.882501e-003
3.261091e+003,3.869947e-003
3.263020e+003,3.973793e-003
3.264948e+003,4.167326e-003
3.266876e+003,4.143640e-003
3.268805e+003,4.142780e-003
3.270733e+003,4.232422e-003
3.272662e+003,4.431378e-003
3.274591e+003,4.540402e-003
3.276519e+003,4.512805e-003
3.278448e+003,4.453614e-003
3.280376e+003,4.402637e-003
3.282304e+003,4.465170e-003
3.284233e+003,4.552100e-003
3.286161e+003,4.593480e-003
3.288090e+003,4.654646e-003
3.290019e+003,4.617188e-003
3.291947e+003,4.535403e-003
3.293875e+003,4.540421e-003
3.295804e+003,4.574243e-003
3.297732e+003,4.602000e-003
3.299661e+003,4.637685e-003
3.301589e+003,4.619084e-003
3.303518e+003,4.603386e-003
3.305447e+003,4.612710e-003
3.307375e+003,4.584786e-003
3.309303e+003,4.575573e-003
3.311232e+003,4.548151e-003
3.313160e+003,4.561737e-003
3.315089e+003,4.530523e-003
3.317018e+003,4.558023e-003
3.318946e+003,4.519738e-003
3.320875e+003,4.391976e-003
3.322803e+003,4.507083e-003
3.324731e+003,4.671358e-003
3.326660e+003,4.633583e-003
3.328588e+003,4.557479e-003
3.330517e+003,4.503559e-003
3.332446e+003,4.542496e-003
3.334374e+003,4.712705e-003
3.336302e+003,4.767176e-003
3.338231e+003,4.718229e-003
3.340159e+003,4.679147e-003
3.342088e+003,4.572473e-003
3.344016e+003,4.511803e-003
3.345945e+003,4.510660e-003
3.347874e+003,4.400950e-003
3.349802e+003,4.383724e-003
3.351730e+003,4.474808e-003
3.353659e+003,4.553974e-003
3.355587e+003,4.653845e-003
3.357516e+003,4.634060e-003
3.359444e+003,4.559319e-003
3.361373e+003,4.622512e-003
3.363302e+003,4.569255e-003
3.365230e+003,4.409447e-003
3.367158e+003,4.461605e-003
3.369087e+003,4.562821e-003
3.371015e+003,4.546311e-003
3.372944e+003,4.403368e-003
3.374872e+003,4.304152e-003
3.376801e+003,4.231095e-003
3.378729e+003,4.231755e-003
3.380658e+003,4.276242e-003
3.382586e+003,4.248396e-003
3.384515e+003,4.193716e-003
3.386443e+003,4.073091e-003
3.388372e+003,4.064731e-003
3.390300e+003,4.022676e-003
3.392229e+003,4.152134e-003
3.394157e+003,4.163120e-003
3.396086e+003,4.011746e-003
3.398014e+003,3.996562e-003
3.399943e+003,3.939476e-003
3.401871e+003,3.872573e-003
3.403800e+003,3.772490e-003
3.405728e+003,3.659863e-003
3.407657e+003,3.685683e-003
3.409585e+003,3.679074e-003
3.411514e+003,3.637418e-003
3.413442e+003,3.604438e-003
3.415371e+003,3.589366e-003
3.417299e+003,3.540702e-003
3.419228e+003,3.673010e-003
3.421156e+003,3.729608e-003
3.423085e+003,3.557816e-003
3.425013e+003,3.466815e-003
3.426942e+003,3.567442e-003
3.428870e+003,3.622204e-003
3.430799e+003,3.589008e-003
3.432727e+003,3.495447e-003
3.434656e+003,3.345545e-003
3.436584e+003,3.260437e-003
3.438513e+003,3.317364e-003
3.440441e+003,3.379762e-003
3.442370e+003,3.427666e-003
3.444298e+003,3.394186e-003
3.446227e+003,3.469191e-003
3.448155e+003,3.364757e-003
3.450084e+003,3.059208e-003
3.452012e+003,2.977047e-003
3.453941e+003,2.903625e-003
3.455869e+003,2.870314e-003
3.457798e+003,2.874453e-003
3.459726e+003,2.780315e-003
3.461655e+003,2.833631e-003
3.463583e+003,2.714317e-003
3.465512e+003,2.567932e-003
3.467440e+003,2.580047e-003
3.469369e+003,2.544969e-003
3.471297e+003,2.472218e-003
3.473226e+003,2.403758e-003
3.475154e+003,2.408568e-003
3.477083e+003,2.380412e-003
3.479011e+003,2.246317e-003
3.480940e+003,2.298851e-003
3.482868e+003,2.298716e-003
3.484797e+003,2.149023e-003
3.486725e+003,2.247572e-003
3.488654e+003,2.244309e-003
3.490582e+003,2.004839e-003
3.492511e+003,1.855597e-003
3.494439e+003,1.833405e-003
3.496368e+003,1.860622e-003
3.498296e+003,1.972545e-003
3.500225e+003,2.182677e-003
3.502153e+003,2.336230e-003
3.504082e+003,2.214693e-003
3.506010e+003,1.933347e-003
3.507939e+003,2.025872e-003
3.509867e+003,2.013445e-003
3.511796e+003,1.747344e-003
3.513724e+003,1.521826e-003
3.515653e+003,1.494590e-003
3.517581e+003,1.658771e-003
3.519510e+003,1.520380e-003
3.521438e+003,1.507614e-003
3.523367e+003,1.900367e-003
3.525295e+003,1.713429e-003
3.527224e+003,1.533397e-003
3.529152e+003,1.416311e-003
3.531081e+003,1.222700e-003
3.533009e+003,9.743795e-004
3.534938e+003,9.081289e-004
3.536866e+003,9.371117e-004
3.538795e+003,7.531047e-004
3.540723e+003,7.654987e-004
3.542652e+003,1.088329e-003
3.544580e+003,1.434769e-003
3.546509e+003,1.535792e-003
3.548437e+003,1.206413e-003
3.550366e+003,8.729920e-004
3.552294e+003,9.313487e-004
3.554223e+003,6.927401e-004
3.556151e+003,4.448220e-004
3.558080e+003,4.598647e-004
3.560008e+003,6.631166e-004
3.561937e+003,7.719696e-004
3.563865e+003,1.083735e-003
3.565794e+003,1.774497e-003
3.567722e+003,1.888212e-003
3.569651e+003,8.539297e-004
3.571579e+003,3.250390e-004
3.573508e+003,3.325120e-004
3.575436e+003,3.762767e-004
3.577365e+003,3.192015e-004
3.579293e+003,2.949759e-004
3.581222e+003,1.260787e-004
3.583150e+003,-1.956895e-005
3.585079e+003,1.406968e-004
3.587007e+003,9.978078e-004
3.588936e+003,1.147401e-003
3.590864e+003,5.970560e-004
3.592793e+003,7.803291e-004
3.594721e+003,1.462810e-003
3.596650e+003,1.787737e-003
3.598578e+003,1.959205e-003
3.600507e+003,2.370570e-003
3.602435e+003,2.325851e-003
3.604364e+003,1.931887e-003
3.606292e+003,2.101474e-003
3.608221e+003,2.671361e-003
3.610149e+003,2.075192e-003
3.612078e+003,1.592118e-003
3.614006e+003,1.762323e-003
3.615935e+003,1.106735e-003
3.617863e+003,1.320455e-003
3.619792e+003,1.592927e-003
3.621720e+003,7.211417e-004
3.623649e+003,4.337952e-004
3.625577e+003,5.236194e-004
3.627506e+003,9.347871e-004
3.629434e+003,2.167080e-003
3.631363e+003,7.231459e-004
3.633291e+003,5.814806e-005
3.635220e+003,9.931624e-005
3.637148e+003,-8.729473e-005
3.639077e+003,-3.947318e-005
3.641005e+003,7.423759e-005
3.642934e+003,2.133958e-004
3.644862e+003,1.067482e-004
3.646791e+003,9.212717e-004
3.648719e+003,1.632836e-003
3.650648e+003,1.724452e-003
3.652576e+003,6.486848e-004
3.654505e+003,6.311759e-005
3.656433e+003,5.368702e-004
3.658362e+003,-3.078803e-004
3.660290e+003,-9.953529e-004
3.662219e+003,-1.006994e-003
3.664147e+003,-8.794405e-004
3.666076e+003,-7.739700e-004
3.668004e+003,-6.373934e-004
3.669933e+003,7.008463e-004
3.671861e+003,1.204498e-004
3.673790e+003,-6.929040e-004
3.675718e+003,2.140407e-003
3.677647e+003,1.096055e-003
3.679575e+003,-1.923814e-004
3.681504e+003,-6.968975e-004
3.683432e+003,-8.615926e-004
3.685361e+003,-7.866882e-004
3.687289e+003,-5.516075e-004
3.689218e+003,6.231107e-004
3.691146e+003,2.837926e-004
3.693075e+003,-4.566833e-004
3.695003e+003,-9.159707e-004
3.696932e+003,-9.474754e-004
3.698860e+003,-1.000296e-003
3.700789e+003,-4.251264e-004
3.702717e+003,-1.371168e-004
3.704646e+003,-7.836185e-004
3.706574e+003,-8.853227e-004
3.708503e+003,-3.179386e-004
3.710431e+003,3.747791e-004
3.712360e+003,2.609268e-004
3.714288e+003,-4.467107e-004
3.716217e+003,-8.781888e-004
3.718145e+003,-6.626137e-004
3.720074e+003,-5.691797e-004
3.722002e+003,-2.295673e-004
3.723931e+003,-2.026446e-004
3.725859e+003,-6.107613e-005
3.727788e+003,-1.975968e-004
3.729716e+003,-8.823536e-004
3.731645e+003,9.324402e-005
3.733573e+003,1.205120e-003
3.735502e+003,9.842962e-004
3.737430e+003,1.115166e-004
3.739359e+003,2.267659e-004
3.741287e+003,2.448708e-004
3.743216e+003,-4.439056e-004
3.745144e+003,1.043089e-003
3.747073e+003,8.152314e-004
3.749001e+003,1.072928e-003
3.750930e+003,1.614787e-003
3.752858e+003,5.675517e-004
3.754787e+003,-1.539364e-004
3.756715e+003,-2.429783e-004
3.758644e+003,-2.042577e-005
3.760572e+003,-5.735829e-005
3.762501e+003,-6.885305e-004
3.764429e+003,-6.317236e-004
3.766358e+003,-2.346076e-004
3.768286e+003,-7.165037e-004
3.770215e+003,-2.694614e-004
3.772143e+003,-6.384216e-004
3.774072e+003,-1.048043e-003
3.776000e+003,-8.305311e-004
3.777929e+003,-4.624538e-004
3.779857e+003,1.949891e-004
3.781786e+003,-2.204217e-004
3.783714e+003,-2.650619e-004
3.785643e+003,-6.183609e-005
3.787571e+003,-5.290546e-004
3.789500e+003,-6.974488e-004
3.791428e+003,-6.003678e-004
3.793357e+003,-8.313768e-004
3.795285e+003,-4.564337e-004
3.797214e+003,7.342212e-004
3.799142e+003,1.517870e-004
3.801071e+003,7.807128e-004
3.802999e+003,1.180839e-003
3.804927e+003,-2.301857e-004
3.806856e+003,2.483241e-004
3.808785e+003,-1.306087e-005
3.810713e+003,-4.864410e-004
3.812642e+003,-3.047884e-004
3.814570e+003,2.319366e-005
3.816499e+003,1.233689e-003
3.818427e+003,4.560389e-004
3.820355e+003,9.317212e-004
3.822284e+003,1.490168e-003
3.824213e+003,-9.648502e-005
3.826141e+003,3.727525e-005
3.828070e+003,2.750456e-004
3.829998e+003,-1.648255e-004
3.831927e+003,4.566796e-004
3.833855e+003,8.713044e-004
3.835783e+003,7.884391e-004
3.837712e+003,8.559823e-004
3.839641e+003,1.055583e-003
3.841569e+003,5.449876e-004
3.843498e+003,3.391653e-004
3.845426e+003,1.859665e-004
3.847354e+003,-3.948808e-005
3.849283e+003,3.667101e-004
3.851211e+003,9.185448e-004
3.853140e+003,2.151091e-003
3.855069e+003,1.140464e-003
3.856997e+003,2.801120e-004
3.858926e+003,-2.077520e-004
3.860854e+003,-3.680587e-005
3.862782e+003,4.398376e-004
3.864711e+003,1.122709e-003
3.866640e+003,6.482750e-004
3.868568e+003,6.182343e-004
3.870497e+003,1.832891e-003
3.872425e+003,4.232489e-004
3.874354e+003,5.659610e-004
3.876282e+003,5.859137e-004
3.878210e+003,1.231208e-004
3.880139e+003,1.439631e-003
3.882068e+003,1.543228e-003
3.883996e+003,6.234758e-004
3.885925e+003,9.779818e-004
3.887853e+003,4.585534e-004
3.889781e+003,2.144389e-004
3.891710e+003,1.304410e-003
3.893638e+003,8.556955e-004
3.895567e+003,3.633462e-004
3.897496e+003,6.752573e-004
3.899424e+003,1.535214e-003
3.901353e+003,1.552425e-003
3.903281e+003,1.555655e-003
3.905209e+003,1.478288e-003
3.907138e+003,5.538836e-004
3.909066e+003,6.599352e-005
3.910995e+003,2.751611e-004
3.912924e+003,3.710054e-004
3.914852e+003,4.801750e-004
3.916781e+003,9.226203e-004
3.918709e+003,7.007197e-004
3.920637e+003,4.565641e-004
3.922566e+003,4.491992e-004
3.924494e+003,8.949153e-004
3.926423e+003,6.325059e-004
3.928352e+003,2.820045e-004
3.930280e+003,7.861592e-004
3.932208e+003,1.112524e-003
3.934137e+003,5.641133e-004
3.936065e+003,-8.611754e-005
3.937994e+003,4.315749e-005
3.939922e+003,1.447573e-004
3.941851e+003,4.119277e-004
3.943780e+003,5.537756e-004
3.945708e+003,2.362281e-004
3.947636e+003,4.541762e-004
3.949565e+003,6.042048e-004
3.951493e+003,2.715029e-004
3.953422e+003,9.234995e-005
3.955351e+003,1.396053e-004
3.957279e+003,2.257675e-004
3.959208e+003,1.574233e-004
3.961136e+003,1.497939e-004
3.963064e+003,4.134700e-005
3.964993e+003,-1.711659e-004
3.966921e+003,-8.969754e-005
3.968850e+003,9.185448e-005
3.970779e+003,1.147613e-004
3.972707e+003,3.541261e-005
3.974635e+003,6.319210e-005
3.976564e+003,1.828037e-004
3.978492e+003,1.184233e-004
3.980421e+003,-5.378574e-005
3.982349e+003,-1.783594e-004
3.984278e+003,-1.153164e-004
3.986207e+003,-8.509308e-005
3.988135e+003,2.933666e-005
3.990063e+003,1.630671e-004
3.991992e+003,7.706508e-005
3.993920e+003,-2.563372e-005
3.995849e+003,-1.246147e-004
3.997777e+003,-2.483539e-004
3.999706e+003,-1.395643e-004
4.001635e+003,0.000000e+000
