3.991992e+002,0.000000e+000
4.011277e+002,0.000000e+000
4.030562e+002,0.000000e+000
4.049846e+002,0.000000e+000
4.069131e+002,0.000000e+000
4.088416e+002,0.000000e+000
4.107701e+002,0.000000e+000
4.126986e+002,0.000000e+000
4.146271e+002,0.000000e+000
4.165556e+002,0.000000e+000
4.184841e+002,0.000000e+000
4.204126e+002,0.000000e+000
4.223411e+002,0.000000e+000
4.242697e+002,0.000000e+000
4.261982e+002,0.000000e+000
4.281266e+002,0.000000e+000
4.300551e+002,0.000000e+000
4.319836e+002,0.000000e+000
4.339121e+002,0.000000e+000
4.358406e+002,0.000000e+000
4.377691e+002,0.000000e+000
4.396976e+002,0.000000e+000
4.416261e+002,0.000000e+000
4.435546e+002,0.000000e+000
4.454831e+002,0.000000e+000
4.474116e+002,0.000000e+000
4.493401e+002,0.000000e+000
4.512686e+002,0.000000e+000
4.531971e+002,0.000000e+000
4.551256e+002,0.000000e+000
4.570541e+002,0.000000e+000
4.589826e+002,0.000000e+000
4.609111e+002,0.000000e+000
4.628396e+002,0.000000e+000
4.647681e+002,0.000000e+000
4.666966e+002,0.000000e+000
4.686251e+002,0.000000e+000
4.705536e+002,0.000000e+000
4.724821e+002,0.000000e+000
4.744106e+002,0.000000e+000
4.763391e+002,0.000000e+000
4.782676e+002,0.000000e+000
4.801961e+002,0.000000e+000
4.821246e+002,0.000000e+000
4.840531e+002,0.000000e+000
4.859816e+002,0.000000e+000
4.879101e+002,0.000000e+000
4.898386e+002,0.000000e+000
4.917671e+002,0.000000e+000
4.936956e+002,0.000000e+000
4.956241e+002,0.000000e+000
4.975526e+002,0.000000e+000
4.994811e+002,0.000000e+000
5.014096e+002,0.000000e+000
5.033381e+002,0.000000e+000
5.052666e+002,0.000000e+000
5.071951e+002,0.000000e+000
5.091236e+002,0.000000e+000
5.110521e+002,0.000000e+000
5.129806e+002,0.000000e+000
5.149091e+002,0.000000e+000
5.168376e+002,0.000000e+000
5.187661e+002,0.000000e+000
5.206946e+002,0.000000e+000
5.226230e+002,0.000000e+000
5.245516e+002,-6.636316e-004
5.264800e+002,-7.640226e-004
5.284086e+002,-7.052235e-004
5.303370e+002,-6.367844e-004
5.322656e+002,-5.847085e-004
5.341940e+002,-6.767949e-004
5.361226e+002,-7.195082e-004
5.380510e+002,-6.712554e-004
5.399796e+002,-6.439723e-004
5.419081e+002,-7.706974e-004
5.438365e+002,-7.479666e-004
5.457650e+002,-6.593810e-004
5.476935e+002,-6.568413e-004
5.496221e+002,-6.909426e-004
5.515505e+002,-6.382894e-004
5.534790e+002,-4.337747e-004
5.554075e+002,-2.700025e-004
5.573361e+002,-4.433077e-004
5.592645e+002,-6.497856e-004
5.611931e+002,-7.737176e-004
5.631215e+002,-8.289823e-004
5.650500e+002,-8.046338e-004
5.669785e+002,-8.347901e-004
5.689070e+002,-8.727862e-004
5.708355e+002,-9.404682e-004
5.727640e+002,-1.156397e-003
5.746925e+002,-1.142608e-003
5.766210e+002,-1.057412e-003
5.785495e+002,-9.894976e-004
5.804780e+002,-9.870445e-004
5.824065e+002,-9.855321e-004
5.843350e+002,-9.479234e-004
5.862635e+002,-9.043235e-004
5.881920e+002,-1.037546e-003
5.901205e+002,-1.102267e-003
5.920490e+002,-1.115236e-003
5.939775e+002,-1.071716e-003
5.959060e+002,-1.033043e-003
5.978345e+002,-9.271372e-004
5.997630e+002,-8.378662e-004
6.016915e+002,-8.652983e-004
6.036200e+002,-8.269511e-004
6.055485e+002,-7.482013e-004
6.074770e+002,-7.722322e-004
6.094055e+002,-7.251939e-004
6.113340e+002,-7.312382e-004
6.132625e+002,-7.211445e-004
6.151910e+002,-6.949380e-004
6.171195e+002,-6.669126e-004
6.190480e+002,-8.231644e-004
6.209765e+002,-7.734969e-004
6.229050e+002,-6.095152e-004
6.248335e+002,-4.608892e-004
6.267620e+002,-4.540626e-004
6.286905e+002,-3.680978e-004
6.306190e+002,-2.976432e-004
6.325475e+002,-1.888685e-004
6.344760e+002,-2.254061e-004
6.364045e+002,-2.847817e-004
6.383330e+002,-1.881979e-004
6.402615e+002,-1.087580e-004
6.421899e+002,-1.475755e-004
6.441185e+002,-1.328997e-004
6.460470e+002,-1.195893e-004
6.479755e+002,-3.409386e-005
6.499039e+002,-1.991168e-006
6.518325e+002,-8.400343e-005
6.537610e+002,-2.668314e-004
6.556895e+002,-1.735892e-004
6.576179e+002,-1.192000e-004
6.595464e+002,-7.029995e-005
6.614750e+002,-9.376556e-006
6.634034e+002,6.859191e-005
6.653319e+002,1.049452e-004
6.672604e+002,2.340600e-004
6.691890e+002,3.111847e-004
6.711174e+002,3.817473e-004
6.730460e+002,4.049577e-004
6.749745e+002,4.494488e-004
6.769030e+002,5.259663e-004
6.788314e+002,7.291492e-004
6.807599e+002,8.704755e-004
6.826885e+002,1.040429e-003
6.846169e+002,1.142886e-003
6.865454e+002,1.289299e-003
6.884739e+002,1.403123e-003
6.904025e+002,1.667259e-003
6.923309e+002,1.989763e-003
6.942594e+002,2.497949e-003
6.961879e+002,2.993377e-003
6.981165e+002,3.749628e-003
7.000449e+002,4.708644e-003
7.019734e+002,6.027337e-003
7.039019e+002,7.642729e-003
7.058304e+002,9.992754e-003
7.077589e+002,1.324273e-002
7.096874e+002,1.824383e-002
7.116159e+002,2.636528e-002
7.135444e+002,4.183530e-002
7.154729e+002,6.881030e-002
7.174014e+002,1.030883e-001
7.193299e+002,1.155408e-001
7.212584e+002,8.556156e-002
7.231869e+002,5.644344e-002
7.251154e+002,4.586643e-002
7.270439e+002,4.974747e-002
7.289724e+002,6.523583e-002
7.309009e+002,6.274274e-002
7.328294e+002,3.579459e-002
7.347579e+002,1.766932e-002
7.366864e+002,1.124599e-002
7.386149e+002,8.583168e-003
7.405434e+002,6.997142e-003
7.424719e+002,6.011643e-003
7.444004e+002,5.285203e-003
7.463289e+002,4.819734e-003
7.482574e+002,4.362553e-003
7.501859e+002,4.059892e-003
7.521144e+002,3.753526e-003
7.540428e+002,3.422128e-003
7.559714e+002,3.116941e-003
7.578999e+002,2.925690e-003
7.598284e+002,2.651973e-003
7.617568e+002,2.414897e-003
7.636854e+002,2.194388e-003
7.656139e+002,2.069304e-003
7.675424e+002,1.981536e-003
7.694709e+002,1.893967e-003
7.713994e+002,1.769444e-003
7.733279e+002,1.649724e-003
7.752563e+002,1.569416e-003
7.771849e+002,1.561642e-003
7.791134e+002,1.598710e-003
7.810419e+002,1.566052e-003
7.829703e+002,1.536123e-003
7.848989e+002,1.504280e-003
7.868274e+002,1.524476e-003
7.887559e+002,1.537595e-003
7.906843e+002,1.490539e-003
7.926129e+002,1.428599e-003
7.945414e+002,1.400722e-003
7.964698e+002,1.390720e-003
7.983983e+002,1.413910e-003
8.003268e+002,1.392346e-003
8.022554e+002,1.396716e-003
8.041838e+002,1.467906e-003
8.061123e+002,1.444746e-003
8.080408e+002,1.341585e-003
8.099694e+002,1.217350e-003
8.118978e+002,1.107598e-003
8.138263e+002,1.035444e-003
8.157548e+002,9.604283e-004
8.176833e+002,9.257235e-004
8.196118e+002,9.083133e-004
8.215403e+002,8.644704e-004
8.234689e+002,8.116663e-004
8.253973e+002,7.792804e-004
8.273258e+002,6.701089e-004
8.292543e+002,6.096791e-004
8.311829e+002,6.306954e-004
8.331113e+002,6.060842e-004
8.350398e+002,5.678684e-004
8.369683e+002,6.292425e-004
8.388969e+002,7.285196e-004
8.408253e+002,7.938016e-004
8.427538e+002,7.248949e-004
8.446823e+002,6.809290e-004
8.466108e+002,6.896649e-004
8.485393e+002,6.712303e-004
8.504678e+002,7.090718e-004
8.523963e+002,7.515177e-004
8.543248e+002,7.088035e-004
8.562533e+002,6.817002e-004
8.581818e+002,7.211603e-004
8.601103e+002,7.447004e-004
8.620388e+002,7.097889e-004
8.639673e+002,7.194448e-004
8.658958e+002,6.761253e-004
8.678243e+002,6.727055e-004
8.697528e+002,6.608516e-004
8.716813e+002,7.287636e-004
8.736098e+002,7.889476e-004
8.755383e+002,8.253939e-004
8.774668e+002,8.891840e-004
8.793953e+002,9.491201e-004
8.813238e+002,9.510852e-004
8.832523e+002,1.061680e-003
8.851808e+002,1.141539e-003
8.871093e+002,1.231881e-003
8.890378e+002,1.286360e-003
8.909663e+002,1.267590e-003
8.928948e+002,1.115844e-003
8.948232e+002,1.002802e-003
8.967518e+002,9.008162e-004
8.986803e+002,8.811522e-004
9.006088e+002,1.013175e-003
9.025372e+002,1.250817e-003
9.044658e+002,1.534183e-003
9.063943e+002,1.986200e-003
9.083228e+002,2.226911e-003
9.102512e+002,2.006669e-003
9.121797e+002,1.524735e-003
9.141083e+002,1.210175e-003
9.160367e+002,1.006871e-003
9.179653e+002,9.241290e-004
9.198937e+002,8.925106e-004
9.218223e+002,8.413866e-004
9.237507e+002,7.940922e-004
9.256793e+002,7.862207e-004
9.276077e+002,7.394627e-004
9.295363e+002,7.780362e-004
9.314647e+002,8.340888e-004
9.333932e+002,8.639861e-004
9.353217e+002,7.970482e-004
9.372502e+002,7.274263e-004
9.391787e+002,6.926004e-004
9.411072e+002,6.909035e-004
9.430358e+002,6.804671e-004
9.449642e+002,7.218309e-004
9.468928e+002,7.665269e-004
9.488212e+002,8.140188e-004
9.507498e+002,8.435082e-004
9.526782e+002,8.965041e-004
9.546068e+002,8.910466e-004
9.565352e+002,9.716712e-004
9.584637e+002,1.039777e-003
9.603922e+002,1.079109e-003
9.623207e+002,1.157036e-003
9.642492e+002,1.252161e-003
9.661777e+002,1.261916e-003
9.681062e+002,1.310823e-003
9.700347e+002,1.354326e-003
9.719632e+002,1.416834e-003
9.738917e+002,1.430506e-003
9.758202e+002,1.401687e-003
9.777487e+002,1.335748e-003
9.796772e+002,1.368139e-003
9.816057e+002,1.428051e-003
9.835342e+002,1.538984e-003
9.854627e+002,1.682078e-003
9.873912e+002,1.870245e-003
9.893197e+002,2.006257e-003
9.912482e+002,2.113489e-003
9.931767e+002,2.097066e-003
9.951052e+002,2.155391e-003
9.970337e+002,2.192112e-003
9.989622e+002,2.248676e-003
1.000891e+003,2.320891e-003
1.002819e+003,2.440399e-003
1.004748e+003,2.578227e-003
1.006676e+003,2.753360e-003
1.008605e+003,2.955217e-003
1.010533e+003,3.240088e-003
1.012462e+003,3.532764e-003
1.014390e+003,3.810985e-003
1.016319e+003,4.035655e-003
1.018247e+003,4.210545e-003
1.020176e+003,4.181646e-003
1.022104e+003,4.075522e-003
1.024033e+003,3.939243e-003
1.025961e+003,3.889414e-003
1.027890e+003,3.878750e-003
1.029818e+003,3.884088e-003
1.031747e+003,3.867622e-003
1.033675e+003,3.945909e-003
1.035604e+003,4.017370e-003
1.037532e+003,4.077025e-003
1.039461e+003,4.111040e-003
1.041389e+003,4.280012e-003
1.043318e+003,4.354276e-003
1.045246e+003,4.416017e-003
1.047175e+003,4.446741e-003
1.049103e+003,4.522035e-003
1.051032e+003,4.463686e-003
1.052960e+003,4.330128e-003
1.054889e+003,4.263520e-003
1.056817e+003,4.283527e-003
1.058746e+003,4.312737e-003
1.060674e+003,4.474737e-003
1.062603e+003,4.534828e-003
1.064531e+003,4.493585e-003
1.066460e+003,4.463125e-003
1.068388e+003,4.518731e-003
1.070317e+003,4.574733e-003
1.072245e+003,4.748028e-003
1.074174e+003,4.908761e-003
1.076102e+003,5.072629e-003
1.078031e+003,5.149154e-003
1.079959e+003,5.242122e-003
1.081888e+003,5.186535e-003
1.083816e+003,5.109118e-003
1.085745e+003,5.034985e-003
1.087673e+003,5.011559e-003
1.089602e+003,4.949782e-003
1.091530e+003,4.864750e-003
1.093459e+003,4.733553e-003
1.095387e+003,4.662650e-003
1.097316e+003,4.556851e-003
1.099244e+003,4.504818e-003
1.101173e+003,4.431754e-003
1.103101e+003,4.406475e-003
1.105030e+003,4.334528e-003
1.106958e+003,4.291452e-003
1.108887e+003,4.194830e-003
1.110815e+003,4.117962e-003
1.112744e+003,4.000446e-003
1.114672e+003,3.954498e-003
1.116601e+003,3.896728e-003
1.118529e+003,3.891753e-003
1.120458e+003,3.859917e-003
1.122386e+003,3.840186e-003
1.124315e+003,3.780952e-003
1.126243e+003,3.836965e-003
1.128172e+003,3.882175e-003
1.130100e+003,3.941322e-003
1.132029e+003,3.966568e-003
1.133957e+003,4.063889e-003
1.135885e+003,4.136560e-003
1.137814e+003,4.273785e-003
1.139743e+003,4.368471e-003
1.141671e+003,4.622566e-003
1.143600e+003,5.026039e-003
1.145528e+003,5.663412e-003
1.147457e+003,6.522574e-003
1.149385e+003,7.609682e-003
1.151314e+003,8.601462e-003
1.153242e+003,9.302640e-003
1.155171e+003,9.579450e-003
1.157099e+003,9.652134e-003
1.159028e+003,9.599168e-003
1.160956e+003,9.576149e-003
1.162885e+003,9.465642e-003
1.164813e+003,9.279471e-003
1.166742e+003,8.955635e-003
1.168670e+003,8.549176e-003
1.170599e+003,8.016333e-003
1.172527e+003,7.476436e-003
1.174456e+003,6.917994e-003
1.176384e+003,6.512556e-003
1.178313e+003,6.026365e-003
1.180241e+003,5.618850e-003
1.182170e+003,5.355762e-003
1.184098e+003,5.286628e-003
1.186027e+003,5.296301e-003
1.187955e+003,5.392259e-003
1.189884e+003,5.495042e-003
1.191812e+003,5.726038e-003
1.193740e+003,5.959468e-003
1.195669e+003,6.282290e-003
1.197598e+003,6.621132e-003
1.199526e+003,7.107599e-003
1.201455e+003,7.613515e-003
1.203383e+003,8.216182e-003
1.205312e+003,8.777492e-003
1.207240e+003,9.313259e-003
1.209168e+003,9.726515e-003
1.211097e+003,1.009877e-002
1.213026e+003,1.036396e-002
1.214954e+003,1.061450e-002
1.216883e+003,1.082574e-002
1.218811e+003,1.110672e-002
1.220740e+003,1.133986e-002
1.222668e+003,1.162007e-002
1.224596e+003,1.186035e-002
1.226525e+003,1.213098e-002
1.228453e+003,1.233182e-002
1.230382e+003,1.259495e-002
1.232311e+003,1.282100e-002
1.234239e+003,1.307739e-002
1.236167e+003,1.323765e-002
1.238096e+003,1.338709e-002
1.240025e+003,1.344174e-002
1.241953e+003,1.344799e-002
1.243882e+003,1.331120e-002
1.245810e+003,1.312768e-002
1.247739e+003,1.278579e-002
1.249667e+003,1.242503e-002
1.251595e+003,1.201257e-002
1.253524e+003,1.159540e-002
1.255453e+003,1.111365e-002
1.257381e+003,1.062870e-002
1.259310e+003,1.000069e-002
1.261238e+003,9.363072e-003
1.263167e+003,8.676233e-003
1.265095e+003,8.134289e-003
1.267023e+003,7.655663e-003
1.268952e+003,7.373942e-003
1.270880e+003,7.109588e-003
1.272809e+003,6.990967e-003
1.274738e+003,6.888065e-003
1.276666e+003,6.886801e-003
1.278594e+003,6.847708e-003
1.280523e+003,6.917804e-003
1.282451e+003,6.993463e-003
1.284380e+003,7.172696e-003
1.286308e+003,7.343138e-003
1.288237e+003,7.612713e-003
1.290166e+003,7.863551e-003
1.292094e+003,8.247882e-003
1.294022e+003,8.633453e-003
1.295951e+003,9.100610e-003
1.297879e+003,9.431830e-003
1.299808e+003,9.710887e-003
1.301736e+003,9.806175e-003
1.303665e+003,9.887004e-003
1.305594e+003,9.776166e-003
1.307522e+003,9.612178e-003
1.309450e+003,9.267017e-003
1.311379e+003,8.942217e-003
1.313307e+003,8.478837e-003
1.315236e+003,8.048639e-003
1.317164e+003,7.562304e-003
1.319093e+003,7.139832e-003
1.321021e+003,6.622553e-003
1.322950e+003,6.312346e-003
1.324878e+003,6.054735e-003
1.326807e+003,5.944766e-003
1.328735e+003,5.879795e-003
1.330664e+003,6.009428e-003
1.332592e+003,6.140761e-003
1.334521e+003,6.556956e-003
1.336449e+003,7.148130e-003
1.338378e+003,8.037955e-003
1.340306e+003,8.727198e-003
1.342235e+003,9.122565e-003
1.344163e+003,9.492919e-003
1.346092e+003,1.017897e-002
1.348021e+003,1.087672e-002
1.349949e+003,1.161803e-002
1.351877e+003,1.196745e-002
1.353806e+003,1.205160e-002
1.355734e+003,1.181905e-002
1.357663e+003,1.186126e-002
1.359591e+003,1.220027e-002
1.361520e+003,1.310873e-002
1.363448e+003,1.432398e-002
1.365377e+003,1.540552e-002
1.367305e+003,1.618185e-002
1.369234e+003,1.625429e-002
1.371162e+003,1.523342e-002
1.373091e+003,1.437929e-002
1.375019e+003,1.430342e-002
1.376948e+003,1.433797e-002
1.378876e+003,1.246922e-002
1.380805e+003,9.480603e-003
1.382733e+003,7.188957e-003
1.384662e+003,6.258477e-003
1.386590e+003,5.813174e-003
1.388519e+003,5.593657e-003
1.390447e+003,5.197775e-003
1.392376e+003,5.140554e-003
1.394304e+003,5.130049e-003
1.396233e+003,5.377449e-003
1.398161e+003,5.296554e-003
1.400090e+003,5.406968e-003
1.402018e+003,5.164191e-003
1.403947e+003,5.352829e-003
1.405875e+003,5.384292e-003
1.407804e+003,5.541421e-003
1.409732e+003,5.604908e-003
1.411661e+003,5.985562e-003
1.413589e+003,6.047931e-003
1.415518e+003,6.459646e-003
1.417446e+003,6.754588e-003
1.419375e+003,7.744640e-003
1.421303e+003,8.054551e-003
1.423232e+003,9.129837e-003
1.425160e+003,1.052376e-002
1.427089e+003,1.243244e-002
1.429017e+003,1.498875e-002
1.430946e+003,1.876113e-002
1.432874e+003,2.166183e-002
1.434803e+003,2.451291e-002
1.436731e+003,2.763841e-002
1.438660e+003,3.034182e-002
1.440588e+003,3.169736e-002
1.442517e+003,3.369102e-002
1.444445e+003,3.520781e-002
1.446374e+003,3.774399e-002
1.448302e+003,4.132930e-002
1.450231e+003,4.670364e-002
1.452159e+003,5.469125e-002
1.454088e+003,6.531753e-002
1.456016e+003,7.633346e-002
1.457945e+003,1.030762e-001
1.459873e+003,1.498023e-001
1.461802e+003,1.962001e-001
1.463730e+003,1.951306e-001
1.465659e+003,1.519409e-001
1.467587e+003,1.396026e-001
1.469516e+003,1.382374e-001
1.471444e+003,1.572498e-001
1.473373e+003,1.384099e-001
1.475301e+003,7.485792e-002
1.477230e+003,3.323478e-002
1.479158e+003,2.109224e-002
1.481087e+003,1.542091e-002
1.483015e+003,1.276069e-002
1.484944e+003,1.057662e-002
1.486872e+003,1.008010e-002
1.488801e+003,8.966915e-003
1.490729e+003,8.814692e-003
1.492658e+003,7.442307e-003
1.494586e+003,7.268436e-003
1.496515e+003,6.677654e-003
1.498443e+003,6.957408e-003
1.500372e+003,6.198231e-003
1.502300e+003,6.021697e-003
1.504229e+003,5.367879e-003
1.506157e+003,6.225407e-003
1.508086e+003,6.290007e-003
1.510014e+003,6.215617e-003
1.511943e+003,5.415373e-003
1.513871e+003,5.418018e-003
1.515800e+003,5.330119e-003
1.517728e+003,5.743656e-003
1.519657e+003,5.369961e-003
1.521585e+003,5.991649e-003
1.523514e+003,5.451936e-003
1.525442e+003,5.594630e-003
1.527371e+003,5.240425e-003
1.529299e+003,5.234949e-003
1.531228e+003,5.010612e-003
1.533156e+003,5.497597e-003
1.535085e+003,5.262282e-003
1.537013e+003,5.249426e-003
1.538942e+003,5.304746e-003
1.540870e+003,6.808467e-003
1.542799e+003,6.203856e-003
1.544727e+003,5.925074e-003
1.546656e+003,5.045969e-003
1.548584e+003,5.002588e-003
1.550513e+003,4.847657e-003
1.552441e+003,4.712585e-003
1.554370e+003,4.437301e-003
1.556298e+003,4.505388e-003
1.558227e+003,4.660018e-003
1.560155e+003,5.214859e-003
1.562084e+003,4.244749e-003
1.564012e+003,3.999595e-003
1.565941e+003,3.709193e-003
1.567869e+003,3.847718e-003
1.569798e+003,3.966741e-003
1.571726e+003,3.873121e-003
1.573655e+003,3.611915e-003
1.575583e+003,3.996901e-003
1.577512e+003,4.068494e-003
1.579440e+003,3.853064e-003
1.581369e+003,3.572084e-003
1.583297e+003,3.506754e-003
1.585226e+003,3.343392e-003
1.587154e+003,3.393143e-003
1.589083e+003,3.353730e-003
1.591011e+003,3.428735e-003
1.592940e+003,3.326274e-003
1.594868e+003,3.420409e-003
1.596797e+003,3.331140e-003
1.598725e+003,3.341209e-003
1.600654e+003,3.287073e-003
1.602582e+003,3.408723e-003
1.604511e+003,3.301516e-003
1.606439e+003,3.428098e-003
1.608368e+003,3.448263e-003
1.610296e+003,3.525857e-003
1.612225e+003,3.466576e-003
1.614153e+003,3.580749e-003
1.616082e+003,3.826633e-003
1.618010e+003,4.193354e-003
1.619939e+003,3.969625e-003
1.621867e+003,4.090603e-003
1.623796e+003,4.269198e-003
1.625724e+003,4.425157e-003
1.627653e+003,4.597791e-003
1.629581e+003,4.744548e-003
1.631510e+003,4.578363e-003
1.633438e+003,4.667446e-003
1.635367e+003,5.286235e-003
1.637295e+003,6.011453e-003
1.639224e+003,5.770378e-003
1.641152e+003,5.622163e-003
1.643081e+003,5.429089e-003
1.645009e+003,5.656708e-003
1.646938e+003,6.235518e-003
1.648866e+003,6.123219e-003
1.650795e+003,5.630627e-003
1.652723e+003,6.184597e-003
1.654652e+003,6.501988e-003
1.656580e+003,6.086580e-003
1.658509e+003,5.638186e-003
1.660437e+003,5.549747e-003
1.662366e+003,5.534191e-003
1.664294e+003,5.405676e-003
1.666223e+003,5.061958e-003
1.668151e+003,5.076267e-003
1.670080e+003,5.047418e-003
1.672008e+003,4.744314e-003
1.673937e+003,4.388563e-003
1.675865e+003,4.459154e-003
1.677794e+003,4.135702e-003
1.679722e+003,4.020058e-003
1.681651e+003,3.780015e-003
1.683579e+003,3.950246e-003
1.685508e+003,3.815077e-003
1.687436e+003,3.514133e-003
1.689365e+003,3.091928e-003
1.691293e+003,2.772890e-003
1.693222e+003,2.367709e-003
1.695150e+003,2.367485e-003
1.697079e+003,2.455633e-003
1.699007e+003,2.507608e-003
1.700936e+003,2.360232e-003
1.702864e+003,2.157040e-003
1.704793e+003,1.950547e-003
1.706721e+003,1.930196e-003
1.708650e+003,1.673799e-003
1.710578e+003,1.610428e-003
1.712507e+003,1.475088e-003
1.714435e+003,1.715641e-003
1.716364e+003,1.992714e-003
1.718292e+003,2.200522e-003
1.720221e+003,1.763381e-003
1.722149e+003,1.619544e-003
1.724078e+003,1.515932e-003
1.726006e+003,1.512796e-003
1.727935e+003,1.479484e-003
1.729863e+003,1.683321e-003
1.731792e+003,1.666799e-003
1.733720e+003,2.215941e-003
1.735649e+003,2.063069e-003
1.737577e+003,1.819804e-003
1.739506e+003,1.703270e-003
1.741434e+003,1.737721e-003
1.743363e+003,1.594037e-003
1.745291e+003,1.432218e-003
1.747220e+003,1.228575e-003
1.749148e+003,1.288060e-003
1.751077e+003,1.118839e-003
1.753005e+003,7.932000e-004
1.754934e+003,4.440397e-004
1.756862e+003,5.122684e-004
1.758791e+003,3.171004e-004
1.760719e+003,3.183149e-004
1.762648e+003,3.190264e-004
1.764576e+003,1.758859e-004
1.766505e+003,3.165379e-005
1.768433e+003,1.605675e-004
1.770362e+003,1.616739e-004
1.772290e+003,5.489476e-004
1.774219e+003,3.582500e-004
1.776147e+003,1.158118e-004
1.778076e+003,-1.416653e-004
1.780004e+003,-3.661960e-005
1.781933e+003,-1.256205e-004
1.783861e+003,-6.600097e-005
1.785790e+003,-1.718961e-004
1.787718e+003,-2.377033e-004
1.789646e+003,-3.517680e-004
1.791575e+003,-5.705655e-005
1.793504e+003,4.961714e-005
1.795432e+003,7.101148e-005
1.797361e+003,-1.592450e-004
1.799289e+003,-1.281425e-004
1.801218e+003,-7.401779e-005
1.803146e+003,-1.090541e-004
1.805074e+003,-3.292896e-004
1.807003e+003,-2.990998e-004
1.808932e+003,-3.624223e-004
1.810860e+003,-3.288835e-004
1.812789e+003,-6.141439e-004
1.814717e+003,-9.589717e-004
1.816646e+003,-1.158673e-003
1.818574e+003,-7.391125e-004
1.820502e+003,-6.721504e-004
1.822431e+003,-6.345510e-004
1.824360e+003,-6.703883e-004
1.826288e+003,-6.727353e-004
1.828217e+003,-7.245280e-004
1.830145e+003,-5.317703e-004
1.832073e+003,-9.572506e-004
1.834002e+003,-1.059331e-003
1.835931e+003,-1.070730e-003
1.837859e+003,-9.668134e-004
1.839788e+003,-1.149554e-003
1.841716e+003,-1.087595e-003
1.843645e+003,-1.121089e-003
1.845573e+003,-9.366348e-004
1.847501e+003,-1.113787e-003
1.849430e+003,-9.884238e-004
1.851359e+003,-1.202740e-003
1.853287e+003,-1.215644e-003
1.855216e+003,-1.354817e-003
1.857144e+003,-1.229260e-003
1.859073e+003,-1.347166e-003
1.861001e+003,-1.269165e-003
1.862929e+003,-1.520541e-003
1.864858e+003,-1.498677e-003
1.866787e+003,-1.511782e-003
1.868715e+003,-1.193710e-003
1.870644e+003,-1.327898e-003
1.872572e+003,-1.242206e-003
1.874500e+003,-1.416121e-003
1.876429e+003,-1.336180e-003
1.878357e+003,-1.508269e-003
1.880286e+003,-1.515374e-003
1.882215e+003,-1.597535e-003
1.884143e+003,-1.375146e-003
1.886072e+003,-1.447573e-003
1.888000e+003,-1.213945e-003
1.889928e+003,-9.683706e-004
1.891857e+003,-5.202703e-004
1.893785e+003,-4.748106e-004
1.895714e+003,-1.906231e-004
1.897643e+003,-5.684420e-004
1.899571e+003,-6.038547e-004
1.901500e+003,-5.985685e-004
1.903428e+003,-5.932897e-004
1.905356e+003,-5.880259e-004
1.907285e+003,-5.827770e-004
1.909213e+003,-5.775355e-004
1.911142e+003,-5.723089e-004
1.913071e+003,-5.670898e-004
1.914999e+003,-5.618967e-004
1.916927e+003,-5.567037e-004
1.918856e+003,-5.515255e-004
1.920784e+003,-5.463623e-004
1.922713e+003,-5.412139e-004
1.924641e+003,-5.360693e-004
1.926570e+003,-5.309395e-004
1.928499e+003,-5.258247e-004
1.930427e+003,-5.207211e-004
1.932355e+003,-5.156323e-004
1.934284e+003,-5.105548e-004
1.936212e+003,-5.054846e-004
1.938141e+003,-5.004294e-004
1.940070e+003,-4.953891e-004
1.941998e+003,-4.903600e-004
1.943927e+003,-4.853457e-004
1.945855e+003,-4.803427e-004
1.947783e+003,-4.753470e-004
1.949712e+003,-4.703663e-004
1.951640e+003,-4.654005e-004
1.953569e+003,-4.604496e-004
1.955498e+003,-4.555061e-004
1.957426e+003,-4.505701e-004
1.959354e+003,-4.456602e-004
1.961283e+003,-4.407540e-004
1.963211e+003,-4.358552e-004
1.965140e+003,-4.309714e-004
1.967068e+003,-4.261062e-004
1.968997e+003,-4.212558e-004
1.970926e+003,-4.164092e-004
1.972854e+003,-4.115775e-004
1.974782e+003,-4.067570e-004
1.976711e+003,-4.019476e-004
1.978639e+003,-3.971532e-004
1.980568e+003,-3.923774e-004
1.982496e+003,-3.876053e-004
1.984425e+003,-3.828481e-004
1.986354e+003,-3.780983e-004
1.988282e+003,-3.733709e-004
1.990210e+003,-3.686510e-004
1.992139e+003,-3.639385e-004
1.994067e+003,-3.592409e-004
1.995996e+003,-3.545620e-004
1.997924e+003,-3.498867e-004
1.999853e+003,-3.452264e-004
2.001781e+003,-3.405809e-004
2.003710e+003,-3.359467e-004
2.005638e+003,-3.313273e-004
2.007567e+003,-3.267191e-004
2.009495e+003,-3.221259e-004
2.011424e+003,-3.175437e-004
2.013352e+003,-3.129616e-004
2.015281e+003,-3.084093e-004
2.017209e+003,-3.038570e-004
2.019138e+003,-2.993234e-004
2.021066e+003,-2.947971e-004
2.022995e+003,-2.902858e-004
2.024923e+003,-2.857968e-004
2.026852e+003,-2.813078e-004
2.028781e+003,-2.768338e-004
2.030709e+003,-2.723671e-004
2.032637e+003,-2.679266e-004
2.034566e+003,-2.634898e-004
2.036494e+003,-2.590604e-004
2.038423e+003,-2.546497e-004
2.040351e+003,-2.502501e-004
2.042280e+003,-2.458543e-004
2.044208e+003,-2.414808e-004
2.046137e+003,-2.371222e-004
2.048065e+003,-2.327785e-004
2.049994e+003,-2.284423e-004
2.051922e+003,-2.241135e-004
2.053851e+003,-2.197959e-004
2.055779e+003,-2.154931e-004
2.057708e+003,-2.112091e-004
2.059636e+003,-2.069399e-004
2.061565e+003,-2.026670e-004
2.063493e+003,-1.984201e-004
2.065422e+003,-1.941770e-004
2.067350e+003,-1.899600e-004
2.069279e+003,-1.857355e-004
2.071207e+003,-1.815408e-004
2.073136e+003,-1.773499e-004
2.075064e+003,-1.731664e-004
2.076993e+003,-1.690090e-004
2.078921e+003,-1.648590e-004
2.080850e+003,-1.607165e-004
2.082778e+003,-1.565851e-004
2.084707e+003,-1.524650e-004
2.086635e+003,-1.483634e-004
2.088564e+003,-1.442730e-004
2.090492e+003,-1.401976e-004
2.092421e+003,-1.361370e-004
2.094349e+003,-1.320802e-004
2.096278e+003,-1.280382e-004
2.098206e+003,-1.240075e-004
2.100135e+003,-1.199916e-004
2.102063e+003,-1.159906e-004
2.103992e+003,-1.119934e-004
2.105920e+003,-1.080148e-004
2.107849e+003,-1.040474e-004
2.109777e+003,-1.000986e-004
2.111706e+003,-9.615719e-005
2.113634e+003,-9.222329e-005
2.115563e+003,-8.830056e-005
2.117491e+003,-8.439273e-005
2.119420e+003,-8.050352e-005
2.121348e+003,-7.662922e-005
2.123277e+003,-7.275492e-005
2.125205e+003,-6.889924e-005
2.127134e+003,-6.505847e-005
2.129062e+003,-6.122142e-005
2.130991e+003,-5.739927e-005
2.132919e+003,-5.359948e-005
2.134848e+003,-4.980713e-005
2.136776e+003,-4.602224e-005
2.138705e+003,-4.225224e-005
2.140633e+003,-3.849715e-005
2.142562e+003,-3.474951e-005
2.144490e+003,-3.101677e-005
2.146419e+003,-2.729520e-005
2.148347e+003,-2.358481e-005
2.150276e+003,-1.989305e-005
2.152204e+003,-1.621246e-005
2.154133e+003,-1.253560e-005
2.156061e+003,-8.877367e-006
2.157990e+003,-5.230308e-006
2.159918e+003,-1.594424e-006
2.161847e+003,2.019107e-006
2.163775e+003,5.625188e-006
2.165704e+003,9.223819e-006
2.167632e+003,1.280755e-005
2.169561e+003,1.638010e-005
2.171489e+003,1.994520e-005
2.173418e+003,2.349168e-005
2.175346e+003,2.703071e-005
2.177275e+003,3.054738e-005
2.179203e+003,3.406405e-005
2.181132e+003,3.755838e-005
2.183060e+003,4.103780e-005
2.184989e+003,4.451349e-005
2.186917e+003,4.797429e-005
2.188846e+003,5.142763e-005
2.190774e+003,5.486235e-005
2.192703e+003,5.828962e-005
2.194631e+003,6.169826e-005
2.196560e+003,6.509572e-005
2.198488e+003,6.847829e-005
2.200417e+003,7.186458e-005
2.202345e+003,7.522851e-005
2.204274e+003,7.857382e-005
2.206202e+003,8.190423e-005
2.208131e+003,8.523092e-005
2.210059e+003,8.855015e-005
2.211988e+003,9.184703e-005
2.213916e+003,9.513274e-005
2.215845e+003,9.840727e-005
2.217773e+003,1.016781e-004
2.219702e+003,1.049265e-004
2.221630e+003,1.081638e-004
2.223559e+003,1.113936e-004
2.225487e+003,1.146048e-004
2.227416e+003,1.178049e-004
2.229344e+003,1.209974e-004
2.231273e+003,1.241788e-004
2.233201e+003,1.273379e-004
2.235130e+003,1.304969e-004
2.237058e+003,1.336336e-004
2.238987e+003,1.367554e-004
2.240915e+003,1.398697e-004
2.242844e+003,1.429729e-004
2.244772e+003,1.460761e-004
2.246701e+003,1.491420e-004
2.248629e+003,1.522079e-004
2.250558e+003,1.552664e-004
2.252486e+003,1.583062e-004
2.254415e+003,1.613349e-004
2.256343e+003,1.643561e-004
2.258272e+003,1.673549e-004
2.260200e+003,1.703463e-004
2.262129e+003,1.733340e-004
2.264057e+003,1.762956e-004
2.265986e+003,1.792498e-004
2.267914e+003,1.821890e-004
2.269843e+003,1.851171e-004
2.271771e+003,1.880303e-004
2.273700e+003,1.909398e-004
2.275628e+003,1.938418e-004
2.277557e+003,1.967251e-004
2.279485e+003,1.995862e-004
2.281414e+003,2.024435e-004
2.283342e+003,2.052896e-004
2.285271e+003,2.081133e-004
2.287199e+003,2.109334e-004
2.289128e+003,2.137497e-004
2.291056e+003,2.165362e-004
2.292985e+003,2.193153e-004
2.294913e+003,2.220906e-004
2.296842e+003,2.248511e-004
2.298770e+003,2.275929e-004
2.300699e+003,2.303235e-004
2.302627e+003,2.330504e-004
2.304556e+003,2.357550e-004
2.306484e+003,2.384558e-004
2.308413e+003,2.411306e-004
2.310341e+003,2.438091e-004
2.312270e+003,2.464578e-004
2.314198e+003,2.491064e-004
2.316127e+003,2.517365e-004
2.318055e+003,2.543516e-004
2.319984e+003,2.569668e-004
2.321912e+003,2.595633e-004
2.323841e+003,2.621487e-004
2.325769e+003,2.647229e-004
2.327698e+003,2.672896e-004
2.329626e+003,2.698302e-004
2.331555e+003,2.723634e-004
2.333483e+003,2.748892e-004
2.335412e+003,2.774037e-004
2.337340e+003,2.798997e-004
2.339269e+003,2.823845e-004
2.341197e+003,2.848618e-004
2.343126e+003,2.873167e-004
2.345054e+003,2.897605e-004
2.346983e+003,2.922080e-004
2.348911e+003,2.946332e-004
2.350840e+003,2.970397e-004
2.352768e+003,2.994388e-004
2.354697e+003,3.018267e-004
2.356625e+003,3.041923e-004
2.358554e+003,3.065579e-004
2.360482e+003,3.089085e-004
2.362411e+003,3.112443e-004
2.364339e+003,3.135726e-004
2.366268e+003,3.158860e-004
2.368196e+003,3.181882e-004
2.370125e+003,3.204755e-004
2.372053e+003,3.227517e-004
2.373982e+003,3.250130e-004
2.375910e+003,3.272593e-004
2.377839e+003,3.295057e-004
2.379767e+003,3.317297e-004
2.381696e+003,3.339425e-004
2.383624e+003,3.361441e-004
2.385553e+003,3.383309e-004
2.387481e+003,3.405102e-004
2.389410e+003,3.426708e-004
2.391338e+003,3.448315e-004
2.393267e+003,3.469735e-004
2.395195e+003,3.490970e-004
2.397124e+003,3.512055e-004
2.399052e+003,3.533103e-004
2.400981e+003,5.501471e-004
2.402909e+003,5.898327e-004
2.404838e+003,5.757846e-004
2.406766e+003,6.881393e-004
2.408695e+003,8.988045e-004
2.410623e+003,1.013566e-003
2.412552e+003,1.057062e-003
2.414480e+003,9.713434e-004
2.416409e+003,1.019251e-003
2.418337e+003,1.043372e-003
2.420266e+003,9.997487e-004
2.422194e+003,9.647682e-004
2.424123e+003,1.069151e-003
2.426051e+003,9.896159e-004
2.427979e+003,9.819381e-004
2.429908e+003,1.112312e-003
2.431837e+003,1.104869e-003
2.433765e+003,1.012221e-003
2.435694e+003,1.040440e-003
2.437622e+003,1.011416e-003
2.439551e+003,9.452365e-004
2.441479e+003,7.590093e-004
2.443407e+003,9.039566e-004
2.445336e+003,1.059394e-003
2.447265e+003,1.063440e-003
2.449193e+003,1.074761e-003
2.451122e+003,1.215365e-003
2.453050e+003,1.281995e-003
2.454979e+003,1.307316e-003
2.456907e+003,1.235817e-003
2.458836e+003,1.319095e-003
2.460764e+003,1.215197e-003
2.462693e+003,1.193222e-003
2.464621e+003,1.267415e-003
2.466550e+003,1.300912e-003
2.468478e+003,1.325555e-003
2.470406e+003,1.442879e-003
2.472335e+003,1.495596e-003
2.474264e+003,1.554273e-003
2.476192e+003,1.676898e-003
2.478121e+003,1.718123e-003
2.480049e+003,1.546264e-003
2.481978e+003,1.610000e-003
2.483906e+003,1.702089e-003
2.485835e+003,1.754642e-003
2.487763e+003,1.674846e-003
2.489692e+003,1.585443e-003
2.491620e+003,1.687963e-003
2.493549e+003,1.923457e-003
2.495477e+003,1.937225e-003
2.497406e+003,1.893498e-003
2.499334e+003,1.881875e-003
2.501263e+003,1.961194e-003
2.503191e+003,1.987968e-003
2.505120e+003,2.024848e-003
2.507048e+003,1.948759e-003
2.508977e+003,1.957819e-003
2.510905e+003,2.133980e-003
2.512833e+003,2.249110e-003
2.514762e+003,2.394352e-003
2.516691e+003,2.546340e-003
2.518619e+003,2.539363e-003
2.520548e+003,2.631493e-003
2.522476e+003,2.833065e-003
2.524405e+003,3.095385e-003
2.526333e+003,3.232185e-003
2.528261e+003,3.182326e-003
2.530190e+003,3.038589e-003
2.532119e+003,3.017239e-003
2.534047e+003,2.958473e-003
2.535976e+003,3.012974e-003
2.537904e+003,3.202733e-003
2.539833e+003,3.392715e-003
2.541761e+003,3.416929e-003
2.543689e+003,3.488261e-003
2.545618e+003,3.720772e-003
2.547547e+003,3.966972e-003
2.549475e+003,4.053816e-003
2.551404e+003,4.171923e-003
2.553332e+003,4.189268e-003
2.555260e+003,4.160479e-003
2.557189e+003,4.320003e-003
2.559117e+003,4.515871e-003
2.561046e+003,4.387215e-003
2.562975e+003,4.411124e-003
2.564903e+003,4.491664e-003
2.566832e+003,4.593477e-003
2.568760e+003,4.775137e-003
2.570688e+003,4.992463e-003
2.572617e+003,5.303793e-003
2.574546e+003,5.488753e-003
2.576474e+003,5.751535e-003
2.578403e+003,6.025359e-003
2.580331e+003,6.220587e-003
2.582260e+003,6.310135e-003
2.584188e+003,6.366484e-003
2.586116e+003,6.578609e-003
2.588045e+003,6.840207e-003
2.589974e+003,7.115446e-003
2.591902e+003,7.341288e-003
2.593831e+003,7.563114e-003
2.595759e+003,7.889703e-003
2.597688e+003,8.148178e-003
2.599616e+003,8.223332e-003
2.601544e+003,8.387506e-003
2.603473e+003,8.607760e-003
2.605402e+003,8.983925e-003
2.607330e+003,9.224512e-003
2.609259e+003,9.520747e-003
2.611187e+003,9.908788e-003
2.613115e+003,1.019874e-002
2.615044e+003,1.043844e-002
2.616972e+003,1.078527e-002
2.618901e+003,1.114342e-002
2.620830e+003,1.158155e-002
2.622758e+003,1.196770e-002
2.624687e+003,1.238353e-002
2.626615e+003,1.290148e-002
2.628543e+003,1.340014e-002
2.630472e+003,1.374964e-002
2.632400e+003,1.401985e-002
2.634329e+003,1.425765e-002
2.636258e+003,1.438305e-002
2.638186e+003,1.441103e-002
2.640115e+003,1.444595e-002
2.642043e+003,1.443743e-002
2.643971e+003,1.444234e-002
2.645900e+003,1.446288e-002
2.647828e+003,1.447987e-002
2.649757e+003,1.457480e-002
2.651686e+003,1.473413e-002
2.653614e+003,1.493101e-002
2.655542e+003,1.515798e-002
2.657471e+003,1.521835e-002
2.659399e+003,1.521973e-002
2.661328e+003,1.508162e-002
2.663256e+003,1.481357e-002
2.665185e+003,1.461856e-002
2.667114e+003,1.446670e-002
2.669042e+003,1.428279e-002
2.670970e+003,1.412963e-002
2.672899e+003,1.398731e-002
2.674827e+003,1.381525e-002
2.676756e+003,1.362611e-002
2.678685e+003,1.348341e-002
2.680613e+003,1.335187e-002
2.682542e+003,1.321132e-002
2.684470e+003,1.302852e-002
2.686398e+003,1.288536e-002
2.688327e+003,1.275186e-002
2.690255e+003,1.261676e-002
2.692184e+003,1.244303e-002
2.694113e+003,1.230845e-002
2.696041e+003,1.227614e-002
2.697969e+003,1.232725e-002
2.699898e+003,1.245680e-002
2.701826e+003,1.265422e-002
2.703755e+003,1.285098e-002
2.705683e+003,1.306600e-002
2.707612e+003,1.325513e-002
2.709541e+003,1.331206e-002
2.711469e+003,1.337433e-002
2.713397e+003,1.354921e-002
2.715326e+003,1.375871e-002
2.717254e+003,1.399294e-002
2.719183e+003,1.425041e-002
2.721111e+003,1.445871e-002
2.723040e+003,1.469161e-002
2.724969e+003,1.497780e-002
2.726897e+003,1.526754e-002
2.728825e+003,1.557127e-002
2.730754e+003,1.579674e-002
2.732682e+003,1.601820e-002
2.734611e+003,1.625674e-002
2.736539e+003,1.647402e-002
2.738468e+003,1.661406e-002
2.740396e+003,1.668424e-002
2.742325e+003,1.673564e-002
2.744253e+003,1.672696e-002
2.746182e+003,1.663405e-002
2.748110e+003,1.657306e-002
2.750039e+003,1.669130e-002
2.751967e+003,1.689958e-002
2.753896e+003,1.706507e-002
2.755824e+003,1.737341e-002
2.757753e+003,1.774417e-002
2.759681e+003,1.812601e-002
2.761610e+003,1.852788e-002
2.763538e+003,1.899394e-002
2.765467e+003,1.943376e-002
2.767395e+003,1.991220e-002
2.769324e+003,2.054212e-002
2.771252e+003,2.118388e-002
2.773181e+003,2.185901e-002
2.775109e+003,2.269022e-002
2.777038e+003,2.361985e-002
2.778966e+003,2.465980e-002
2.780895e+003,2.576761e-002
2.782823e+003,2.697332e-002
2.784752e+003,2.833530e-002
2.786680e+003,2.972790e-002
2.788609e+003,3.120571e-002
2.790537e+003,3.285457e-002
2.792466e+003,3.462067e-002
2.794394e+003,3.639915e-002
2.796323e+003,3.826970e-002
2.798251e+003,4.020697e-002
2.800180e+003,4.228247e-002
2.802108e+003,4.445041e-002
2.804037e+003,4.674447e-002
2.805965e+003,4.933471e-002
2.807894e+003,5.222310e-002
2.809822e+003,5.536398e-002
2.811751e+003,5.891272e-002
2.813679e+003,6.290256e-002
2.815608e+003,6.749354e-002
2.817536e+003,7.278860e-002
2.819465e+003,7.902911e-002
2.821393e+003,8.651303e-002
2.823322e+003,9.572801e-002
2.825250e+003,1.071137e-001
2.827179e+003,1.215111e-001
2.829107e+003,1.402422e-001
2.831036e+003,1.651291e-001
2.832964e+003,1.991386e-001
2.834893e+003,2.468952e-001
2.836821e+003,3.147126e-001
2.838750e+003,4.134429e-001
2.840678e+003,5.608205e-001
2.842607e+003,7.794356e-001
2.844535e+003,1.080346e+000
2.846464e+003,1.384935e+000
2.848392e+003,1.425048e+000
2.850321e+003,1.144410e+000
2.852249e+003,8.371598e-001
2.854178e+003,6.222581e-001
2.856106e+003,4.764815e-001
2.858035e+003,3.733036e-001
2.859963e+003,2.999370e-001
2.861892e+003,2.490771e-001
2.863820e+003,2.153905e-001
2.865749e+003,1.947107e-001
2.867677e+003,1.840140e-001
2.869606e+003,1.804327e-001
2.871534e+003,1.816602e-001
2.873463e+003,1.873110e-001
2.875391e+003,1.985617e-001
2.877320e+003,2.163520e-001
2.879248e+003,2.402048e-001
2.881177e+003,2.686937e-001
2.883105e+003,3.007162e-001
2.885034e+003,3.359132e-001
2.886962e+003,3.735608e-001
2.888891e+003,4.127510e-001
2.890819e+003,4.526876e-001
2.892748e+003,4.924144e-001
2.894676e+003,5.315810e-001
2.896605e+003,5.711821e-001
2.898533e+003,6.129227e-001
2.900462e+003,6.598102e-001
2.902390e+003,7.165412e-001
2.904319e+003,7.904643e-001
2.906247e+003,8.914805e-001
2.908176e+003,1.030589e+000
2.910104e+003,1.215568e+000
2.912033e+003,1.431172e+000
2.913961e+003,1.598874e+000
2.915890e+003,1.600560e+000
2.917818e+003,1.431855e+000
2.919747e+003,1.206429e+000
2.921675e+003,1.000558e+000
2.923604e+003,8.323469e-001
2.925532e+003,6.985916e-001
2.927461e+003,5.904746e-001
2.929389e+003,5.002784e-001
2.931318e+003,4.235089e-001
2.933246e+003,3.577526e-001
2.935175e+003,3.015733e-001
2.937103e+003,2.538675e-001
2.939032e+003,2.136168e-001
2.940960e+003,1.801029e-001
2.942889e+003,1.529088e-001
2.944817e+003,1.318826e-001
2.946746e+003,1.165005e-001
2.948674e+003,1.058713e-001
2.950603e+003,9.852443e-002
2.952531e+003,9.279293e-002
2.954460e+003,8.732842e-002
2.956388e+003,8.168462e-002
2.958317e+003,7.579383e-002
2.960245e+003,6.958454e-002
2.962174e+003,6.303631e-002
2.964102e+003,5.637185e-002
2.966031e+003,5.001879e-002
2.967959e+003,4.435570e-002
2.969888e+003,3.942809e-002
2.971816e+003,3.516947e-002
2.973745e+003,3.159294e-002
2.975673e+003,2.876461e-002
2.977602e+003,2.643406e-002
2.979530e+003,2.442247e-002
2.981459e+003,2.268253e-002
2.983387e+003,2.124422e-002
2.985316e+003,2.000611e-002
2.987244e+003,1.891886e-002
2.989173e+003,1.793744e-002
2.991101e+003,1.708299e-002
2.993030e+003,1.631267e-002
2.994958e+003,1.569372e-002
2.996887e+003,1.508255e-002
2.998815e+003,1.448931e-002
3.000744e+003,1.392865e-002
3.002672e+003,1.344626e-002
3.004601e+003,1.304735e-002
3.006529e+003,1.269455e-002
3.008458e+003,1.236942e-002
3.010386e+003,1.210027e-002
3.012315e+003,1.191077e-002
3.014243e+003,1.167391e-002
3.016172e+003,1.132621e-002
3.018100e+003,1.100062e-002
3.020029e+003,1.077989e-002
3.021957e+003,1.062519e-002
3.023886e+003,1.047978e-002
3.025814e+003,1.028182e-002
3.027743e+003,1.011147e-002
3.029671e+003,9.947762e-003
3.031600e+003,9.695806e-003
3.033528e+003,9.497240e-003
3.035457e+003,9.179302e-003
3.037385e+003,8.813441e-003
3.039314e+003,8.445591e-003
3.041242e+003,8.136138e-003
3.043171e+003,7.899053e-003
3.045099e+003,7.658698e-003
3.047028e+003,7.458389e-003
3.048956e+003,7.295050e-003
3.050885e+003,7.115521e-003
3.052813e+003,6.827369e-003
3.054742e+003,6.545015e-003
3.056670e+003,6.364211e-003
3.058599e+003,6.142877e-003
3.060527e+003,5.965814e-003
3.062456e+003,5.907468e-003
3.064384e+003,5.871415e-003
3.066313e+003,5.783483e-003
3.068241e+003,5.642623e-003
3.070170e+003,5.496204e-003
3.072098e+003,5.414024e-003
3.074027e+003,5.316302e-003
3.075955e+003,5.228169e-003
3.077884e+003,5.191930e-003
3.079812e+003,5.076557e-003
3.081741e+003,4.930429e-003
3.083669e+003,4.807621e-003
3.085598e+003,4.644901e-003
3.087526e+003,4.466377e-003
3.089455e+003,4.177719e-003
3.091383e+003,3.839269e-003
3.093312e+003,3.677160e-003
3.095240e+003,3.498219e-003
3.097169e+003,3.192328e-003
3.099097e+003,2.950564e-003
3.101026e+003,2.767317e-003
3.102954e+003,2.541445e-003
3.104883e+003,2.268873e-003
3.106811e+003,2.103135e-003
3.108740e+003,2.082065e-003
3.110668e+003,1.972996e-003
3.112597e+003,1.857154e-003
3.114525e+003,1.809143e-003
3.116454e+003,1.679830e-003
3.118382e+003,1.583695e-003
3.120311e+003,1.554973e-003
3.122239e+003,1.582228e-003
3.124168e+003,1.610376e-003
3.126096e+003,1.600221e-003
3.128025e+003,1.574486e-003
3.129953e+003,1.496762e-003
3.131882e+003,1.457326e-003
3.133810e+003,1.433305e-003
3.135739e+003,1.334369e-003
3.137667e+003,1.279905e-003
3.139596e+003,1.304656e-003
3.141524e+003,1.333937e-003
3.143453e+003,1.379117e-003
3.145381e+003,1.412325e-003
3.147310e+003,1.437970e-003
3.149238e+003,1.383454e-003
3.151167e+003,1.267731e-003
3.153095e+003,1.214027e-003
3.155024e+003,1.278818e-003
3.156952e+003,1.393557e-003
3.158881e+003,1.439504e-003
3.160809e+003,1.450516e-003
3.162738e+003,1.481809e-003
3.164666e+003,1.512252e-003
3.166594e+003,1.509465e-003
3.168523e+003,1.474358e-003
3.170452e+003,1.438193e-003
3.172380e+003,1.465328e-003
3.174309e+003,1.501836e-003
3.176237e+003,1.560293e-003
3.178166e+003,1.674160e-003
3.180094e+003,1.742840e-003
3.182022e+003,1.661517e-003
3.183951e+003,1.599178e-003
3.185880e+003,1.674719e-003
3.187808e+003,1.746334e-003
3.189737e+003,1.770288e-003
3.191665e+003,1.772709e-003
3.193594e+003,1.709990e-003
3.195522e+003,1.736991e-003
3.197450e+003,1.762904e-003
3.199379e+003,1.763158e-003
3.201308e+003,1.766883e-003
3.203236e+003,1.786903e-003
3.205165e+003,1.755379e-003
3.207093e+003,1.655482e-003
3.209021e+003,1.684777e-003
3.210950e+003,1.799837e-003
3.212878e+003,1.891613e-003
3.214807e+003,1.862727e-003
3.216736e+003,1.804516e-003
3.218664e+003,1.832828e-003
3.220593e+003,1.825623e-003
3.222521e+003,1.783967e-003
3.224449e+003,1.840346e-003
3.226378e+003,1.908749e-003
3.228307e+003,1.887754e-003
3.230235e+003,1.892082e-003
3.232164e+003,1.840800e-003
3.234092e+003,1.877733e-003
3.236021e+003,2.002493e-003
3.237949e+003,2.091885e-003
3.239877e+003,2.098612e-003
3.241806e+003,2.077475e-003
3.243735e+003,2.138063e-003
3.245663e+003,2.248570e-003
3.247592e+003,2.215981e-003
3.249520e+003,2.151676e-003
3.251448e+003,2.174266e-003
3.253377e+003,2.316959e-003
3.255305e+003,2.334185e-003
3.257234e+003,2.434097e-003
3.259163e+003,2.480999e-003
3.261091e+003,2.491243e-003
3.263020e+003,2.645656e-003
3.264948e+003,2.851911e-003
3.266876e+003,2.895832e-003
3.268805e+003,2.890632e-003
3.270733e+003,2.862468e-003
3.272662e+003,2.881214e-003
3.274591e+003,2.913646e-003
3.276519e+003,2.946794e-003
3.278448e+003,3.054626e-003
3.280376e+003,3.119864e-003
3.282304e+003,3.104717e-003
3.284233e+003,3.199913e-003
3.286161e+003,3.342718e-003
3.288090e+003,3.343448e-003
3.290019e+003,3.225639e-003
3.291947e+003,3.202029e-003
3.293875e+003,3.354520e-003
3.295804e+003,3.406122e-003
3.297732e+003,3.360927e-003
3.299661e+003,3.377855e-003
3.301589e+003,3.426179e-003
3.303518e+003,3.478505e-003
3.305447e+003,3.319331e-003
3.307375e+003,3.196999e-003
3.309303e+003,3.345512e-003
3.311232e+003,3.426805e-003
3.313160e+003,3.466822e-003
3.315089e+003,3.487676e-003
3.317018e+003,3.431492e-003
3.318946e+003,3.339492e-003
3.320875e+003,3.227934e-003
3.322803e+003,3.290519e-003
3.324731e+003,3.446147e-003
3.326660e+003,3.431432e-003
3.328588e+003,3.301643e-003
3.330517e+003,3.233641e-003
3.332446e+003,3.213607e-003
3.334374e+003,3.324918e-003
3.336302e+003,3.445968e-003
3.338231e+003,3.385715e-003
3.340159e+003,3.221542e-003
3.342088e+003,3.159903e-003
3.344016e+003,3.200039e-003
3.345945e+003,3.251590e-003
3.347874e+003,3.254451e-003
3.349802e+003,3.208183e-003
3.351730e+003,3.215946e-003
3.353659e+003,3.214411e-003
3.355587e+003,3.291056e-003
3.357516e+003,3.220879e-003
3.359444e+003,3.069885e-003
3.361373e+003,3.055863e-003
3.363302e+003,3.105424e-003
3.365230e+003,3.153741e-003
3.367158e+003,3.122821e-003
3.369087e+003,3.087521e-003
3.371015e+003,2.985328e-003
3.372944e+003,2.929524e-003
3.374872e+003,2.925999e-003
3.376801e+003,2.903126e-003
3.378729e+003,2.823710e-003
3.380658e+003,2.687752e-003
3.382586e+003,2.649635e-003
3.384515e+003,2.716057e-003
3.386443e+003,2.733499e-003
3.388372e+003,2.615705e-003
3.390300e+003,2.533317e-003
3.392229e+003,2.512716e-003
3.394157e+003,2.396367e-003
3.396086e+003,2.422698e-003
3.398014e+003,2.448440e-003
3.399943e+003,2.463743e-003
3.401871e+003,2.522595e-003
3.403800e+003,2.430722e-003
3.405728e+003,2.315588e-003
3.407657e+003,2.269983e-003
3.409585e+003,2.196483e-003
3.411514e+003,2.153985e-003
3.413442e+003,2.112873e-003
3.415371e+003,2.039008e-003
3.417299e+003,1.981489e-003
3.419228e+003,2.133697e-003
3.421156e+003,2.294011e-003
3.423085e+003,2.233021e-003
3.425013e+003,2.050191e-003
3.426942e+003,1.879416e-003
3.428870e+003,1.855843e-003
3.430799e+003,1.918845e-003
3.432727e+003,1.892239e-003
3.434656e+003,1.779519e-003
3.436584e+003,1.776785e-003
3.438513e+003,1.823708e-003
3.440441e+003,1.769952e-003
3.442370e+003,1.743056e-003
3.444298e+003,1.713343e-003
3.446227e+003,1.842722e-003
3.448155e+003,1.907080e-003
3.450084e+003,1.688577e-003
3.452012e+003,1.582764e-003
3.453941e+003,1.569204e-003
3.455869e+003,1.468644e-003
3.457798e+003,1.266301e-003
3.459726e+003,1.197360e-003
3.461655e+003,1.258641e-003
3.463583e+003,1.228578e-003
3.465512e+003,1.254469e-003
3.467440e+003,1.235187e-003
3.469369e+003,9.697825e-004
3.471297e+003,9.015277e-004
3.473226e+003,9.732693e-004
3.475154e+003,8.939803e-004
3.477083e+003,7.305294e-004
3.479011e+003,7.513389e-004
3.480940e+003,8.925423e-004
3.482868e+003,9.244308e-004
3.484797e+003,7.576868e-004
3.486725e+003,7.549599e-004
3.488654e+003,7.211715e-004
3.490582e+003,4.788414e-004
3.492511e+003,3.736466e-004
3.494439e+003,4.975200e-004
3.496368e+003,5.591810e-004
3.498296e+003,3.266335e-004
3.500225e+003,2.284795e-004
3.502153e+003,5.602315e-004
3.504082e+003,7.358566e-004
3.506010e+003,5.382374e-004
3.507939e+003,5.052090e-004
3.509867e+003,6.223023e-004
3.511796e+003,5.027875e-004
3.513724e+003,2.420843e-004
3.515653e+003,4.895031e-006
3.517581e+003,-9.640306e-005
3.519510e+003,-2.140775e-004
3.521438e+003,-1.748875e-004
3.523367e+003,3.549457e-005
3.525295e+003,-1.797825e-005
3.527224e+003,7.240474e-005
3.529152e+003,1.008213e-004
3.531081e+003,-8.495152e-005
3.533009e+003,-3.440082e-004
3.534938e+003,-3.647953e-004
3.536866e+003,-3.002882e-004
3.538795e+003,-5.270392e-004
3.540723e+003,-6.839707e-004
3.542652e+003,-6.446019e-004
3.544580e+003,-2.307221e-004
3.546509e+003,1.526698e-004
3.548437e+003,-2.880394e-005
3.550366e+003,-3.018379e-004
3.552294e+003,-2.851635e-004
3.554223e+003,-4.932806e-004
3.556151e+003,-7.802695e-004
3.558080e+003,-8.157939e-004
3.560008e+003,-6.649047e-004
3.561937e+003,-8.866042e-004
3.563865e+003,-1.076818e-003
3.565794e+003,-3.216714e-004
3.567722e+003,7.883608e-004
3.569651e+003,2.816990e-004
3.571579e+003,-5.355552e-004
3.573508e+003,-8.900762e-004
3.575436e+003,-9.313598e-004
3.577365e+003,-8.782744e-004
3.579293e+003,-7.555708e-004
3.581222e+003,-9.355396e-004
3.583150e+003,-1.287259e-003
3.585079e+003,-1.513332e-003
3.587007e+003,-4.162267e-004
3.588936e+003,4.262701e-004
3.590864e+003,-1.084805e-005
3.592793e+003,-1.449212e-004
3.594721e+003,2.918541e-004
3.596650e+003,5.908012e-004
3.598578e+003,1.013122e-003
3.600507e+003,1.580961e-003
3.602435e+003,1.325086e-003
3.604364e+003,6.077066e-004
3.606292e+003,3.884658e-004
3.608221e+003,1.036368e-003
3.610149e+003,1.141168e-003
3.612078e+003,9.352043e-004
3.614006e+003,5.603060e-004
3.615935e+003,-1.869649e-004
3.617863e+003,-1.515225e-004
3.619792e+003,8.285865e-004
3.621720e+003,4.240274e-004
3.623649e+003,-5.506575e-004
3.625577e+003,-1.249261e-003
3.627506e+003,-8.957982e-004
3.629434e+003,1.645252e-003
3.631363e+003,1.284897e-003
3.633291e+003,1.251847e-004
3.635220e+003,-6.790087e-004
3.637148e+003,-8.693784e-004
3.639077e+003,-5.839616e-004
3.641005e+003,-3.114641e-004
3.642934e+003,-5.569831e-004
3.644862e+003,-1.300968e-003
3.646791e+003,-1.458928e-003
3.648719e+003,5.669296e-004
3.650648e+003,2.310954e-003
3.652576e+003,9.402633e-004
3.654505e+003,-1.904070e-004
3.656433e+003,-4.998595e-005
3.658362e+003,-1.604110e-005
3.660290e+003,-3.923029e-004
3.662219e+003,-9.036660e-004
3.664147e+003,-1.655146e-003
3.666076e+003,-2.326779e-003
3.668004e+003,-2.579160e-003
3.669933e+003,-1.381367e-003
3.671861e+003,-7.779598e-004
3.673790e+003,-1.125894e-003
3.675718e+003,7.957220e-004
3.677647e+003,8.728206e-004
3.679575e+003,1.053512e-004
3.681504e+003,-4.683733e-004
3.683432e+003,-1.031287e-003
3.685361e+003,-1.595363e-003
3.687289e+003,-1.828186e-003
3.689218e+003,-4.985034e-004
3.691146e+003,6.813779e-004
3.693075e+003,1.937971e-004
3.695003e+003,-5.390793e-004
3.696932e+003,-8.623824e-004
3.698860e+003,-1.240872e-003
3.700789e+003,-1.046948e-003
3.702717e+003,-5.463287e-004
3.704646e+003,-9.881333e-004
3.706574e+003,-1.554869e-003
3.708503e+003,-1.550958e-003
3.710431e+003,-3.903732e-004
3.712360e+003,8.451641e-004
3.714288e+003,4.000589e-004
3.716217e+003,-4.990399e-004
3.718145e+003,-1.070239e-003
3.720074e+003,-1.081057e-003
3.722002e+003,-6.232262e-004
3.723931e+003,-5.549043e-004
3.725859e+003,-3.963187e-004
3.727788e+003,-8.145198e-004
3.729716e+003,-1.675650e-003
3.731645e+003,-2.058469e-003
3.733573e+003,-1.093380e-003
3.735502e+003,5.779713e-004
3.737430e+003,4.116222e-004
3.739359e+003,-4.025251e-004
3.741287e+003,-1.284316e-003
3.743216e+003,-1.533374e-003
3.745144e+003,3.474951e-004
3.747073e+003,2.689883e-004
3.749001e+003,-2.985001e-004
3.750930e+003,1.072936e-003
3.752858e+003,1.323707e-003
3.754787e+003,3.138408e-004
3.756715e+003,-2.406016e-004
3.758644e+003,1.532659e-004
3.760572e+003,4.143268e-004
3.762501e+003,-2.750829e-004
3.764429e+003,-4.778728e-004
3.766358e+003,-4.661456e-004
3.768286e+003,-6.605089e-004
3.770215e+003,9.907037e-005
3.772143e+003,3.635883e-006
3.774072e+003,-6.152466e-004
3.776000e+003,-8.861497e-004
3.777929e+003,-6.717071e-004
3.779857e+003,8.067489e-005
3.781786e+003,-4.716218e-006
3.783714e+003,-2.832636e-004
3.785643e+003,1.055002e-005
3.787571e+003,-1.071319e-004
3.789500e+003,-5.879998e-004
3.791428e+003,-8.385181e-004
3.793357e+003,-1.247235e-003
3.795285e+003,-1.260847e-003
3.797214e+003,-7.277578e-004
3.799142e+003,-1.100749e-003
3.801071e+003,-1.614913e-004
3.802999e+003,5.537644e-004
3.804927e+003,-5.873293e-005
3.806856e+003,7.331520e-004
3.808785e+003,7.155389e-004
3.810713e+003,-4.016608e-005
3.812642e+003,-6.588101e-004
3.814570e+003,-1.042962e-003
3.816499e+003,-3.945082e-005
3.818427e+003,5.049258e-005
3.820355e+003,5.591363e-004
3.822284e+003,1.478784e-003
3.824213e+003,6.892905e-004
3.826141e+003,4.076213e-004
3.828070e+003,4.465133e-005
3.829998e+003,-4.102960e-004
3.831927e+003,-2.632886e-004
3.833855e+003,-1.014918e-004
3.835783e+003,1.754761e-004
3.837712e+003,9.453669e-004
3.839641e+003,1.434408e-003
3.841569e+003,1.401424e-003
3.843498e+003,1.448661e-003
3.845426e+003,8.367822e-004
3.847354e+003,-1.276806e-004
3.849283e+003,-9.099618e-004
3.851211e+003,-1.327626e-003
3.853140e+003,1.150079e-003
3.855069e+003,2.968520e-003
3.856997e+003,1.652062e-003
3.858926e+003,2.405718e-004
3.860854e+003,4.560500e-005
3.862782e+003,6.567687e-004
3.864711e+003,1.456983e-003
3.866640e+003,6.756485e-004
3.868568e+003,2.536029e-004
3.870497e+003,1.462303e-003
3.872425e+003,1.515575e-003
3.874354e+003,1.614578e-003
3.876282e+003,8.618683e-004
3.878210e+003,-2.136603e-004
3.880139e+003,2.510324e-004
3.882068e+003,7.662997e-004
3.883996e+003,7.446706e-004
3.885925e+003,1.275152e-003
3.887853e+003,4.417226e-004
3.889781e+003,-5.012751e-005
3.891710e+003,9.087399e-004
3.893638e+003,1.000509e-003
3.895567e+003,2.458468e-004
3.897496e+003,-9.031594e-005
3.899424e+003,2.456456e-004
3.901353e+003,9.787381e-004
3.903281e+003,1.867585e-003
3.905209e+003,2.168126e-003
3.907138e+003,1.341857e-003
3.909066e+003,5.786568e-004
3.910995e+003,3.939196e-004
3.912924e+003,2.717376e-004
3.914852e+003,3.071725e-004
3.916781e+003,6.448999e-004
3.918709e+003,7.567331e-004
3.920637e+003,6.096959e-004
3.922566e+003,6.669685e-004
3.924494e+003,9.923950e-004
3.926423e+003,7.832274e-004
3.928352e+003,4.001334e-004
3.930280e+003,4.694089e-004
3.932208e+003,9.197518e-004
3.934137e+003,8.235872e-004
3.936065e+003,2.960190e-004
3.937994e+003,2.795458e-005
3.939922e+003,-4.292279e-005
3.941851e+003,2.181828e-004
3.943780e+003,3.736168e-004
3.945708e+003,3.998727e-005
3.947636e+003,4.069507e-005
3.949565e+003,2.990440e-004
3.951493e+003,3.314614e-004
3.953422e+003,2.944246e-004
3.955351e+003,3.406107e-004
3.957279e+003,3.063306e-004
3.959208e+003,1.664683e-004
3.961136e+003,2.448782e-004
3.963064e+003,4.337355e-004
3.964993e+003,2.802238e-004
3.966921e+003,-2.186745e-005
3.968850e+003,-1.192242e-004
3.970779e+003,-1.177937e-004
3.972707e+003,3.646314e-005
3.974635e+003,2.088770e-004
3.976564e+003,1.022220e-004
3.978492e+003,-7.261336e-005
3.980421e+003,4.651397e-005
3.982349e+003,1.703575e-004
3.984278e+003,1.217425e-004
3.986207e+003,-3.512204e-005
3.988135e+003,-1.090690e-004
3.990063e+003,3.943592e-005
3.991992e+003,1.432747e-004
3.993920e+003,1.784191e-004
3.995849e+003,1.909062e-004
3.997777e+003,1.281053e-004
3.999706e+003,5.988777e-005
4.001635e+003,0.000000e+000
