3.991992e+002,0.000000e+000
4.011277e+002,0.000000e+000
4.030562e+002,0.000000e+000
4.049846e+002,0.000000e+000
4.069131e+002,0.000000e+000
4.088416e+002,0.000000e+000
4.107701e+002,0.000000e+000
4.126986e+002,0.000000e+000
4.146271e+002,0.000000e+000
4.165556e+002,0.000000e+000
4.184841e+002,0.000000e+000
4.204126e+002,0.000000e+000
4.223411e+002,0.000000e+000
4.242697e+002,0.000000e+000
4.261982e+002,0.000000e+000
4.281266e+002,0.000000e+000
4.300551e+002,0.000000e+000
4.319836e+002,0.000000e+000
4.339121e+002,0.000000e+000
4.358406e+002,0.000000e+000
4.377691e+002,0.000000e+000
4.396976e+002,0.000000e+000
4.416261e+002,0.000000e+000
4.435546e+002,0.000000e+000
4.454831e+002,0.000000e+000
4.474116e+002,0.000000e+000
4.493401e+002,0.000000e+000
4.512686e+002,0.000000e+000
4.531971e+002,0.000000e+000
4.551256e+002,0.000000e+000
4.570541e+002,0.000000e+000
4.589826e+002,0.000000e+000
4.609111e+002,0.000000e+000
4.628396e+002,0.000000e+000
4.647681e+002,0.000000e+000
4.666966e+002,0.000000e+000
4.686251e+002,0.000000e+000
4.705536e+002,0.000000e+000
4.724821e+002,0.000000e+000
4.744106e+002,0.000000e+000
4.763391e+002,0.000000e+000
4.782676e+002,0.000000e+000
4.801961e+002,0.000000e+000
4.821246e+002,0.000000e+000
4.840531e+002,0.000000e+000
4.859816e+002,0.000000e+000
4.879101e+002,0.000000e+000
4.898386e+002,0.000000e+000
4.917671e+002,0.000000e+000
4.936956e+002,0.000000e+000
4.956241e+002,0.000000e+000
4.975526e+002,0.000000e+000
4.994811e+002,0.000000e+000
5.014096e+002,0.000000e+000
5.033381e+002,0.000000e+000
5.052666e+002,0.000000e+000
5.071951e+002,0.000000e+000
5.091236e+002,0.000000e+000
5.110521e+002,0.000000e+000
5.129806e+002,0.000000e+000
5.149091e+002,0.000000e+000
5.168376e+002,0.000000e+000
5.187661e+002,0.000000e+000
5.206946e+002,0.000000e+000
5.226230e+002,0.000000e+000
5.245516e+002,-1.713615e-004
5.264800e+002,-2.903212e-004
5.284086e+002,-4.049931e-004
5.303370e+002,-4.919991e-004
5.322656e+002,-4.208963e-004
5.341940e+002,-4.219878e-004
5.361226e+002,-4.454646e-004
5.380510e+002,-4.917458e-004
5.399796e+002,-4.216768e-004
5.419081e+002,-3.398526e-004
5.438365e+002,-3.315341e-004
5.457650e+002,-3.614351e-004
5.476935e+002,-3.853440e-004
5.496221e+002,-3.613625e-004
5.515505e+002,-2.869666e-004
5.534790e+002,-2.816953e-004
5.554075e+002,-2.357420e-004
5.573361e+002,-2.768524e-004
5.592645e+002,-3.171656e-004
5.611931e+002,-4.140455e-004
5.631215e+002,-5.029310e-004
5.650500e+002,-5.317461e-004
5.669785e+002,-5.797651e-004
5.689070e+002,-5.393755e-004
5.708355e+002,-4.583728e-004
5.727640e+002,-5.795658e-004
5.746925e+002,-5.650353e-004
5.766210e+002,-5.291291e-004
5.785495e+002,-5.888175e-004
5.804780e+002,-6.604660e-004
5.824065e+002,-7.275287e-004
5.843350e+002,-7.847548e-004
5.862635e+002,-7.748939e-004
5.881920e+002,-7.281676e-004
5.901205e+002,-6.184801e-004
5.920490e+002,-6.040502e-004
5.939775e+002,-6.021578e-004
5.959060e+002,-6.539244e-004
5.978345e+002,-6.147437e-004
5.997630e+002,-5.823076e-004
6.016915e+002,-5.418453e-004
6.036200e+002,-4.835315e-004
6.055485e+002,-4.211701e-004
6.074770e+002,-3.954135e-004
6.094055e+002,-3.688615e-004
6.113340e+002,-4.911758e-004
6.132625e+002,-6.222334e-004
6.151910e+002,-6.597154e-004
6.171195e+002,-7.021427e-004
6.190480e+002,-6.965380e-004
6.209765e+002,-5.263779e-004
6.229050e+002,-3.929213e-004
6.248335e+002,-2.945550e-004
6.267620e+002,-2.830196e-004
6.286905e+002,-2.718698e-004
6.306190e+002,-2.645999e-004
6.325475e+002,-2.110414e-004
6.344760e+002,-1.470204e-004
6.364045e+002,-2.367608e-005
6.383330e+002,-6.547384e-005
6.402615e+002,1.345202e-005
6.421899e+002,-2.167001e-005
6.441185e+002,-8.185394e-005
6.460470e+002,-1.287255e-004
6.479755e+002,-8.858182e-005
6.499039e+002,-5.294569e-005
6.518325e+002,6.121211e-005
6.537610e+002,1.484063e-004
6.556895e+002,1.739096e-004
6.576179e+002,1.711380e-004
6.595464e+002,3.101081e-004
6.614750e+002,3.485419e-004
6.634034e+002,3.335178e-004
6.653319e+002,2.692826e-004
6.672604e+002,4.189406e-004
6.691890e+002,5.149599e-004
6.711174e+002,5.488414e-004
6.730460e+002,5.914215e-004
6.749745e+002,6.431136e-004
6.769030e+002,6.536059e-004
6.788314e+002,8.544791e-004
6.807599e+002,1.031691e-003
6.826885e+002,1.140913e-003
6.846169e+002,1.197714e-003
6.865454e+002,1.419770e-003
6.884739e+002,1.615683e-003
6.904025e+002,1.929089e-003
6.923309e+002,2.215171e-003
6.942594e+002,2.622604e-003
6.961879e+002,3.123835e-003
6.981165e+002,3.853071e-003
7.000449e+002,4.676137e-003
7.019734e+002,5.917065e-003
7.039019e+002,7.456563e-003
7.058304e+002,9.566855e-003
7.077589e+002,1.248201e-002
7.096874e+002,1.690893e-002
7.116159e+002,2.404999e-002
7.135444e+002,3.763116e-002
7.154729e+002,6.176142e-002
7.174014e+002,9.365340e-002
7.193299e+002,1.050115e-001
7.212584e+002,7.699829e-002
7.231869e+002,5.021162e-002
7.251154e+002,4.050702e-002
7.270439e+002,4.378442e-002
7.289724e+002,5.710204e-002
7.309009e+002,5.436258e-002
7.328294e+002,3.048395e-002
7.347579e+002,1.463911e-002
7.366864e+002,9.095501e-003
7.386149e+002,6.829809e-003
7.405434e+002,5.499180e-003
7.424719e+002,4.725419e-003
7.444004e+002,4.140824e-003
7.463289e+002,3.766742e-003
7.482574e+002,3.371537e-003
7.501859e+002,3.063101e-003
7.521144e+002,2.786588e-003
7.540428e+002,2.564643e-003
7.559714e+002,2.261113e-003
7.578999e+002,2.039034e-003
7.598284e+002,1.875710e-003
7.617568e+002,1.701176e-003
7.636854e+002,1.538958e-003
7.656139e+002,1.451273e-003
7.675424e+002,1.323465e-003
7.694709e+002,1.221083e-003
7.713994e+002,1.145285e-003
7.733279e+002,1.121346e-003
7.752563e+002,1.044638e-003
7.771849e+002,1.031462e-003
7.791134e+002,1.015626e-003
7.810419e+002,1.005180e-003
7.829703e+002,9.930879e-004
7.848989e+002,1.010187e-003
7.868274e+002,1.010969e-003
7.887559e+002,1.020163e-003
7.906843e+002,1.018774e-003
7.926129e+002,1.047257e-003
7.945414e+002,1.039028e-003
7.964698e+002,1.029015e-003
7.983983e+002,1.012031e-003
8.003268e+002,9.518601e-004
8.022554e+002,9.623431e-004
8.041838e+002,9.498410e-004
8.061123e+002,8.964501e-004
8.080408e+002,8.696280e-004
8.099694e+002,7.908680e-004
8.118978e+002,6.791167e-004
8.138263e+002,5.776286e-004
8.157548e+002,5.107075e-004
8.176833e+002,4.708506e-004
8.196118e+002,4.664548e-004
8.215403e+002,4.215762e-004
8.234689e+002,3.451146e-004
8.253973e+002,2.845749e-004
8.273258e+002,2.301112e-004
8.292543e+002,1.805164e-004
8.311829e+002,1.470335e-004
8.331113e+002,1.288541e-004
8.350398e+002,1.271144e-004
8.369683e+002,1.416244e-004
8.388969e+002,1.583993e-004
8.408253e+002,1.745224e-004
8.427538e+002,1.246035e-004
8.446823e+002,1.043752e-004
8.466108e+002,1.816936e-004
8.485393e+002,2.251156e-004
8.504678e+002,2.399161e-004
8.523963e+002,2.518371e-004
8.543248e+002,1.832880e-004
8.562533e+002,2.040789e-004
8.581818e+002,2.727620e-004
8.601103e+002,2.616495e-004
8.620388e+002,2.856292e-004
8.639673e+002,3.201403e-004
8.658958e+002,3.174990e-004
8.678243e+002,3.692284e-004
8.697528e+002,3.752932e-004
8.716813e+002,3.712326e-004
8.736098e+002,3.518872e-004
8.755383e+002,4.392453e-004
8.774668e+002,5.069785e-004
8.793953e+002,5.586855e-004
8.813238e+002,5.951449e-004
8.832523e+002,6.067380e-004
8.851808e+002,6.439015e-004
8.871093e+002,7.894710e-004
8.890378e+002,8.182600e-004
8.909663e+002,7.888041e-004
8.928948e+002,7.015504e-004
8.948232e+002,6.436519e-004
8.967518e+002,5.805679e-004
8.986803e+002,5.754456e-004
9.006088e+002,6.366335e-004
9.025372e+002,7.277280e-004
9.044658e+002,9.838045e-004
9.063943e+002,1.356758e-003
9.083228e+002,1.510069e-003
9.102512e+002,1.373582e-003
9.121797e+002,9.761900e-004
9.141083e+002,6.818622e-004
9.160367e+002,4.797801e-004
9.179653e+002,4.718043e-004
9.198937e+002,4.698932e-004
9.218223e+002,3.638305e-004
9.237507e+002,2.693012e-004
9.256793e+002,3.371909e-004
9.276077e+002,3.577881e-004
9.295363e+002,3.246106e-004
9.314647e+002,3.371090e-004
9.333932e+002,3.960282e-004
9.353217e+002,3.681965e-004
9.372502e+002,3.230162e-004
9.391787e+002,3.112890e-004
9.411072e+002,3.228560e-004
9.430358e+002,3.411137e-004
9.449642e+002,3.860854e-004
9.468928e+002,3.950298e-004
9.488212e+002,4.226193e-004
9.507498e+002,4.290044e-004
9.526782e+002,4.879534e-004
9.546068e+002,5.308576e-004
9.565352e+002,5.725473e-004
9.584637e+002,6.039850e-004
9.603922e+002,6.628148e-004
9.623207e+002,6.491616e-004
9.642492e+002,7.268190e-004
9.661777e+002,7.994920e-004
9.681062e+002,8.272380e-004
9.700347e+002,7.958040e-004
9.719632e+002,7.878877e-004
9.738917e+002,8.087829e-004
9.758202e+002,8.486770e-004
9.777487e+002,8.830018e-004
9.796772e+002,9.561814e-004
9.816057e+002,1.005664e-003
9.835342e+002,1.108240e-003
9.854627e+002,1.188751e-003
9.873912e+002,1.317617e-003
9.893197e+002,1.447320e-003
9.912482e+002,1.559615e-003
9.931767e+002,1.569897e-003
9.951052e+002,1.588739e-003
9.970337e+002,1.622293e-003
9.989622e+002,1.690686e-003
1.000891e+003,1.767792e-003
1.002819e+003,1.890521e-003
1.004748e+003,1.999214e-003
1.006676e+003,2.191186e-003
1.008605e+003,2.338212e-003
1.010533e+003,2.488632e-003
1.012462e+003,2.653029e-003
1.014390e+003,2.841122e-003
1.016319e+003,2.959646e-003
1.018247e+003,3.063012e-003
1.020176e+003,3.116589e-003
1.022104e+003,3.185838e-003
1.024033e+003,3.210038e-003
1.025961e+003,3.257621e-003
1.027890e+003,3.274303e-003
1.029818e+003,3.326599e-003
1.031747e+003,3.386836e-003
1.033675e+003,3.447920e-003
1.035604e+003,3.433682e-003
1.037532e+003,3.475692e-003
1.039461e+003,3.509361e-003
1.041389e+003,3.571041e-003
1.043318e+003,3.634695e-003
1.045246e+003,3.769986e-003
1.047175e+003,3.857389e-003
1.049103e+003,3.987107e-003
1.051032e+003,3.997002e-003
1.052960e+003,3.934260e-003
1.054889e+003,3.898621e-003
1.056817e+003,3.967155e-003
1.058746e+003,3.995210e-003
1.060674e+003,4.094832e-003
1.062603e+003,4.170254e-003
1.064531e+003,4.199188e-003
1.066460e+003,4.143253e-003
1.068388e+003,4.146375e-003
1.070317e+003,4.167736e-003
1.072245e+003,4.310232e-003
1.074174e+003,4.479162e-003
1.076102e+003,4.649743e-003
1.078031e+003,4.739881e-003
1.079959e+003,4.775759e-003
1.081888e+003,4.699390e-003
1.083816e+003,4.668131e-003
1.085745e+003,4.659291e-003
1.087673e+003,4.644673e-003
1.089602e+003,4.522305e-003
1.091530e+003,4.489832e-003
1.093459e+003,4.437137e-003
1.095387e+003,4.405882e-003
1.097316e+003,4.344705e-003
1.099244e+003,4.326321e-003
1.101173e+003,4.253034e-003
1.103101e+003,4.141036e-003
1.105030e+003,4.048228e-003
1.106958e+003,4.029762e-003
1.108887e+003,3.892127e-003
1.110815e+003,3.822356e-003
1.112744e+003,3.738515e-003
1.114672e+003,3.656134e-003
1.116601e+003,3.585450e-003
1.118529e+003,3.536548e-003
1.120458e+003,3.417283e-003
1.122386e+003,3.388241e-003
1.124315e+003,3.342550e-003
1.126243e+003,3.348023e-003
1.128172e+003,3.344785e-003
1.130100e+003,3.365207e-003
1.132029e+003,3.327712e-003
1.133957e+003,3.302854e-003
1.135885e+003,3.291041e-003
1.137814e+003,3.294617e-003
1.139743e+003,3.265832e-003
1.141671e+003,3.308784e-003
1.143600e+003,3.318850e-003
1.145528e+003,3.402710e-003
1.147457e+003,3.571197e-003
1.149385e+003,3.796481e-003
1.151314e+003,4.002690e-003
1.153242e+003,4.309755e-003
1.155171e+003,4.537951e-003
1.157099e+003,4.709229e-003
1.159028e+003,4.815519e-003
1.160956e+003,4.887443e-003
1.162885e+003,4.857048e-003
1.164813e+003,4.803054e-003
1.166742e+003,4.665095e-003
1.168670e+003,4.479740e-003
1.170599e+003,4.223283e-003
1.172527e+003,4.079681e-003
1.174456e+003,3.940836e-003
1.176384e+003,3.848415e-003
1.178313e+003,3.625009e-003
1.180241e+003,3.394205e-003
1.182170e+003,3.236052e-003
1.184098e+003,3.195446e-003
1.186027e+003,3.136020e-003
1.187955e+003,3.141463e-003
1.189884e+003,3.155228e-003
1.191812e+003,3.227022e-003
1.193740e+003,3.268875e-003
1.195669e+003,3.358364e-003
1.197598e+003,3.447477e-003
1.199526e+003,3.575869e-003
1.201455e+003,3.687654e-003
1.203383e+003,3.882051e-003
1.205312e+003,4.051305e-003
1.207240e+003,4.259389e-003
1.209168e+003,4.454795e-003
1.211097e+003,4.663628e-003
1.213026e+003,4.807379e-003
1.214954e+003,4.987393e-003
1.216883e+003,5.149409e-003
1.218811e+003,5.337037e-003
1.220740e+003,5.497530e-003
1.222668e+003,5.685952e-003
1.224596e+003,5.795043e-003
1.226525e+003,5.970079e-003
1.228453e+003,6.113630e-003
1.230382e+003,6.251927e-003
1.232311e+003,6.360054e-003
1.234239e+003,6.496679e-003
1.236167e+003,6.568875e-003
1.238096e+003,6.655712e-003
1.240025e+003,6.650310e-003
1.241953e+003,6.646764e-003
1.243882e+003,6.562661e-003
1.245810e+003,6.488416e-003
1.247739e+003,6.367728e-003
1.249667e+003,6.246593e-003
1.251595e+003,6.030012e-003
1.253524e+003,5.903892e-003
1.255453e+003,5.777244e-003
1.257381e+003,5.710900e-003
1.259310e+003,5.629234e-003
1.261238e+003,5.572982e-003
1.263167e+003,5.431395e-003
1.265095e+003,5.295541e-003
1.267023e+003,5.096778e-003
1.268952e+003,4.987702e-003
1.270880e+003,4.883602e-003
1.272809e+003,4.890256e-003
1.274738e+003,4.852090e-003
1.276666e+003,4.901323e-003
1.278594e+003,4.916489e-003
1.280523e+003,5.023006e-003
1.282451e+003,5.120557e-003
1.284380e+003,5.269755e-003
1.286308e+003,5.437993e-003
1.288237e+003,5.699955e-003
1.290166e+003,5.914703e-003
1.292094e+003,6.234128e-003
1.294022e+003,6.577857e-003
1.295951e+003,6.994694e-003
1.297879e+003,7.306833e-003
1.299808e+003,7.583179e-003
1.301736e+003,7.679343e-003
1.303665e+003,7.707011e-003
1.305594e+003,7.602096e-003
1.307522e+003,7.507466e-003
1.309450e+003,7.234603e-003
1.311379e+003,6.943978e-003
1.313307e+003,6.533809e-003
1.315236e+003,6.162170e-003
1.317164e+003,5.754996e-003
1.319093e+003,5.412675e-003
1.321021e+003,4.982833e-003
1.322950e+003,4.713349e-003
1.324878e+003,4.495718e-003
1.326807e+003,4.397068e-003
1.328735e+003,4.319970e-003
1.330664e+003,4.439872e-003
1.332592e+003,4.620221e-003
1.334521e+003,4.951328e-003
1.336449e+003,5.359165e-003
1.338378e+003,6.069135e-003
1.340306e+003,6.744709e-003
1.342235e+003,7.198479e-003
1.344163e+003,7.553864e-003
1.346092e+003,8.132353e-003
1.348021e+003,8.739363e-003
1.349949e+003,9.385921e-003
1.351877e+003,9.681955e-003
1.353806e+003,9.707969e-003
1.355734e+003,9.508796e-003
1.357663e+003,9.572826e-003
1.359591e+003,9.874541e-003
1.361520e+003,1.059093e-002
1.363448e+003,1.164276e-002
1.365377e+003,1.266857e-002
1.367305e+003,1.330862e-002
1.369234e+003,1.324549e-002
1.371162e+003,1.228885e-002
1.373091e+003,1.129682e-002
1.375019e+003,1.088272e-002
1.376948e+003,1.085097e-002
1.378876e+003,9.385768e-003
1.380805e+003,7.087570e-003
1.382733e+003,5.349651e-003
1.384662e+003,4.609801e-003
1.386590e+003,4.185170e-003
1.388519e+003,4.050117e-003
1.390447e+003,3.826767e-003
1.392376e+003,3.823671e-003
1.394304e+003,3.744956e-003
1.396233e+003,3.875885e-003
1.398161e+003,3.836609e-003
1.400090e+003,3.969040e-003
1.402018e+003,3.845304e-003
1.403947e+003,4.042733e-003
1.405875e+003,4.043151e-003
1.407804e+003,4.251827e-003
1.409732e+003,4.349239e-003
1.411661e+003,4.669495e-003
1.413589e+003,4.797272e-003
1.415518e+003,5.165346e-003
1.417446e+003,5.332787e-003
1.419375e+003,6.138530e-003
1.421303e+003,6.516173e-003
1.423232e+003,7.468749e-003
1.425160e+003,8.724041e-003
1.427089e+003,1.040458e-002
1.429017e+003,1.257251e-002
1.430946e+003,1.578783e-002
1.432874e+003,1.830930e-002
1.434803e+003,2.075896e-002
1.436731e+003,2.346271e-002
1.438660e+003,2.577314e-002
1.440588e+003,2.697307e-002
1.442517e+003,2.875377e-002
1.444445e+003,3.006554e-002
1.446374e+003,3.211875e-002
1.448302e+003,3.517735e-002
1.450231e+003,3.993180e-002
1.452159e+003,4.696973e-002
1.454088e+003,5.612985e-002
1.456016e+003,6.569773e-002
1.457945e+003,8.962543e-002
1.459873e+003,1.305325e-001
1.461802e+003,1.692173e-001
1.463730e+003,1.672115e-001
1.465659e+003,1.300342e-001
1.467587e+003,1.194709e-001
1.469516e+003,1.182095e-001
1.471444e+003,1.334979e-001
1.473373e+003,1.156355e-001
1.475301e+003,6.121236e-002
1.477230e+003,2.566795e-002
1.479158e+003,1.549108e-002
1.481087e+003,1.077140e-002
1.483015e+003,8.681420e-003
1.484944e+003,6.978001e-003
1.486872e+003,6.534446e-003
1.488801e+003,5.387519e-003
1.490729e+003,5.305987e-003
1.492658e+003,4.333407e-003
1.494586e+003,4.344657e-003
1.496515e+003,3.797751e-003
1.498443e+003,3.921617e-003
1.500372e+003,3.280383e-003
1.502300e+003,3.265634e-003
1.504229e+003,2.883885e-003
1.506157e+003,3.625389e-003
1.508086e+003,3.048453e-003
1.510014e+003,3.141154e-003
1.511943e+003,2.706785e-003
1.513871e+003,2.798479e-003
1.515800e+003,2.573241e-003
1.517728e+003,2.801102e-003
1.519657e+003,2.497785e-003
1.521585e+003,3.003586e-003
1.523514e+003,2.579603e-003
1.525442e+003,2.722010e-003
1.527371e+003,2.432067e-003
1.529299e+003,2.509318e-003
1.531228e+003,2.359822e-003
1.533156e+003,2.683770e-003
1.535085e+003,2.465311e-003
1.537013e+003,2.612501e-003
1.538942e+003,2.811614e-003
1.540870e+003,3.575008e-003
1.542799e+003,2.883736e-003
1.544727e+003,2.800860e-003
1.546656e+003,2.381954e-003
1.548584e+003,2.451070e-003
1.550513e+003,2.286784e-003
1.552441e+003,2.264883e-003
1.554370e+003,2.120558e-003
1.556298e+003,2.307702e-003
1.558227e+003,2.728034e-003
1.560155e+003,2.564136e-003
1.562084e+003,1.828618e-003
1.564012e+003,1.809001e-003
1.565941e+003,1.668859e-003
1.567869e+003,1.822125e-003
1.569798e+003,1.846701e-003
1.571726e+003,1.764283e-003
1.573655e+003,1.622248e-003
1.575583e+003,1.942288e-003
1.577512e+003,1.892846e-003
1.579440e+003,1.843691e-003
1.581369e+003,1.755517e-003
1.583297e+003,1.825590e-003
1.585226e+003,1.793437e-003
1.587154e+003,1.887988e-003
1.589083e+003,1.812600e-003
1.591011e+003,1.825582e-003
1.592940e+003,1.734264e-003
1.594868e+003,1.787733e-003
1.596797e+003,1.742881e-003
1.598725e+003,1.812316e-003
1.600654e+003,1.767330e-003
1.602582e+003,1.832686e-003
1.604511e+003,1.776498e-003
1.606439e+003,1.860689e-003
1.608368e+003,1.837622e-003
1.610296e+003,1.896776e-003
1.612225e+003,1.871999e-003
1.614153e+003,2.021652e-003
1.616082e+003,2.198819e-003
1.618010e+003,2.317954e-003
1.619939e+003,2.163455e-003
1.621867e+003,2.281420e-003
1.623796e+003,2.370972e-003
1.625724e+003,2.462361e-003
1.627653e+003,2.512980e-003
1.629581e+003,2.648208e-003
1.631510e+003,2.605595e-003
1.633438e+003,2.803314e-003
1.635367e+003,3.222961e-003
1.637295e+003,3.318127e-003
1.639224e+003,3.023792e-003
1.641152e+003,3.012136e-003
1.643081e+003,2.929058e-003
1.645009e+003,3.175281e-003
1.646938e+003,3.405839e-003
1.648866e+003,3.035836e-003
1.650795e+003,2.845224e-003
1.652723e+003,3.708109e-003
1.654652e+003,3.043134e-003
1.656580e+003,2.515536e-003
1.658509e+003,2.236146e-003
1.660437e+003,2.219338e-003
1.662366e+003,2.207890e-003
1.664294e+003,2.091479e-003
1.666223e+003,1.831103e-003
1.668151e+003,1.871999e-003
1.670080e+003,1.806114e-003
1.672008e+003,1.645997e-003
1.673937e+003,1.561809e-003
1.675865e+003,1.608830e-003
1.677794e+003,1.239002e-003
1.679722e+003,1.202650e-003
1.681651e+003,1.181960e-003
1.683579e+003,1.800887e-003
1.685508e+003,1.347318e-003
1.687436e+003,9.650066e-004
1.689365e+003,6.852299e-004
1.691293e+003,5.672872e-004
1.693222e+003,5.015507e-004
1.695150e+003,8.366257e-004
1.697079e+003,7.711947e-004
1.699007e+003,1.011856e-003
1.700936e+003,8.898005e-004
1.702864e+003,5.080998e-004
1.704793e+003,3.590360e-004
1.706721e+003,4.589036e-004
1.708650e+003,3.689751e-004
1.710578e+003,4.144683e-004
1.712507e+003,4.409254e-004
1.714435e+003,7.718280e-004
1.716364e+003,1.211129e-003
1.718292e+003,1.493849e-003
1.720221e+003,9.768829e-004
1.722149e+003,9.050220e-004
1.724078e+003,8.951724e-004
1.726006e+003,9.192899e-004
1.727935e+003,9.129122e-004
1.729863e+003,1.038916e-003
1.731792e+003,1.145355e-003
1.733720e+003,1.775816e-003
1.735649e+003,1.352504e-003
1.737577e+003,1.147531e-003
1.739506e+003,1.208186e-003
1.741434e+003,1.145191e-003
1.743363e+003,1.013935e-003
1.745291e+003,9.130388e-004
1.747220e+003,7.648841e-004
1.749148e+003,8.836240e-004
1.751077e+003,6.405264e-004
1.753005e+003,1.335219e-004
1.754934e+003,-1.573265e-004
1.756862e+003,-2.752393e-004
1.758791e+003,-5.820841e-004
1.760719e+003,-5.459934e-004
1.762648e+003,-7.279888e-004
1.764576e+003,-8.709282e-004
1.766505e+003,-9.141192e-004
1.768433e+003,-8.124262e-004
1.770362e+003,-7.895455e-004
1.772290e+003,-4.814789e-004
1.774219e+003,-7.823408e-004
1.776147e+003,-9.512752e-004
1.778076e+003,-1.111597e-003
1.780004e+003,-1.041681e-003
1.781933e+003,-1.092553e-003
1.783861e+003,-9.619147e-004
1.785790e+003,-9.895265e-004
1.787718e+003,-1.139179e-003
1.789646e+003,-1.212791e-003
1.791575e+003,-8.058622e-004
1.793504e+003,-7.694662e-004
1.795432e+003,-8.814931e-004
1.797361e+003,-1.013368e-003
1.799289e+003,-9.420216e-004
1.801218e+003,-9.492189e-004
1.803146e+003,-1.023956e-003
1.805074e+003,-1.240544e-003
1.807003e+003,-1.283735e-003
1.808932e+003,-1.295134e-003
1.810860e+003,-1.188651e-003
1.812789e+003,-1.451179e-003
1.814717e+003,-1.681335e-003
1.816646e+003,-1.824059e-003
1.818574e+003,-1.557320e-003
1.820502e+003,-1.495428e-003
1.822431e+003,-1.272403e-003
1.824360e+003,-1.155756e-003
1.826288e+003,-1.097918e-003
1.828217e+003,-9.998679e-004
1.830145e+003,-8.457825e-004
1.832073e+003,-1.364790e-003
1.834002e+003,-1.361795e-003
1.835931e+003,-1.402058e-003
1.837859e+003,-1.394026e-003
1.839788e+003,-1.530513e-003
1.841716e+003,-1.315795e-003
1.843645e+003,-9.724051e-004
1.845573e+003,-8.078888e-004
1.847501e+003,-1.172453e-003
1.849430e+003,-1.311295e-003
1.851359e+003,-1.357794e-003
1.853287e+003,-1.189157e-003
1.855216e+003,-1.361303e-003
1.857144e+003,-1.401387e-003
1.859073e+003,-1.482725e-003
1.861001e+003,-1.267038e-003
1.862929e+003,-1.275755e-003
1.864858e+003,-1.195066e-003
1.866787e+003,-1.050487e-003
1.868715e+003,-5.218014e-004
1.870644e+003,-9.550676e-004
1.872572e+003,-1.155220e-003
1.874500e+003,-1.223899e-003
1.876429e+003,-1.143686e-003
1.878357e+003,-1.279995e-003
1.880286e+003,-1.026921e-003
1.882215e+003,-1.103595e-003
1.884143e+003,-1.064315e-003
1.886072e+003,-1.068413e-003
1.888000e+003,-4.476234e-004
1.889928e+003,-9.486824e-005
1.891857e+003,-7.697940e-005
1.893785e+003,-1.272559e-004
1.895714e+003,1.860932e-004
1.897643e+003,1.435503e-004
1.899571e+003,2.068952e-004
1.901500e+003,2.074242e-004
1.903428e+003,2.079457e-004
1.905356e+003,2.084598e-004
1.907285e+003,2.089664e-004
1.909213e+003,2.094656e-004
1.911142e+003,2.099648e-004
1.913071e+003,2.104491e-004
1.914999e+003,2.109334e-004
1.916927e+003,2.114102e-004
1.918856e+003,2.118796e-004
1.920784e+003,2.123490e-004
1.922713e+003,2.128035e-004
1.924641e+003,2.132580e-004
1.926570e+003,2.137125e-004
1.928499e+003,2.141446e-004
1.930427e+003,2.145842e-004
1.932355e+003,2.150163e-004
1.934284e+003,2.154410e-004
1.936212e+003,2.158508e-004
1.938141e+003,2.162680e-004
1.940070e+003,2.166703e-004
1.941998e+003,2.170652e-004
1.943927e+003,2.174601e-004
1.945855e+003,2.178475e-004
1.947783e+003,2.182275e-004
1.949712e+003,2.186000e-004
1.951640e+003,2.189726e-004
1.953569e+003,2.193302e-004
1.955498e+003,2.196878e-004
1.957426e+003,2.200380e-004
1.959354e+003,2.203807e-004
1.961283e+003,2.207235e-004
1.963211e+003,2.210587e-004
1.965140e+003,2.213791e-004
1.967068e+003,2.216920e-004
1.968997e+003,2.220124e-004
1.970926e+003,2.223253e-004
1.972854e+003,2.226233e-004
1.974782e+003,2.229214e-004
1.976711e+003,2.232119e-004
1.978639e+003,2.234951e-004
1.980568e+003,2.237707e-004
1.982496e+003,2.240464e-004
1.984425e+003,2.243072e-004
1.986354e+003,2.245754e-004
1.988282e+003,2.248287e-004
1.990210e+003,2.250746e-004
1.992139e+003,2.253130e-004
1.994067e+003,2.255589e-004
1.995996e+003,2.257824e-004
1.997924e+003,2.259985e-004
1.999853e+003,2.262294e-004
2.001781e+003,2.264306e-004
2.003710e+003,2.266467e-004
2.005638e+003,2.268404e-004
2.007567e+003,2.270341e-004
2.009495e+003,2.272204e-004
2.011424e+003,2.273992e-004
2.013352e+003,2.275780e-004
2.015281e+003,2.277419e-004
2.017209e+003,2.279133e-004
2.019138e+003,2.280697e-004
2.021066e+003,2.282187e-004
2.022995e+003,2.283677e-004
2.024923e+003,2.285019e-004
2.026852e+003,2.286285e-004
2.028781e+003,2.287552e-004
2.030709e+003,2.288893e-004
2.032637e+003,2.289936e-004
2.034566e+003,2.291054e-004
2.036494e+003,2.292097e-004
2.038423e+003,2.292991e-004
2.040351e+003,2.293959e-004
2.042280e+003,2.294853e-004
2.044208e+003,2.295598e-004
2.046137e+003,2.296343e-004
2.048065e+003,2.297014e-004
2.049994e+003,2.297610e-004
2.051922e+003,2.298132e-004
2.053851e+003,2.298653e-004
2.055779e+003,2.299175e-004
2.057708e+003,2.299473e-004
2.059636e+003,2.299696e-004
2.061565e+003,2.299994e-004
2.063493e+003,2.300143e-004
2.065422e+003,2.300292e-004
2.067350e+003,2.300292e-004
2.069279e+003,2.300292e-004
2.071207e+003,2.300292e-004
2.073136e+003,2.300218e-004
2.075064e+003,2.299994e-004
2.076993e+003,2.299696e-004
2.078921e+003,2.299398e-004
2.080850e+003,2.299026e-004
2.082778e+003,2.298653e-004
2.084707e+003,2.298281e-004
2.086635e+003,2.297610e-004
2.088564e+003,2.297014e-004
2.090492e+003,2.296418e-004
2.092421e+003,2.295673e-004
2.094349e+003,2.294853e-004
2.096278e+003,2.294034e-004
2.098206e+003,2.293214e-004
2.100135e+003,2.292171e-004
2.102063e+003,2.291203e-004
2.103992e+003,2.290085e-004
2.105920e+003,2.288893e-004
2.107849e+003,2.287701e-004
2.109777e+003,2.286434e-004
2.111706e+003,2.285093e-004
2.113634e+003,2.283752e-004
2.115563e+003,2.282336e-004
2.117491e+003,2.280846e-004
2.119420e+003,2.279207e-004
2.121348e+003,2.277642e-004
2.123277e+003,2.275780e-004
2.125205e+003,2.274066e-004
2.127134e+003,2.272278e-004
2.129062e+003,2.270564e-004
2.130991e+003,2.268553e-004
2.132919e+003,2.266541e-004
2.134848e+003,2.264529e-004
2.136776e+003,2.262369e-004
2.138705e+003,2.260208e-004
2.140633e+003,2.257973e-004
2.142562e+003,2.255738e-004
2.144490e+003,2.253354e-004
2.146419e+003,2.250969e-004
2.148347e+003,2.248436e-004
2.150276e+003,2.245903e-004
2.152204e+003,2.243370e-004
2.154133e+003,2.240688e-004
2.156061e+003,2.238080e-004
2.157990e+003,2.235249e-004
2.159918e+003,2.232343e-004
2.161847e+003,2.229512e-004
2.163775e+003,2.226532e-004
2.165704e+003,2.223477e-004
2.167632e+003,2.220273e-004
2.169561e+003,2.217218e-004
2.171489e+003,2.214015e-004
2.173418e+003,2.210885e-004
2.175346e+003,2.207607e-004
2.177275e+003,2.204180e-004
2.179203e+003,2.200678e-004
2.181132e+003,2.197176e-004
2.183060e+003,2.193600e-004
2.184989e+003,2.189949e-004
2.186917e+003,2.186373e-004
2.188846e+003,2.182648e-004
2.190774e+003,2.178699e-004
2.192703e+003,2.174899e-004
2.194631e+003,2.171025e-004
2.196560e+003,2.166927e-004
2.198488e+003,2.162978e-004
2.200417e+003,2.158955e-004
2.202345e+003,2.154633e-004
2.204274e+003,2.150461e-004
2.206202e+003,2.146214e-004
2.208131e+003,2.141893e-004
2.210059e+003,2.137423e-004
2.211988e+003,2.133027e-004
2.213916e+003,2.128407e-004
2.215845e+003,2.123713e-004
2.217773e+003,2.119243e-004
2.219702e+003,2.114549e-004
2.221630e+003,2.109706e-004
2.223559e+003,2.104938e-004
2.225487e+003,2.100021e-004
2.227416e+003,2.095029e-004
2.229344e+003,2.090037e-004
2.231273e+003,2.085119e-004
2.233201e+003,2.079904e-004
2.235130e+003,2.074689e-004
2.237058e+003,2.069473e-004
2.238987e+003,2.064034e-004
2.240915e+003,2.058670e-004
2.242844e+003,2.053306e-004
2.244772e+003,2.047792e-004
2.246701e+003,2.042204e-004
2.248629e+003,2.036691e-004
2.250558e+003,2.031028e-004
2.252486e+003,2.025217e-004
2.254415e+003,2.019554e-004
2.256343e+003,2.013668e-004
2.258272e+003,2.007559e-004
2.260200e+003,2.001747e-004
2.262129e+003,1.995713e-004
2.264057e+003,1.989603e-004
2.265986e+003,1.983419e-004
2.267914e+003,1.977161e-004
2.269843e+003,1.970828e-004
2.271771e+003,1.964644e-004
2.273700e+003,1.958162e-004
2.275628e+003,1.951754e-004
2.277557e+003,1.945272e-004
2.279485e+003,1.938716e-004
2.281414e+003,1.931936e-004
2.283342e+003,1.925230e-004
2.285271e+003,1.918525e-004
2.287199e+003,1.911744e-004
2.289128e+003,1.904890e-004
2.291056e+003,1.898035e-004
2.292985e+003,1.890883e-004
2.294913e+003,1.883879e-004
2.296842e+003,1.876727e-004
2.298770e+003,1.869500e-004
2.300699e+003,1.862198e-004
2.302627e+003,1.855046e-004
2.304556e+003,1.847669e-004
2.306484e+003,1.840293e-004
2.308413e+003,1.832694e-004
2.310341e+003,1.825169e-004
2.312270e+003,1.817495e-004
2.314198e+003,1.809895e-004
2.316127e+003,1.802146e-004
2.318055e+003,1.794323e-004
2.319984e+003,1.786575e-004
2.321912e+003,1.778677e-004
2.323841e+003,1.770630e-004
2.325769e+003,1.762658e-004
2.327698e+003,1.754612e-004
2.329626e+003,1.746416e-004
2.331555e+003,1.738071e-004
2.333483e+003,1.729950e-004
2.335412e+003,1.721606e-004
2.337340e+003,1.713261e-004
2.339269e+003,1.704767e-004
2.341197e+003,1.696274e-004
2.343126e+003,1.687557e-004
2.345054e+003,1.679063e-004
2.346983e+003,1.670420e-004
2.348911e+003,1.661628e-004
2.350840e+003,1.652837e-004
2.352768e+003,1.643971e-004
2.354697e+003,1.634955e-004
2.356625e+003,1.625940e-004
2.358554e+003,1.616925e-004
2.360482e+003,1.607835e-004
2.362411e+003,1.598597e-004
2.364339e+003,1.589432e-004
2.366268e+003,1.580194e-004
2.368196e+003,1.570731e-004
2.370125e+003,1.561344e-004
2.372053e+003,1.551807e-004
2.373982e+003,1.542345e-004
2.375910e+003,1.532733e-004
2.377839e+003,1.523197e-004
2.379767e+003,1.513362e-004
2.381696e+003,1.503527e-004
2.383624e+003,1.493692e-004
2.385553e+003,1.483858e-004
2.387481e+003,1.473874e-004
2.389410e+003,1.463816e-004
2.391338e+003,1.453757e-004
2.393267e+003,1.443699e-004
2.395195e+003,1.433417e-004
2.397124e+003,1.423135e-004
2.399052e+003,1.412854e-004
2.400981e+003,2.042130e-004
2.402909e+003,2.648905e-004
2.404838e+003,3.867596e-004
2.406766e+003,6.901473e-004
2.408695e+003,9.281114e-004
2.410623e+003,8.791238e-004
2.412552e+003,8.880645e-004
2.414480e+003,1.034409e-003
2.416409e+003,1.124024e-003
2.418337e+003,1.040414e-003
2.420266e+003,1.096785e-003
2.422194e+003,9.816140e-004
2.424123e+003,9.182319e-004
2.426051e+003,9.690002e-004
2.427979e+003,9.912550e-004
2.429908e+003,1.031965e-003
2.431837e+003,1.152121e-003
2.433765e+003,1.201719e-003
2.435694e+003,1.198515e-003
2.437622e+003,1.186408e-003
2.439551e+003,1.150131e-003
2.441479e+003,1.104005e-003
2.443407e+003,1.176573e-003
2.445336e+003,1.101151e-003
2.447265e+003,1.193613e-003
2.449193e+003,1.254559e-003
2.451122e+003,1.188383e-003
2.453050e+003,1.108103e-003
2.454979e+003,1.234181e-003
2.456907e+003,1.238242e-003
2.458836e+003,1.127496e-003
2.460764e+003,1.078159e-003
2.462693e+003,1.197726e-003
2.464621e+003,1.278311e-003
2.466550e+003,1.195475e-003
2.468478e+003,1.199394e-003
2.470406e+003,1.440518e-003
2.472335e+003,1.453035e-003
2.474264e+003,1.479954e-003
2.476192e+003,1.505375e-003
2.478121e+003,1.654856e-003
2.480049e+003,1.757979e-003
2.481978e+003,1.783572e-003
2.483906e+003,1.585007e-003
2.485835e+003,1.405291e-003
2.487763e+003,1.483046e-003
2.489692e+003,1.620553e-003
2.491620e+003,1.614958e-003
2.493549e+003,1.757830e-003
2.495477e+003,1.772784e-003
2.497406e+003,1.780361e-003
2.499334e+003,1.849800e-003
2.501263e+003,1.982912e-003
2.503191e+003,2.044827e-003
2.505120e+003,2.195135e-003
2.507048e+003,2.240092e-003
2.508977e+003,2.201661e-003
2.510905e+003,2.167813e-003
2.512833e+003,2.321482e-003
2.514762e+003,2.366096e-003
2.516691e+003,2.509154e-003
2.518619e+003,2.566807e-003
2.520548e+003,2.789102e-003
2.522476e+003,3.022641e-003
2.524405e+003,3.056437e-003
2.526333e+003,3.025047e-003
2.528261e+003,3.104337e-003
2.530190e+003,3.096513e-003
2.532119e+003,3.080428e-003
2.534047e+003,3.025986e-003
2.535976e+003,3.007047e-003
2.537904e+003,3.167950e-003
2.539833e+003,3.267162e-003
2.541761e+003,3.086746e-003
2.543689e+003,3.200121e-003
2.545618e+003,3.439493e-003
2.547547e+003,3.548332e-003
2.549475e+003,3.613226e-003
2.551404e+003,3.731675e-003
2.553332e+003,3.843762e-003
2.555260e+003,4.065357e-003
2.557189e+003,4.013702e-003
2.559117e+003,3.988542e-003
2.561046e+003,4.080258e-003
2.562975e+003,4.402429e-003
2.564903e+003,4.614934e-003
2.566832e+003,4.693411e-003
2.568760e+003,4.710108e-003
2.570688e+003,4.920028e-003
2.572617e+003,5.047277e-003
2.574546e+003,5.177259e-003
2.576474e+003,5.173497e-003
2.578403e+003,5.247213e-003
2.580331e+003,5.452536e-003
2.582260e+003,5.649865e-003
2.584188e+003,5.840212e-003
2.586116e+003,5.968012e-003
2.588045e+003,6.216459e-003
2.589974e+003,6.616719e-003
2.591902e+003,6.740436e-003
2.593831e+003,6.867833e-003
2.595759e+003,7.074289e-003
2.597688e+003,7.246174e-003
2.599616e+003,7.416636e-003
2.601544e+003,7.472925e-003
2.603473e+003,7.527314e-003
2.605402e+003,7.751837e-003
2.607330e+003,8.019350e-003
2.609259e+003,8.367814e-003
2.611187e+003,8.585781e-003
2.613115e+003,8.870512e-003
2.615044e+003,9.195186e-003
2.616972e+003,9.463578e-003
2.618901e+003,9.749025e-003
2.620830e+003,1.010148e-002
2.622758e+003,1.045372e-002
2.624687e+003,1.089057e-002
2.626615e+003,1.129990e-002
2.628543e+003,1.160062e-002
2.630472e+003,1.200812e-002
2.632400e+003,1.237863e-002
2.634329e+003,1.251189e-002
2.636258e+003,1.257978e-002
2.638186e+003,1.257326e-002
2.640115e+003,1.257538e-002
2.642043e+003,1.261748e-002
2.643971e+003,1.264776e-002
2.645900e+003,1.260287e-002
2.647828e+003,1.271409e-002
2.649757e+003,1.286598e-002
2.651686e+003,1.305727e-002
2.653614e+003,1.323654e-002
2.655542e+003,1.336209e-002
2.657471e+003,1.349171e-002
2.659399e+003,1.354527e-002
2.661328e+003,1.344007e-002
2.663256e+003,1.329263e-002
2.665185e+003,1.314244e-002
2.667114e+003,1.304198e-002
2.669042e+003,1.296131e-002
2.670970e+003,1.287698e-002
2.672899e+003,1.273912e-002
2.674827e+003,1.258954e-002
2.676756e+003,1.249392e-002
2.678685e+003,1.235129e-002
2.680613e+003,1.225280e-002
2.682542e+003,1.221608e-002
2.684470e+003,1.213819e-002
2.686398e+003,1.202226e-002
2.688327e+003,1.191195e-002
2.690255e+003,1.178464e-002
2.692184e+003,1.170707e-002
2.694113e+003,1.171978e-002
2.696041e+003,1.171049e-002
2.697969e+003,1.172086e-002
2.699898e+003,1.185980e-002
2.701826e+003,1.200090e-002
2.703755e+003,1.215810e-002
2.705683e+003,1.235142e-002
2.707612e+003,1.248973e-002
2.709541e+003,1.268003e-002
2.711469e+003,1.287189e-002
2.713397e+003,1.306184e-002
2.715326e+003,1.322862e-002
2.717254e+003,1.342843e-002
2.719183e+003,1.367341e-002
2.721111e+003,1.393329e-002
2.723040e+003,1.414524e-002
2.724969e+003,1.439869e-002
2.726897e+003,1.473563e-002
2.728825e+003,1.503960e-002
2.730754e+003,1.525563e-002
2.732682e+003,1.547557e-002
2.734611e+003,1.568364e-002
2.736539e+003,1.587243e-002
2.738468e+003,1.604413e-002
2.740396e+003,1.616699e-002
2.742325e+003,1.620715e-002
2.744253e+003,1.624924e-002
2.746182e+003,1.633419e-002
2.748110e+003,1.640576e-002
2.750039e+003,1.645235e-002
2.751967e+003,1.659657e-002
2.753896e+003,1.686924e-002
2.755824e+003,1.720437e-002
2.757753e+003,1.759347e-002
2.759681e+003,1.802129e-002
2.761610e+003,1.843639e-002
2.763538e+003,1.884732e-002
2.765467e+003,1.928630e-002
2.767395e+003,1.974562e-002
2.769324e+003,2.033446e-002
2.771252e+003,2.105087e-002
2.773181e+003,2.173808e-002
2.775109e+003,2.245720e-002
2.777038e+003,2.328639e-002
2.778966e+003,2.423000e-002
2.780895e+003,2.528052e-002
2.782823e+003,2.642530e-002
2.784752e+003,2.765155e-002
2.786680e+003,2.897766e-002
2.788609e+003,3.041691e-002
2.790537e+003,3.188695e-002
2.792466e+003,3.342450e-002
2.794394e+003,3.506466e-002
2.796323e+003,3.678711e-002
2.798251e+003,3.851686e-002
2.800180e+003,4.035726e-002
2.802108e+003,4.238031e-002
2.804037e+003,4.456647e-002
2.805965e+003,4.685463e-002
2.807894e+003,4.933038e-002
2.809822e+003,5.215579e-002
2.811751e+003,5.535444e-002
2.813679e+003,5.902660e-002
2.815608e+003,6.331872e-002
2.817536e+003,6.826288e-002
2.819465e+003,7.399794e-002
2.821393e+003,8.084701e-002
2.823322e+003,8.917198e-002
2.825250e+003,9.939679e-002
2.827179e+003,1.122739e-001
2.829107e+003,1.286544e-001
2.831036e+003,1.500872e-001
2.832964e+003,1.790899e-001
2.834893e+003,2.194358e-001
2.836821e+003,2.764569e-001
2.838750e+003,3.588509e-001
2.840678e+003,4.799260e-001
2.842607e+003,6.542720e-001
2.844535e+003,8.824168e-001
2.846464e+003,1.096716e+000
2.848392e+003,1.117315e+000
2.850321e+003,9.124410e-001
2.852249e+003,6.772159e-001
2.854178e+003,5.058551e-001
2.856106e+003,3.876924e-001
2.858035e+003,3.039283e-001
2.859963e+003,2.443486e-001
2.861892e+003,2.030144e-001
2.863820e+003,1.757636e-001
2.865749e+003,1.594044e-001
2.867677e+003,1.513504e-001
2.869606e+003,1.491750e-001
2.871534e+003,1.509798e-001
2.873463e+003,1.563378e-001
2.875391e+003,1.664424e-001
2.877320e+003,1.819691e-001
2.879248e+003,2.023443e-001
2.881177e+003,2.264889e-001
2.883105e+003,2.533826e-001
2.885034e+003,2.824919e-001
2.886962e+003,3.134577e-001
2.888891e+003,3.455076e-001
2.890819e+003,3.776872e-001
2.892748e+003,4.095961e-001
2.894676e+003,4.410625e-001
2.896605e+003,4.726304e-001
2.898533e+003,5.056835e-001
2.900462e+003,5.427029e-001
2.902390e+003,5.875717e-001
2.904319e+003,6.458523e-001
2.906247e+003,7.249966e-001
2.908176e+003,8.327665e-001
2.910104e+003,9.733313e-001
2.912033e+003,1.132182e+000
2.913961e+003,1.249568e+000
2.915890e+003,1.245995e+000
2.917818e+003,1.122838e+000
2.919747e+003,9.565626e-001
2.921675e+003,8.003630e-001
2.923604e+003,6.693750e-001
2.925532e+003,5.632544e-001
2.927461e+003,4.764880e-001
2.929389e+003,4.035877e-001
2.931318e+003,3.412565e-001
2.933246e+003,2.876289e-001
2.935175e+003,2.415487e-001
2.937103e+003,2.022149e-001
2.939032e+003,1.690090e-001
2.940960e+003,1.413442e-001
2.942889e+003,1.188678e-001
2.944817e+003,1.014064e-001
2.946746e+003,8.848143e-002
2.948674e+003,7.942762e-002
2.950603e+003,7.334930e-002
2.952531e+003,6.880168e-002
2.954460e+003,6.448035e-002
2.956388e+003,5.989031e-002
2.958317e+003,5.507178e-002
2.960245e+003,4.998574e-002
2.962174e+003,4.469543e-002
2.964102e+003,3.954661e-002
2.966031e+003,3.468696e-002
2.967959e+003,3.032883e-002
2.969888e+003,2.652153e-002
2.971816e+003,2.332634e-002
2.973745e+003,2.062728e-002
2.975673e+003,1.836246e-002
2.977602e+003,1.655649e-002
2.979530e+003,1.509014e-002
2.981459e+003,1.383100e-002
2.983387e+003,1.278284e-002
2.985316e+003,1.183622e-002
2.987244e+003,1.103190e-002
2.989173e+003,1.035459e-002
2.991101e+003,9.726442e-003
2.993030e+003,9.199262e-003
2.994958e+003,8.791164e-003
2.996887e+003,8.395627e-003
2.998815e+003,8.090168e-003
3.000744e+003,7.718146e-003
3.002672e+003,7.348493e-003
3.004601e+003,7.054977e-003
3.006529e+003,6.782919e-003
3.008458e+003,6.612726e-003
3.010386e+003,6.478988e-003
3.012315e+003,6.254539e-003
3.014243e+003,6.075740e-003
3.016172e+003,5.905896e-003
3.018100e+003,5.782686e-003
3.020029e+003,5.572736e-003
3.021957e+003,5.323559e-003
3.023886e+003,5.209938e-003
3.025814e+003,5.191341e-003
3.027743e+003,5.087927e-003
3.029671e+003,4.924774e-003
3.031600e+003,4.765607e-003
3.033528e+003,4.609220e-003
3.035457e+003,4.439220e-003
3.037385e+003,4.217245e-003
3.039314e+003,3.948040e-003
3.041242e+003,3.734246e-003
3.043171e+003,3.508724e-003
3.045099e+003,3.394358e-003
3.047028e+003,3.241681e-003
3.048956e+003,3.056414e-003
3.050885e+003,2.885170e-003
3.052813e+003,2.755888e-003
3.054742e+003,2.569221e-003
3.056670e+003,2.394967e-003
3.058599e+003,2.238616e-003
3.060527e+003,2.174556e-003
3.062456e+003,2.217598e-003
3.064384e+003,2.213277e-003
3.066313e+003,2.123252e-003
3.068241e+003,2.021357e-003
3.070170e+003,1.918904e-003
3.072098e+003,1.817964e-003
3.074027e+003,1.718611e-003
3.075955e+003,1.638785e-003
3.077884e+003,1.550749e-003
3.079812e+003,1.528777e-003
3.081741e+003,1.480073e-003
3.083669e+003,1.382418e-003
3.085598e+003,1.243263e-003
3.087526e+003,1.152679e-003
3.089455e+003,9.789914e-004
3.091383e+003,8.331090e-004
3.093312e+003,7.428005e-004
3.095240e+003,6.158352e-004
3.097169e+003,3.396645e-004
3.099097e+003,9.578466e-005
3.101026e+003,-4.364550e-005
3.102954e+003,-1.963601e-004
3.104883e+003,-2.743900e-004
3.106811e+003,-2.314448e-004
3.108740e+003,-2.998486e-004
3.110668e+003,-4.343316e-004
3.112597e+003,-4.786775e-004
3.114525e+003,-5.520657e-004
3.116454e+003,-6.236583e-004
3.118382e+003,-6.985813e-004
3.120311e+003,-7.247627e-004
3.122239e+003,-7.317066e-004
3.124168e+003,-7.653683e-004
3.126096e+003,-7.266924e-004
3.128025e+003,-6.961077e-004
3.129953e+003,-7.553324e-004
3.131882e+003,-7.778108e-004
3.133810e+003,-7.382780e-004
3.135739e+003,-6.527528e-004
3.137667e+003,-6.203353e-004
3.139596e+003,-7.041916e-004
3.141524e+003,-7.206127e-004
3.143453e+003,-6.939545e-004
3.145381e+003,-6.444827e-004
3.147310e+003,-6.316081e-004
3.149238e+003,-6.424636e-004
3.151167e+003,-6.125197e-004
3.153095e+003,-5.429834e-004
3.155024e+003,-5.191043e-004
3.156952e+003,-4.966557e-004
3.158881e+003,-4.765093e-004
3.160809e+003,-4.893765e-004
3.162738e+003,-5.024970e-004
3.164666e+003,-5.310699e-004
3.166594e+003,-4.740730e-004
3.168523e+003,-3.877580e-004
3.170452e+003,-2.883226e-004
3.172380e+003,-2.704784e-004
3.174309e+003,-2.582073e-004
3.176237e+003,-2.114624e-004
3.178166e+003,-1.613200e-004
3.180094e+003,-9.662658e-005
3.182022e+003,-1.028702e-004
3.183951e+003,-7.624179e-005
3.185880e+003,-6.016344e-005
3.187808e+003,-4.498661e-005
3.189737e+003,1.487136e-005
3.191665e+003,7.181615e-005
3.193594e+003,-5.850196e-005
3.195522e+003,-1.576915e-004
3.197450e+003,-6.200373e-005
3.199379e+003,-5.093962e-005
3.201308e+003,-2.106279e-005
3.203236e+003,6.193668e-005
3.205165e+003,4.958361e-005
3.207093e+003,1.244918e-004
3.209021e+003,2.119020e-004
3.210950e+003,1.661256e-004
3.212878e+003,1.097172e-004
3.214807e+003,1.507327e-004
3.216736e+003,1.758784e-004
3.218664e+003,2.413541e-004
3.220593e+003,2.458915e-004
3.222521e+003,2.371669e-004
3.224449e+003,2.577603e-004
3.226378e+003,2.476200e-004
3.228307e+003,2.076402e-004
3.230235e+003,2.265871e-004
3.232164e+003,3.377423e-004
3.234092e+003,3.371984e-004
3.236021e+003,3.749654e-004
3.237949e+003,5.102530e-004
3.239877e+003,6.319284e-004
3.241806e+003,6.510839e-004
3.243735e+003,6.999895e-004
3.245663e+003,7.138252e-004
3.247592e+003,6.400719e-004
3.249520e+003,5.911887e-004
3.251448e+003,6.399378e-004
3.253377e+003,7.636026e-004
3.255305e+003,8.562431e-004
3.257234e+003,9.245276e-004
3.259163e+003,9.196922e-004
3.261091e+003,8.469820e-004
3.263020e+003,8.802637e-004
3.264948e+003,1.049183e-003
3.266876e+003,1.241557e-003
3.268805e+003,1.226015e-003
3.270733e+003,1.170143e-003
3.272662e+003,1.233257e-003
3.274591e+003,1.301520e-003
3.276519e+003,1.355901e-003
3.278448e+003,1.361787e-003
3.280376e+003,1.284815e-003
3.282304e+003,1.298726e-003
3.284233e+003,1.369722e-003
3.286161e+003,1.365133e-003
3.288090e+003,1.350820e-003
3.290019e+003,1.425169e-003
3.291947e+003,1.465440e-003
3.293875e+003,1.370460e-003
3.295804e+003,1.343854e-003
3.297732e+003,1.404151e-003
3.299661e+003,1.418285e-003
3.301589e+003,1.403436e-003
3.303518e+003,1.382470e-003
3.305447e+003,1.441143e-003
3.307375e+003,1.457706e-003
3.309303e+003,1.506925e-003
3.311232e+003,1.614340e-003
3.313160e+003,1.577273e-003
3.315089e+003,1.452707e-003
3.317018e+003,1.520336e-003
3.318946e+003,1.581579e-003
3.320875e+003,1.464479e-003
3.322803e+003,1.328483e-003
3.324731e+003,1.350179e-003
3.326660e+003,1.399919e-003
3.328588e+003,1.528837e-003
3.330517e+003,1.640350e-003
3.332446e+003,1.556188e-003
3.334374e+003,1.541547e-003
3.336302e+003,1.552813e-003
3.338231e+003,1.509584e-003
3.340159e+003,1.521796e-003
3.342088e+003,1.551054e-003
3.344016e+003,1.557425e-003
3.345945e+003,1.707397e-003
3.347874e+003,1.818210e-003
3.349802e+003,1.791663e-003
3.351730e+003,1.657121e-003
3.353659e+003,1.565114e-003
3.355587e+003,1.687139e-003
3.357516e+003,1.777895e-003
3.359444e+003,1.747906e-003
3.361373e+003,1.688153e-003
3.363302e+003,1.559049e-003
3.365230e+003,1.536295e-003
3.367158e+003,1.542374e-003
3.369087e+003,1.631871e-003
3.371015e+003,1.612410e-003
3.372944e+003,1.632646e-003
3.374872e+003,1.679778e-003
3.376801e+003,1.690790e-003
3.378729e+003,1.682073e-003
3.380658e+003,1.683101e-003
3.382586e+003,1.657099e-003
3.384515e+003,1.558304e-003
3.386443e+003,1.515433e-003
3.388372e+003,1.519039e-003
3.390300e+003,1.516283e-003
3.392229e+003,1.489013e-003
3.394157e+003,1.392409e-003
3.396086e+003,1.376525e-003
3.398014e+003,1.423985e-003
3.399943e+003,1.384422e-003
3.401871e+003,1.358822e-003
3.403800e+003,1.410156e-003
3.405728e+003,1.360044e-003
3.407657e+003,1.303211e-003
3.409585e+003,1.250759e-003
3.411514e+003,1.136497e-003
3.413442e+003,1.052544e-003
3.415371e+003,1.136065e-003
3.417299e+003,1.164630e-003
3.419228e+003,1.175538e-003
3.421156e+003,1.264811e-003
3.423085e+003,1.224101e-003
3.425013e+003,1.123786e-003
3.426942e+003,1.127899e-003
3.428870e+003,1.154900e-003
3.430799e+003,1.165330e-003
3.432727e+003,1.093522e-003
3.434656e+003,1.048476e-003
3.436584e+003,9.635389e-004
3.438513e+003,8.895099e-004
3.440441e+003,8.983016e-004
3.442370e+003,9.288788e-004
3.444298e+003,1.012191e-003
3.446227e+003,1.072362e-003
3.448155e+003,9.952188e-004
3.450084e+003,8.719563e-004
3.452012e+003,8.000731e-004
3.453941e+003,7.282495e-004
3.455869e+003,7.163584e-004
3.457798e+003,7.719100e-004
3.459726e+003,7.450432e-004
3.461655e+003,8.170307e-004
3.463583e+003,8.781105e-004
3.465512e+003,7.583797e-004
3.467440e+003,6.266087e-004
3.469369e+003,5.649626e-004
3.471297e+003,5.472749e-004
3.473226e+003,5.453676e-004
3.475154e+003,5.297810e-004
3.477083e+003,4.842728e-004
3.479011e+003,4.509240e-004
3.480940e+003,4.264414e-004
3.482868e+003,3.649294e-004
3.484797e+003,3.738701e-004
3.486725e+003,3.924668e-004
3.488654e+003,3.165007e-004
3.490582e+003,2.351552e-004
3.492511e+003,2.656877e-004
3.494439e+003,2.676249e-004
3.496368e+003,1.552999e-004
3.498296e+003,2.035499e-005
3.500225e+003,5.677342e-005
3.502153e+003,1.714826e-004
3.504082e+003,1.872629e-004
3.506010e+003,1.323074e-004
3.507939e+003,8.197129e-005
3.509867e+003,5.780160e-005
3.511796e+003,-3.612041e-005
3.513724e+003,-1.319349e-004
3.515653e+003,-2.193153e-004
3.517581e+003,-2.173334e-004
3.519510e+003,-2.375394e-004
3.521438e+003,-3.173798e-004
3.523367e+003,-4.204810e-004
3.525295e+003,-4.431307e-004
3.527224e+003,-3.546625e-004
3.529152e+003,-3.192425e-004
3.531081e+003,-3.658533e-004
3.533009e+003,-6.333292e-004
3.534938e+003,-7.175505e-004
3.536866e+003,-6.102622e-004
3.538795e+003,-6.338805e-004
3.540723e+003,-7.035732e-004
3.542652e+003,-5.799979e-004
3.544580e+003,-3.608316e-004
3.546509e+003,-3.022105e-004
3.548437e+003,-5.264580e-004
3.550366e+003,-6.733835e-004
3.552294e+003,-7.413626e-004
3.554223e+003,-7.362217e-004
3.556151e+003,-7.950813e-004
3.558080e+003,-8.337051e-004
3.560008e+003,-7.024705e-004
3.561937e+003,-6.873757e-004
3.563865e+003,-7.582903e-004
3.565794e+003,-4.341304e-004
3.567722e+003,-9.548664e-005
3.569651e+003,-4.904419e-004
3.571579e+003,-8.618981e-004
3.573508e+003,-1.134381e-003
3.575436e+003,-1.117170e-003
3.577365e+003,-9.150058e-004
3.579293e+003,-8.627772e-004
3.581222e+003,-1.039594e-003
3.583150e+003,-1.165420e-003
3.585079e+003,-9.537786e-004
3.587007e+003,-3.050715e-004
3.588936e+003,-1.996309e-004
3.590864e+003,-4.582256e-004
3.592793e+003,-3.990680e-004
3.594721e+003,1.295507e-004
3.596650e+003,3.672689e-004
3.598578e+003,4.271269e-004
3.600507e+003,7.679462e-004
3.602435e+003,1.068681e-003
3.604364e+003,1.034349e-003
3.606292e+003,8.768439e-004
3.608221e+003,1.029789e-003
3.610149e+003,9.393096e-004
3.612078e+003,6.540269e-004
3.614006e+003,3.690124e-004
3.615935e+003,6.973743e-006
3.617863e+003,8.414686e-005
3.619792e+003,2.224296e-004
3.621720e+003,-1.620650e-004
3.623649e+003,-5.284399e-004
3.625577e+003,-6.403774e-004
3.627506e+003,-3.935397e-005
3.629434e+003,6.894469e-004
3.631363e+003,3.093034e-004
3.633291e+003,8.413196e-005
3.635220e+003,-1.615882e-004
3.637148e+003,-2.747774e-004
3.639077e+003,-3.438294e-004
3.641005e+003,-2.598315e-004
3.642934e+003,-2.871305e-004
3.644862e+003,-4.173517e-004
3.646791e+003,1.592785e-004
3.648719e+003,1.220688e-003
3.650648e+003,1.320183e-003
3.652576e+003,1.815856e-004
3.654505e+003,-1.629293e-004
3.656433e+003,1.253635e-004
3.658362e+003,-1.702756e-004
3.660290e+003,-3.772527e-004
3.662219e+003,-5.828291e-004
3.664147e+003,-8.702278e-004
3.666076e+003,-1.049384e-003
3.668004e+003,-6.448328e-004
3.669933e+003,5.477667e-005
3.671861e+003,-4.217625e-004
3.673790e+003,-4.283041e-004
3.675718e+003,6.532222e-004
3.677647e+003,2.617389e-004
3.679575e+003,-4.754961e-005
3.681504e+003,-4.497617e-004
3.683432e+003,-8.112043e-004
3.685361e+003,-1.011118e-003
3.687289e+003,-4.656315e-004
3.689218e+003,3.453344e-004
3.691146e+003,2.964586e-004
3.693075e+003,-4.678965e-005
3.695003e+003,-4.292876e-004
3.696932e+003,-6.243438e-004
3.698860e+003,-6.836951e-004
3.700789e+003,-3.124177e-004
3.702717e+003,-2.083480e-004
3.704646e+003,-6.626248e-004
3.706574e+003,-1.035273e-003
3.708503e+003,-9.370744e-004
3.710431e+003,-2.291799e-005
3.712360e+003,3.770739e-004
3.714288e+003,-2.091527e-004
3.716217e+003,-4.819036e-004
3.718145e+003,-5.400628e-004
3.720074e+003,-7.025748e-004
3.722002e+003,-4.878789e-004
3.723931e+003,7.097423e-005
3.725859e+003,3.324002e-004
3.727788e+003,-1.392812e-004
3.729716e+003,-3.261864e-004
3.731645e+003,1.342744e-004
3.733573e+003,7.455647e-004
3.735502e+003,1.673803e-003
3.737430e+003,1.102433e-003
3.739359e+003,7.866323e-005
3.741287e+003,-1.646876e-004
3.743216e+003,9.331405e-004
3.745144e+003,1.457170e-003
3.747073e+003,2.879053e-004
3.749001e+003,6.775409e-004
3.750930e+003,1.615763e-003
3.752858e+003,1.089334e-003
3.754787e+003,4.614592e-004
3.756715e+003,2.785772e-004
3.758644e+003,2.670884e-004
3.760572e+003,3.472567e-004
3.762501e+003,2.814829e-005
3.764429e+003,-7.836521e-005
3.766358e+003,-1.880527e-005
3.768286e+003,2.193749e-004
3.770215e+003,5.354434e-004
3.772143e+003,2.340972e-004
3.774072e+003,-5.210936e-005
3.776000e+003,-6.847084e-005
3.777929e+003,2.776384e-004
3.779857e+003,4.977584e-004
3.781786e+003,3.570467e-004
3.783714e+003,4.045367e-004
3.785643e+003,4.136264e-004
3.787571e+003,3.075749e-004
3.789500e+003,1.356900e-004
3.791428e+003,7.687509e-005
3.793357e+003,7.197261e-006
3.795285e+003,2.228022e-004
3.797214e+003,4.002452e-004
3.799142e+003,3.585815e-004
3.801071e+003,8.135587e-004
3.802999e+003,5.622506e-004
3.804927e+003,5.050749e-004
3.806856e+003,1.064837e-003
3.808785e+003,8.585006e-004
3.810713e+003,5.594641e-004
3.812642e+003,3.623664e-004
3.814570e+003,7.456243e-004
3.816499e+003,1.179412e-003
3.818427e+003,1.045436e-003
3.820355e+003,1.720041e-003
3.822284e+003,1.451731e-003
3.824213e+003,9.052753e-004
3.826141e+003,8.227378e-004
3.828070e+003,7.669628e-004
3.829998e+003,8.399636e-004
3.831927e+003,8.716583e-004
3.833855e+003,8.433610e-004
3.835783e+003,1.014203e-003
3.837712e+003,1.337394e-003
3.839641e+003,1.408800e-003
3.841569e+003,1.376957e-003
3.843498e+003,1.375496e-003
3.845426e+003,1.134992e-003
3.847354e+003,7.198304e-004
3.849283e+003,5.126595e-004
3.851211e+003,9.427965e-004
3.853140e+003,2.804935e-003
3.855069e+003,2.495155e-003
3.856997e+003,1.520813e-003
3.858926e+003,1.000151e-003
3.860854e+003,1.064211e-003
3.862782e+003,1.537815e-003
3.864711e+003,1.839012e-003
3.866640e+003,1.392975e-003
3.868568e+003,1.612157e-003
3.870497e+003,2.063170e-003
3.872425e+003,1.731858e-003
3.874354e+003,1.641169e-003
3.876282e+003,1.303777e-003
3.878210e+003,1.172274e-003
3.880139e+003,1.527041e-003
3.882068e+003,1.778901e-003
3.883996e+003,1.807332e-003
3.885925e+003,1.902819e-003
3.887853e+003,1.451358e-003
3.889781e+003,1.345813e-003
3.891710e+003,1.748011e-003
3.893638e+003,1.732990e-003
3.895567e+003,1.442492e-003
3.897496e+003,1.388147e-003
3.899424e+003,1.697987e-003
3.901353e+003,2.009004e-003
3.903281e+003,2.206206e-003
3.905209e+003,2.089560e-003
3.907138e+003,1.831040e-003
3.909066e+003,1.620397e-003
3.910995e+003,1.461565e-003
3.912924e+003,1.384065e-003
3.914852e+003,1.490608e-003
3.916781e+003,1.684457e-003
3.918709e+003,1.784176e-003
3.920637e+003,1.716435e-003
3.922566e+003,1.644090e-003
3.924494e+003,1.781821e-003
3.926423e+003,1.707435e-003
3.928352e+003,1.508027e-003
3.930280e+003,1.417667e-003
3.932208e+003,1.604393e-003
3.934137e+003,1.617253e-003
3.936065e+003,1.483411e-003
3.937994e+003,1.343042e-003
3.939922e+003,1.245826e-003
3.941851e+003,1.487076e-003
3.943780e+003,1.639009e-003
3.945708e+003,1.613379e-003
3.947636e+003,1.592010e-003
3.949565e+003,1.563191e-003
3.951493e+003,1.537040e-003
3.953422e+003,1.474738e-003
3.955351e+003,1.384884e-003
3.957279e+003,1.426995e-003
3.959208e+003,1.577511e-003
3.961136e+003,1.657844e-003
3.963064e+003,1.637787e-003
3.964993e+003,1.602992e-003
3.966921e+003,1.594514e-003
3.968850e+003,1.736715e-003
3.970779e+003,1.720682e-003
3.972707e+003,1.660258e-003
3.974635e+003,1.706690e-003
3.976564e+003,1.743257e-003
3.978492e+003,1.667500e-003
3.980421e+003,1.585767e-003
3.982349e+003,1.606166e-003
3.984278e+003,1.579180e-003
3.986207e+003,1.506105e-003
3.988135e+003,1.666650e-003
3.990063e+003,1.743972e-003
3.991992e+003,1.735479e-003
3.993920e+003,1.762927e-003
3.995849e+003,1.710534e-003
3.997777e+003,1.594603e-003
3.999706e+003,1.591235e-003
4.001635e+003,0.000000e+000
