3.991992e+002,0.000000e+000
4.011277e+002,0.000000e+000
4.030562e+002,0.000000e+000
4.049846e+002,0.000000e+000
4.069131e+002,0.000000e+000
4.088416e+002,0.000000e+000
4.107701e+002,0.000000e+000
4.126986e+002,0.000000e+000
4.146271e+002,0.000000e+000
4.165556e+002,0.000000e+000
4.184841e+002,0.000000e+000
4.204126e+002,0.000000e+000
4.223411e+002,0.000000e+000
4.242697e+002,0.000000e+000
4.261982e+002,0.000000e+000
4.281266e+002,0.000000e+000
4.300551e+002,0.000000e+000
4.319836e+002,0.000000e+000
4.339121e+002,0.000000e+000
4.358406e+002,0.000000e+000
4.377691e+002,0.000000e+000
4.396976e+002,0.000000e+000
4.416261e+002,0.000000e+000
4.435546e+002,0.000000e+000
4.454831e+002,0.000000e+000
4.474116e+002,0.000000e+000
4.493401e+002,0.000000e+000
4.512686e+002,0.000000e+000
4.531971e+002,0.000000e+000
4.551256e+002,0.000000e+000
4.570541e+002,0.000000e+000
4.589826e+002,0.000000e+000
4.609111e+002,0.000000e+000
4.628396e+002,0.000000e+000
4.647681e+002,0.000000e+000
4.666966e+002,0.000000e+000
4.686251e+002,0.000000e+000
4.705536e+002,0.000000e+000
4.724821e+002,0.000000e+000
4.744106e+002,0.000000e+000
4.763391e+002,0.000000e+000
4.782676e+002,0.000000e+000
4.801961e+002,0.000000e+000
4.821246e+002,0.000000e+000
4.840531e+002,0.000000e+000
4.859816e+002,0.000000e+000
4.879101e+002,0.000000e+000
4.898386e+002,0.000000e+000
4.917671e+002,0.000000e+000
4.936956e+002,0.000000e+000
4.956241e+002,0.000000e+000
4.975526e+002,0.000000e+000
4.994811e+002,0.000000e+000
5.014096e+002,0.000000e+000
5.033381e+002,0.000000e+000
5.052666e+002,0.000000e+000
5.071951e+002,0.000000e+000
5.091236e+002,0.000000e+000
5.110521e+002,0.000000e+000
5.129806e+002,0.000000e+000
5.149091e+002,0.000000e+000
5.168376e+002,0.000000e+000
5.187661e+002,0.000000e+000
5.206946e+002,0.000000e+000
5.226230e+002,0.000000e+000
5.245516e+002,-1.717559e-004
5.264800e+002,2.843793e-006
5.284086e+002,2.459297e-005
5.303370e+002,-7.546227e-005
5.322656e+002,-9.502284e-006
5.341940e+002,-5.890569e-005
5.361226e+002,-6.143097e-005
5.380510e+002,-5.865190e-005
5.399796e+002,-1.108493e-004
5.419081e+002,-1.410306e-004
5.438365e+002,-8.981954e-005
5.457650e+002,-1.470419e-005
5.476935e+002,-3.056554e-005
5.496221e+002,-1.188791e-004
5.515505e+002,7.492490e-006
5.534790e+002,1.738709e-004
5.554075e+002,2.504969e-004
5.573361e+002,1.542643e-004
5.592645e+002,8.424697e-005
5.611931e+002,3.887666e-005
5.631215e+002,8.658785e-005
5.650500e+002,9.354576e-005
5.669785e+002,8.294499e-005
5.689070e+002,5.043065e-005
5.708355e+002,-2.758577e-005
5.727640e+002,-1.017633e-004
5.746925e+002,4.550908e-006
5.766210e+002,7.873448e-005
5.785495e+002,3.929250e-005
5.804780e+002,-9.356299e-005
5.824065e+002,-8.894643e-005
5.843350e+002,-4.004780e-005
5.862635e+002,1.087133e-004
5.881920e+002,8.803932e-005
5.901205e+002,1.094490e-005
5.920490e+002,8.293428e-007
5.939775e+002,1.401333e-004
5.959060e+002,9.499211e-005
5.978345e+002,1.362157e-004
5.997630e+002,8.662650e-005
6.016915e+002,1.746151e-004
6.036200e+002,2.913312e-004
6.055485e+002,3.464837e-004
6.074770e+002,3.207545e-004
6.094055e+002,2.970812e-004
6.113340e+002,2.779583e-004
6.132625e+002,3.152583e-004
6.151910e+002,2.391227e-004
6.171195e+002,1.497190e-004
6.190480e+002,1.526168e-004
6.209765e+002,2.700198e-004
6.229050e+002,3.986275e-004
6.248335e+002,5.173432e-004
6.267620e+002,4.790295e-004
6.286905e+002,5.586133e-004
6.306190e+002,6.209239e-004
6.325475e+002,6.961371e-004
6.344760e+002,6.888355e-004
6.364045e+002,7.144073e-004
6.383330e+002,7.665530e-004
6.402615e+002,9.181630e-004
6.421899e+002,9.608637e-004
6.441185e+002,8.857930e-004
6.460470e+002,8.504004e-004
6.479755e+002,9.190780e-004
6.499039e+002,9.310446e-004
6.518325e+002,1.071262e-003
6.537610e+002,1.062462e-003
6.556895e+002,1.051421e-003
6.576179e+002,1.071111e-003
6.595464e+002,1.163082e-003
6.614750e+002,1.124574e-003
6.634034e+002,1.174030e-003
6.653319e+002,1.195788e-003
6.672604e+002,1.275376e-003
6.691890e+002,1.324120e-003
6.711174e+002,1.468618e-003
6.730460e+002,1.598242e-003
6.749745e+002,1.767415e-003
6.769030e+002,1.846694e-003
6.788314e+002,1.997298e-003
6.807599e+002,2.089121e-003
6.826885e+002,2.297177e-003
6.846169e+002,2.501837e-003
6.865454e+002,2.743724e-003
6.884739e+002,2.914190e-003
6.904025e+002,3.204123e-003
6.923309e+002,3.569706e-003
6.942594e+002,3.986253e-003
6.961879e+002,4.420963e-003
6.981165e+002,5.158698e-003
7.000449e+002,6.047659e-003
7.019734e+002,7.342925e-003
7.039019e+002,8.939059e-003
7.058304e+002,1.118171e-002
7.077589e+002,1.412720e-002
7.096874e+002,1.856095e-002
7.116159e+002,2.561814e-002
7.135444e+002,3.872383e-002
7.154729e+002,6.239201e-002
7.174014e+002,9.580952e-002
7.193299e+002,1.091081e-001
7.212584e+002,8.042116e-002
7.231869e+002,5.292547e-002
7.251154e+002,4.324467e-002
7.270439e+002,4.699668e-002
7.289724e+002,6.144871e-002
7.309009e+002,5.918657e-002
7.328294e+002,3.408949e-002
7.347579e+002,1.726907e-002
7.366864e+002,1.137472e-002
7.386149e+002,8.983520e-003
7.405434e+002,7.539549e-003
7.424719e+002,6.708212e-003
7.444004e+002,6.064224e-003
7.463289e+002,5.559794e-003
7.482574e+002,5.070099e-003
7.501859e+002,4.785749e-003
7.521144e+002,4.509884e-003
7.540428e+002,4.316538e-003
7.559714e+002,4.044648e-003
7.578999e+002,3.805733e-003
7.598284e+002,3.584524e-003
7.617568e+002,3.433342e-003
7.636854e+002,3.303397e-003
7.656139e+002,3.198678e-003
7.675424e+002,3.028212e-003
7.694709e+002,2.923941e-003
7.713994e+002,2.819875e-003
7.733279e+002,2.704944e-003
7.752563e+002,2.672209e-003
7.771849e+002,2.671634e-003
7.791134e+002,2.635962e-003
7.810419e+002,2.680230e-003
7.829703e+002,2.661637e-003
7.848989e+002,2.638407e-003
7.868274e+002,2.704337e-003
7.887559e+002,2.784717e-003
7.906843e+002,2.788547e-003
7.926129e+002,2.856718e-003
7.945414e+002,2.918098e-003
7.964698e+002,2.963090e-003
7.983983e+002,2.997291e-003
8.003268e+002,3.041658e-003
8.022554e+002,3.015836e-003
8.041838e+002,3.043514e-003
8.061123e+002,3.060834e-003
8.080408e+002,2.974979e-003
8.099694e+002,2.836359e-003
8.118978e+002,2.697694e-003
8.138263e+002,2.578740e-003
8.157548e+002,2.469875e-003
8.176833e+002,2.419786e-003
8.196118e+002,2.411041e-003
8.215403e+002,2.374633e-003
8.234689e+002,2.358089e-003
8.253973e+002,2.260669e-003
8.273258e+002,2.115761e-003
8.292543e+002,2.046261e-003
8.311829e+002,2.007174e-003
8.331113e+002,1.983419e-003
8.350398e+002,1.970151e-003
8.369683e+002,1.946012e-003
8.388969e+002,1.989141e-003
8.408253e+002,2.075264e-003
8.427538e+002,2.079769e-003
8.446823e+002,2.044071e-003
8.466108e+002,2.058693e-003
8.485393e+002,2.148952e-003
8.504678e+002,2.158788e-003
8.523963e+002,2.117414e-003
8.543248e+002,2.120533e-003
8.562533e+002,2.168139e-003
8.581818e+002,2.217575e-003
8.601103e+002,2.187355e-003
8.620388e+002,2.164329e-003
8.639673e+002,2.236259e-003
8.658958e+002,2.294301e-003
8.678243e+002,2.319369e-003
8.697528e+002,2.314252e-003
8.716813e+002,2.347194e-003
8.736098e+002,2.317401e-003
8.755383e+002,2.319611e-003
8.774668e+002,2.352897e-003
8.793953e+002,2.359769e-003
8.813238e+002,2.375154e-003
8.832523e+002,2.449147e-003
8.851808e+002,2.538786e-003
8.871093e+002,2.671716e-003
8.890378e+002,2.747060e-003
8.909663e+002,2.700261e-003
8.928948e+002,2.559090e-003
8.948232e+002,2.442854e-003
8.967518e+002,2.351700e-003
8.986803e+002,2.326471e-003
9.006088e+002,2.387701e-003
9.025372e+002,2.615459e-003
9.044658e+002,2.897243e-003
9.063943e+002,3.263504e-003
9.083228e+002,3.493824e-003
9.102512e+002,3.329574e-003
9.121797e+002,2.926373e-003
9.141083e+002,2.594051e-003
9.160367e+002,2.378542e-003
9.179653e+002,2.323131e-003
9.198937e+002,2.284440e-003
9.218223e+002,2.324325e-003
9.237507e+002,2.254632e-003
9.256793e+002,2.141074e-003
9.276077e+002,2.097889e-003
9.295363e+002,2.163162e-003
9.314647e+002,2.189584e-003
9.333932e+002,2.202272e-003
9.353217e+002,2.209201e-003
9.372502e+002,2.227542e-003
9.391787e+002,2.224641e-003
9.411072e+002,2.196556e-003
9.430358e+002,2.211926e-003
9.449642e+002,2.278537e-003
9.468928e+002,2.298055e-003
9.488212e+002,2.359697e-003
9.507498e+002,2.377108e-003
9.526782e+002,2.349070e-003
9.546068e+002,2.414874e-003
9.565352e+002,2.582941e-003
9.584637e+002,2.586269e-003
9.603922e+002,2.622754e-003
9.623207e+002,2.683822e-003
9.642492e+002,2.762156e-003
9.661777e+002,2.829962e-003
9.681062e+002,2.869241e-003
9.700347e+002,2.795633e-003
9.719632e+002,2.761038e-003
9.738917e+002,2.735985e-003
9.758202e+002,2.703213e-003
9.777487e+002,2.713494e-003
9.796772e+002,2.796647e-003
9.816057e+002,2.812352e-003
9.835342e+002,2.915442e-003
9.854627e+002,3.027449e-003
9.873912e+002,3.171941e-003
9.893197e+002,3.303359e-003
9.912482e+002,3.379543e-003
9.931767e+002,3.319254e-003
9.951052e+002,3.289834e-003
9.970337e+002,3.325755e-003
9.989622e+002,3.360990e-003
1.000891e+003,3.365390e-003
1.002819e+003,3.398315e-003
1.004748e+003,3.447196e-003
1.006676e+003,3.585685e-003
1.008605e+003,3.703405e-003
1.010533e+003,3.835779e-003
1.012462e+003,3.989402e-003
1.014390e+003,4.177937e-003
1.016319e+003,4.288211e-003
1.018247e+003,4.389465e-003
1.020176e+003,4.443164e-003
1.022104e+003,4.479565e-003
1.024033e+003,4.508343e-003
1.025961e+003,4.557955e-003
1.027890e+003,4.602678e-003
1.029818e+003,4.668278e-003
1.031747e+003,4.644390e-003
1.033675e+003,4.671086e-003
1.035604e+003,4.667707e-003
1.037532e+003,4.688296e-003
1.039461e+003,4.724348e-003
1.041389e+003,4.798467e-003
1.043318e+003,4.835608e-003
1.045246e+003,4.900278e-003
1.047175e+003,4.998335e-003
1.049103e+003,5.194617e-003
1.051032e+003,5.269900e-003
1.052960e+003,5.222316e-003
1.054889e+003,5.195861e-003
1.056817e+003,5.246163e-003
1.058746e+003,5.362240e-003
1.060674e+003,5.515564e-003
1.062603e+003,5.584351e-003
1.064531e+003,5.618464e-003
1.066460e+003,5.612473e-003
1.068388e+003,5.627059e-003
1.070317e+003,5.690500e-003
1.072245e+003,5.939251e-003
1.074174e+003,6.169356e-003
1.076102e+003,6.401838e-003
1.078031e+003,6.621955e-003
1.079959e+003,6.800109e-003
1.081888e+003,6.889341e-003
1.083816e+003,7.014001e-003
1.085745e+003,7.021716e-003
1.087673e+003,7.047221e-003
1.089602e+003,7.122183e-003
1.091530e+003,7.167494e-003
1.093459e+003,7.163968e-003
1.095387e+003,7.191574e-003
1.097316e+003,7.131691e-003
1.099244e+003,7.079512e-003
1.101173e+003,6.932758e-003
1.103101e+003,6.797943e-003
1.105030e+003,6.640950e-003
1.106958e+003,6.535789e-003
1.108887e+003,6.455845e-003
1.110815e+003,6.474581e-003
1.112744e+003,6.494124e-003
1.114672e+003,6.583485e-003
1.116601e+003,6.589993e-003
1.118529e+003,6.615972e-003
1.120458e+003,6.595030e-003
1.122386e+003,6.513203e-003
1.124315e+003,6.325746e-003
1.126243e+003,6.205281e-003
1.128172e+003,6.195289e-003
1.130100e+003,6.327057e-003
1.132029e+003,6.456181e-003
1.133957e+003,6.654968e-003
1.135885e+003,6.919486e-003
1.137814e+003,7.284980e-003
1.139743e+003,7.578567e-003
1.141671e+003,7.807560e-003
1.143600e+003,8.017177e-003
1.145528e+003,8.310548e-003
1.147457e+003,8.593258e-003
1.149385e+003,9.023193e-003
1.151314e+003,9.554735e-003
1.153242e+003,1.013883e-002
1.155171e+003,1.063822e-002
1.157099e+003,1.103467e-002
1.159028e+003,1.128997e-002
1.160956e+003,1.149336e-002
1.162885e+003,1.151413e-002
1.164813e+003,1.138977e-002
1.166742e+003,1.108614e-002
1.168670e+003,1.073738e-002
1.170599e+003,1.033499e-002
1.172527e+003,9.943675e-003
1.174456e+003,9.543609e-003
1.176384e+003,9.234358e-003
1.178313e+003,8.816823e-003
1.180241e+003,8.418497e-003
1.182170e+003,8.076245e-003
1.184098e+003,7.886991e-003
1.186027e+003,7.753573e-003
1.187955e+003,7.670354e-003
1.189884e+003,7.574277e-003
1.191812e+003,7.562125e-003
1.193740e+003,7.528529e-003
1.195669e+003,7.565506e-003
1.197598e+003,7.613659e-003
1.199526e+003,7.680489e-003
1.201455e+003,7.745134e-003
1.203383e+003,7.938230e-003
1.205312e+003,8.145416e-003
1.207240e+003,8.438220e-003
1.209168e+003,8.734373e-003
1.211097e+003,9.041997e-003
1.213026e+003,9.269601e-003
1.214954e+003,9.516198e-003
1.216883e+003,9.716049e-003
1.218811e+003,9.969154e-003
1.220740e+003,1.021716e-002
1.222668e+003,1.048886e-002
1.224596e+003,1.067395e-002
1.226525e+003,1.090976e-002
1.228453e+003,1.115682e-002
1.230382e+003,1.142403e-002
1.232311e+003,1.159781e-002
1.234239e+003,1.176080e-002
1.236167e+003,1.183200e-002
1.238096e+003,1.188422e-002
1.240025e+003,1.183722e-002
1.241953e+003,1.174942e-002
1.243882e+003,1.153795e-002
1.245810e+003,1.130752e-002
1.247739e+003,1.099136e-002
1.249667e+003,1.068117e-002
1.251595e+003,1.033814e-002
1.253524e+003,1.014100e-002
1.255453e+003,9.981828e-003
1.257381e+003,9.935632e-003
1.259310e+003,9.863338e-003
1.261238e+003,9.750372e-003
1.263167e+003,9.510938e-003
1.265095e+003,9.207355e-003
1.267023e+003,8.809436e-003
1.268952e+003,8.552104e-003
1.270880e+003,8.355672e-003
1.272809e+003,8.289065e-003
1.274738e+003,8.284872e-003
1.276666e+003,8.316396e-003
1.278594e+003,8.319726e-003
1.280523e+003,8.408347e-003
1.282451e+003,8.424325e-003
1.284380e+003,8.526558e-003
1.286308e+003,8.632643e-003
1.288237e+003,8.809721e-003
1.290166e+003,8.991588e-003
1.292094e+003,9.332398e-003
1.294022e+003,9.690443e-003
1.295951e+003,1.012828e-002
1.297879e+003,1.043578e-002
1.299808e+003,1.067976e-002
1.301736e+003,1.075719e-002
1.303665e+003,1.076983e-002
1.305594e+003,1.064743e-002
1.307522e+003,1.052551e-002
1.309450e+003,1.027097e-002
1.311379e+003,1.000287e-002
1.313307e+003,9.561844e-003
1.315236e+003,9.173004e-003
1.317164e+003,8.766605e-003
1.319093e+003,8.370554e-003
1.321021e+003,7.918660e-003
1.322950e+003,7.605869e-003
1.324878e+003,7.328263e-003
1.326807e+003,7.239396e-003
1.328735e+003,7.138314e-003
1.330664e+003,7.195359e-003
1.332592e+003,7.378638e-003
1.334521e+003,7.775070e-003
1.336449e+003,8.264171e-003
1.338378e+003,9.061176e-003
1.340306e+003,9.726785e-003
1.342235e+003,1.017987e-002
1.344163e+003,1.058202e-002
1.346092e+003,1.119156e-002
1.348021e+003,1.184337e-002
1.349949e+003,1.256267e-002
1.351877e+003,1.289180e-002
1.353806e+003,1.292969e-002
1.355734e+003,1.270506e-002
1.357663e+003,1.274252e-002
1.359591e+003,1.304772e-002
1.361520e+003,1.378244e-002
1.363448e+003,1.481108e-002
1.365377e+003,1.586749e-002
1.367305e+003,1.654754e-002
1.369234e+003,1.650750e-002
1.371162e+003,1.555519e-002
1.373091e+003,1.460487e-002
1.375019e+003,1.423777e-002
1.376948e+003,1.427971e-002
1.378876e+003,1.276290e-002
1.380805e+003,1.021947e-002
1.382733e+003,8.273317e-003
1.384662e+003,7.379573e-003
1.386590e+003,6.770415e-003
1.388519e+003,6.501203e-003
1.390447e+003,6.241024e-003
1.392376e+003,6.209556e-003
1.394304e+003,6.078664e-003
1.396233e+003,6.184865e-003
1.398161e+003,6.108031e-003
1.400090e+003,6.255604e-003
1.402018e+003,6.214278e-003
1.403947e+003,6.401949e-003
1.405875e+003,6.352797e-003
1.407804e+003,6.532280e-003
1.409732e+003,6.655037e-003
1.411661e+003,7.090127e-003
1.413589e+003,7.272124e-003
1.415518e+003,7.701257e-003
1.417446e+003,7.929210e-003
1.419375e+003,8.598471e-003
1.421303e+003,8.968005e-003
1.423232e+003,9.929700e-003
1.425160e+003,1.122319e-002
1.427089e+003,1.301313e-002
1.429017e+003,1.536385e-002
1.430946e+003,1.882287e-002
1.432874e+003,2.157523e-002
1.434803e+003,2.419468e-002
1.436731e+003,2.694591e-002
1.438660e+003,2.943715e-002
1.440588e+003,3.076194e-002
1.442517e+003,3.259421e-002
1.444445e+003,3.401804e-002
1.446374e+003,3.619939e-002
1.448302e+003,3.935688e-002
1.450231e+003,4.434928e-002
1.452159e+003,5.186456e-002
1.454088e+003,6.157524e-002
1.456016e+003,7.149234e-002
1.457945e+003,9.636965e-002
1.459873e+003,1.405179e-001
1.461802e+003,1.816138e-001
1.463730e+003,1.772116e-001
1.465659e+003,1.352171e-001
1.467587e+003,1.226519e-001
1.469516e+003,1.198199e-001
1.471444e+003,1.353359e-001
1.473373e+003,1.204796e-001
1.475301e+003,6.515937e-002
1.477230e+003,2.856331e-002
1.479158e+003,1.817358e-002
1.481087e+003,1.333449e-002
1.483015e+003,1.119573e-002
1.484944e+003,9.472432e-003
1.486872e+003,8.984277e-003
1.488801e+003,7.708022e-003
1.490729e+003,7.426219e-003
1.492658e+003,6.556448e-003
1.494586e+003,6.611574e-003
1.496515e+003,5.884729e-003
1.498443e+003,5.910786e-003
1.500372e+003,5.280353e-003
1.502300e+003,5.254803e-003
1.504229e+003,4.851460e-003
1.506157e+003,5.257763e-003
1.508086e+003,4.403969e-003
1.510014e+003,4.705403e-003
1.511943e+003,4.323948e-003
1.513871e+003,4.428834e-003
1.515800e+003,4.196266e-003
1.517728e+003,4.411995e-003
1.519657e+003,4.080387e-003
1.521585e+003,4.380671e-003
1.523514e+003,4.054438e-003
1.525442e+003,4.259821e-003
1.527371e+003,3.926232e-003
1.529299e+003,3.988238e-003
1.531228e+003,3.820248e-003
1.533156e+003,4.039718e-003
1.535085e+003,3.844887e-003
1.537013e+003,3.964586e-003
1.538942e+003,3.729368e-003
1.540870e+003,4.058508e-003
1.542799e+003,3.735255e-003
1.544727e+003,3.819942e-003
1.546656e+003,3.523696e-003
1.548584e+003,3.649235e-003
1.550513e+003,3.535742e-003
1.552441e+003,3.611939e-003
1.554370e+003,3.460558e-003
1.556298e+003,3.584644e-003
1.558227e+003,3.324231e-003
1.560155e+003,3.369736e-003
1.562084e+003,3.125288e-003
1.564012e+003,3.206592e-003
1.565941e+003,3.128109e-003
1.567869e+003,3.250556e-003
1.569798e+003,3.168534e-003
1.571726e+003,3.224099e-003
1.573655e+003,3.117049e-003
1.575583e+003,3.200486e-003
1.577512e+003,3.123295e-003
1.579440e+003,3.219204e-003
1.581369e+003,3.169585e-003
1.583297e+003,3.262578e-003
1.585226e+003,3.208922e-003
1.587154e+003,3.271567e-003
1.589083e+003,3.210250e-003
1.591011e+003,3.252465e-003
1.592940e+003,3.170047e-003
1.594868e+003,3.185455e-003
1.596797e+003,3.075005e-003
1.598725e+003,3.105126e-003
1.600654e+003,3.062319e-003
1.602582e+003,3.125401e-003
1.604511e+003,3.007419e-003
1.606439e+003,3.035290e-003
1.608368e+003,3.008140e-003
1.610296e+003,3.028441e-003
1.612225e+003,2.972595e-003
1.614153e+003,3.059104e-003
1.616082e+003,3.000816e-003
1.618010e+003,3.153395e-003
1.619939e+003,3.083095e-003
1.621867e+003,3.091572e-003
1.623796e+003,3.118757e-003
1.625724e+003,3.272871e-003
1.627653e+003,3.242340e-003
1.629581e+003,3.326569e-003
1.631510e+003,3.281355e-003
1.633438e+003,3.345923e-003
1.635367e+003,3.382729e-003
1.637295e+003,3.589518e-003
1.639224e+003,3.580758e-003
1.641152e+003,3.735159e-003
1.643081e+003,3.644612e-003
1.645009e+003,3.649196e-003
1.646938e+003,3.496401e-003
1.648866e+003,3.521016e-003
1.650795e+003,3.392724e-003
1.652723e+003,3.301265e-003
1.654652e+003,3.247418e-003
1.656580e+003,3.377270e-003
1.658509e+003,3.289308e-003
1.660437e+003,3.307370e-003
1.662366e+003,3.220059e-003
1.664294e+003,3.139606e-003
1.666223e+003,2.972491e-003
1.668151e+003,2.933091e-003
1.670080e+003,2.761735e-003
1.672008e+003,2.726633e-003
1.673937e+003,2.557674e-003
1.675865e+003,2.582479e-003
1.677794e+003,2.481014e-003
1.679722e+003,2.525935e-003
1.681651e+003,2.449377e-003
1.683579e+003,2.487022e-003
1.685508e+003,2.236590e-003
1.687436e+003,2.257261e-003
1.689365e+003,2.149759e-003
1.691293e+003,2.168512e-003
1.693222e+003,2.124516e-003
1.695150e+003,2.142513e-003
1.697079e+003,2.059396e-003
1.699007e+003,2.096750e-003
1.700936e+003,1.961796e-003
1.702864e+003,2.195818e-003
1.704793e+003,2.161190e-003
1.706721e+003,2.299357e-003
1.708650e+003,2.402073e-003
1.710578e+003,2.617825e-003
1.712507e+003,2.649240e-003
1.714435e+003,2.801597e-003
1.716364e+003,2.939446e-003
1.718292e+003,3.196383e-003
1.720221e+003,3.271915e-003
1.722149e+003,3.509747e-003
1.724078e+003,3.709909e-003
1.726006e+003,4.079694e-003
1.727935e+003,4.489923e-003
1.729863e+003,5.115544e-003
1.731792e+003,5.634870e-003
1.733720e+003,6.791210e-003
1.735649e+003,8.129800e-003
1.737577e+003,9.111414e-003
1.739506e+003,1.069926e-002
1.741434e+003,1.239653e-002
1.743363e+003,1.375570e-002
1.745291e+003,1.476098e-002
1.747220e+003,1.502646e-002
1.749148e+003,1.451083e-002
1.751077e+003,1.274022e-002
1.753005e+003,1.064084e-002
1.754934e+003,8.886809e-003
1.756862e+003,6.808493e-003
1.758791e+003,5.191784e-003
1.760719e+003,4.105845e-003
1.762648e+003,2.907570e-003
1.764576e+003,2.430923e-003
1.766505e+003,2.050146e-003
1.768433e+003,1.735255e-003
1.770362e+003,1.534984e-003
1.772290e+003,1.445539e-003
1.774219e+003,1.166258e-003
1.776147e+003,1.068776e-003
1.778076e+003,9.739157e-004
1.780004e+003,9.406339e-004
1.781933e+003,8.006040e-004
1.783861e+003,8.062497e-004
1.785790e+003,6.815512e-004
1.787718e+003,6.588642e-004
1.789646e+003,6.295126e-004
1.791575e+003,6.943997e-004
1.793504e+003,4.922971e-004
1.795432e+003,4.712213e-004
1.797361e+003,4.354343e-004
1.799289e+003,4.717205e-004
1.801218e+003,4.648585e-004
1.803146e+003,5.039908e-004
1.805074e+003,3.304277e-004
1.807003e+003,2.619233e-004
1.808932e+003,1.640171e-004
1.810860e+003,1.819953e-004
1.812789e+003,-7.225201e-005
1.814717e+003,-2.904590e-004
1.816646e+003,-5.233791e-004
1.818574e+003,-2.159104e-004
1.820502e+003,-1.142547e-004
1.822431e+003,-6.969646e-005
1.824360e+003,-2.008211e-004
1.826288e+003,-2.537277e-004
1.828217e+003,-3.824010e-004
1.830145e+003,-4.261415e-004
1.832073e+003,-5.546995e-004
1.834002e+003,-4.139822e-004
1.835931e+003,-4.784539e-004
1.837859e+003,-5.065370e-004
1.839788e+003,-6.757025e-004
1.841716e+003,-5.489457e-004
1.843645e+003,-5.204342e-004
1.845573e+003,-3.408212e-004
1.847501e+003,-5.919468e-004
1.849430e+003,-6.501041e-004
1.851359e+003,-7.544924e-004
1.853287e+003,-7.072296e-004
1.855216e+003,-8.637384e-004
1.857144e+003,-7.629804e-004
1.859073e+003,-8.601341e-004
1.861001e+003,-8.533653e-004
1.862929e+003,-1.014192e-003
1.864858e+003,-9.734351e-004
1.866787e+003,-1.187917e-003
1.868715e+003,-1.023239e-003
1.870644e+003,-9.643696e-004
1.872572e+003,-7.961113e-004
1.874500e+003,-9.160545e-004
1.876429e+003,-1.056703e-003
1.878357e+003,-1.210950e-003
1.880286e+003,-9.801313e-004
1.882215e+003,-1.214672e-003
1.884143e+003,-1.266846e-003
1.886072e+003,-1.175111e-003
1.888000e+003,-1.133243e-003
1.889928e+003,-1.396122e-003
1.891857e+003,-9.269882e-004
1.893785e+003,-7.262304e-004
1.895714e+003,-4.976541e-004
1.897643e+003,-6.898064e-004
1.899571e+003,-6.218925e-004
1.901500e+003,-6.147325e-004
1.903428e+003,-6.075818e-004
1.905356e+003,-6.004348e-004
1.907285e+003,-5.932990e-004
1.909213e+003,-5.861670e-004
1.911142e+003,-5.790424e-004
1.913071e+003,-5.719252e-004
1.914999e+003,-5.648136e-004
1.916927e+003,-5.577095e-004
1.918856e+003,-5.506128e-004
1.920784e+003,-5.435236e-004
1.922713e+003,-5.364399e-004
1.924641e+003,-5.293656e-004
1.926570e+003,-5.222969e-004
1.928499e+003,-5.152337e-004
1.930427e+003,-5.081799e-004
1.932355e+003,-5.011316e-004
1.934284e+003,-4.940890e-004
1.936212e+003,-4.870538e-004
1.938141e+003,-4.800279e-004
1.940070e+003,-4.730057e-004
1.941998e+003,-4.659928e-004
1.943927e+003,-4.589874e-004
1.945855e+003,-4.519876e-004
1.947783e+003,-4.449934e-004
1.949712e+003,-4.380066e-004
1.951640e+003,-4.310291e-004
1.953569e+003,-4.240572e-004
1.955498e+003,-4.170891e-004
1.957426e+003,-4.101340e-004
1.959354e+003,-4.031826e-004
1.961283e+003,-3.962405e-004
1.963211e+003,-3.893003e-004
1.965140e+003,-3.823712e-004
1.967068e+003,-3.754459e-004
1.968997e+003,-3.685299e-004
1.970926e+003,-3.616195e-004
1.972854e+003,-3.547166e-004
1.974782e+003,-3.478210e-004
1.976711e+003,-3.409330e-004
1.978639e+003,-3.340486e-004
1.980568e+003,-3.271755e-004
1.982496e+003,-3.203060e-004
1.984425e+003,-3.134441e-004
1.986354e+003,-3.065914e-004
1.988282e+003,-2.997424e-004
1.990210e+003,-2.929028e-004
1.992139e+003,-2.860688e-004
1.994067e+003,-2.792422e-004
1.995996e+003,-2.724230e-004
1.997924e+003,-2.656095e-004
1.999853e+003,-2.588015e-004
2.001781e+003,-2.520047e-004
2.003710e+003,-2.452116e-004
2.005638e+003,-2.384279e-004
2.007567e+003,-2.316479e-004
2.009495e+003,-2.248771e-004
2.011424e+003,-2.181139e-004
2.013352e+003,-2.113562e-004
2.015281e+003,-2.046041e-004
2.017209e+003,-1.978613e-004
2.019138e+003,-1.911242e-004
2.021066e+003,-1.843944e-004
2.022995e+003,-1.776721e-004
2.024923e+003,-1.709554e-004
2.026852e+003,-1.642462e-004
2.028781e+003,-1.575425e-004
2.030709e+003,-1.508482e-004
2.032637e+003,-1.441613e-004
2.034566e+003,-1.374800e-004
2.036494e+003,-1.308043e-004
2.038423e+003,-1.241378e-004
2.040351e+003,-1.174789e-004
2.042280e+003,-1.108218e-004
2.044208e+003,-1.041759e-004
2.046137e+003,-9.753741e-005
2.048065e+003,-9.090267e-005
2.049994e+003,-8.427724e-005
2.051922e+003,-7.765926e-005
2.053851e+003,-7.104501e-005
2.055779e+003,-6.444007e-005
2.057708e+003,-5.784445e-005
2.059636e+003,-5.125068e-005
2.061565e+003,-4.466623e-005
2.063493e+003,-3.808923e-005
2.065422e+003,-3.151968e-005
2.067350e+003,-2.495758e-005
2.069279e+003,-1.839735e-005
2.071207e+003,-1.184829e-005
2.073136e+003,-5.304813e-006
2.075064e+003,1.229346e-006
2.076993e+003,7.757917e-006
2.078921e+003,1.428090e-005
2.080850e+003,2.079643e-005
2.082778e+003,2.730452e-005
2.084707e+003,3.380887e-005
2.086635e+003,4.030205e-005
2.088564e+003,4.678965e-005
2.090492e+003,5.326979e-005
2.092421e+003,5.974434e-005
2.094349e+003,6.620958e-005
2.096278e+003,7.266924e-005
2.098206e+003,7.912330e-005
2.100135e+003,8.557178e-005
2.102063e+003,9.200908e-005
2.103992e+003,9.844266e-005
2.105920e+003,1.048669e-004
2.107849e+003,1.112837e-004
2.109777e+003,1.176931e-004
2.111706e+003,1.240987e-004
2.113634e+003,1.304988e-004
2.115563e+003,1.368895e-004
2.117491e+003,1.432728e-004
2.119420e+003,1.496486e-004
2.121348e+003,1.560170e-004
2.123277e+003,1.623817e-004
2.125205e+003,1.687389e-004
2.127134e+003,1.750868e-004
2.129062e+003,1.814310e-004
2.130991e+003,1.877658e-004
2.132919e+003,1.940913e-004
2.134848e+003,2.004169e-004
2.136776e+003,2.067294e-004
2.138705e+003,2.130363e-004
2.140633e+003,2.193358e-004
2.142562e+003,2.256334e-004
2.144490e+003,2.319179e-004
2.146419e+003,2.382006e-004
2.148347e+003,2.444722e-004
2.150276e+003,2.507363e-004
2.152204e+003,2.569966e-004
2.154133e+003,2.632495e-004
2.156061e+003,2.694987e-004
2.157990e+003,2.757348e-004
2.159918e+003,2.819654e-004
2.161847e+003,2.881903e-004
2.163775e+003,2.944078e-004
2.165704e+003,3.006160e-004
2.167632e+003,3.068205e-004
2.169561e+003,3.130157e-004
2.171489e+003,3.192052e-004
2.173418e+003,3.253911e-004
2.175346e+003,3.315676e-004
2.177275e+003,3.377385e-004
2.179203e+003,3.439002e-004
2.181132e+003,3.500544e-004
2.183060e+003,3.562011e-004
2.184989e+003,3.623422e-004
2.186917e+003,3.684815e-004
2.188846e+003,3.746077e-004
2.190774e+003,3.807284e-004
2.192703e+003,3.868416e-004
2.194631e+003,3.929473e-004
2.196560e+003,3.990475e-004
2.198488e+003,4.051402e-004
2.200417e+003,4.112292e-004
2.202345e+003,4.173070e-004
2.204274e+003,4.233811e-004
2.206202e+003,4.294440e-004
2.208131e+003,4.355013e-004
2.210059e+003,4.415531e-004
2.211988e+003,4.475974e-004
2.213916e+003,4.536342e-004
2.215845e+003,4.596654e-004
2.217773e+003,4.656911e-004
2.219702e+003,4.717093e-004
2.221630e+003,4.777201e-004
2.223559e+003,4.837196e-004
2.225487e+003,4.897173e-004
2.227416e+003,4.957058e-004
2.229344e+003,5.016886e-004
2.231273e+003,5.076677e-004
2.233201e+003,5.136337e-004
2.235130e+003,5.195960e-004
2.237058e+003,5.255491e-004
2.238987e+003,5.314983e-004
2.240915e+003,5.374346e-004
2.242844e+003,5.433727e-004
2.244772e+003,5.492978e-004
2.246701e+003,5.552191e-004
2.248629e+003,5.611330e-004
2.250558e+003,5.670376e-004
2.252486e+003,5.729385e-004
2.254415e+003,5.788300e-004
2.256343e+003,5.847141e-004
2.258272e+003,5.905926e-004
2.260200e+003,5.964637e-004
2.262129e+003,6.023291e-004
2.264057e+003,6.081872e-004
2.265986e+003,6.140359e-004
2.267914e+003,6.198809e-004
2.269843e+003,6.257165e-004
2.271771e+003,6.315503e-004
2.273700e+003,6.373711e-004
2.275628e+003,6.431919e-004
2.277557e+003,6.489996e-004
2.279485e+003,6.547999e-004
2.281414e+003,6.605983e-004
2.283342e+003,6.663837e-004
2.285271e+003,6.721653e-004
2.287199e+003,6.779395e-004
2.289128e+003,6.837100e-004
2.291056e+003,6.894711e-004
2.292985e+003,6.952249e-004
2.294913e+003,7.009730e-004
2.296842e+003,7.067081e-004
2.298770e+003,7.124431e-004
2.300699e+003,7.181689e-004
2.302627e+003,7.238891e-004
2.304556e+003,7.296018e-004
2.306484e+003,7.353090e-004
2.308413e+003,7.410068e-004
2.310341e+003,7.466991e-004
2.312270e+003,7.523801e-004
2.314198e+003,7.580593e-004
2.316127e+003,7.637292e-004
2.318055e+003,7.693917e-004
2.319984e+003,7.750504e-004
2.321912e+003,7.807016e-004
2.323841e+003,7.863455e-004
2.325769e+003,7.919818e-004
2.327698e+003,7.976107e-004
2.329626e+003,8.032322e-004
2.331555e+003,8.088462e-004
2.333483e+003,8.144602e-004
2.335412e+003,8.200575e-004
2.337340e+003,8.256547e-004
2.339269e+003,8.312408e-004
2.341197e+003,8.368213e-004
2.343126e+003,8.423943e-004
2.345054e+003,8.479618e-004
2.346983e+003,8.535255e-004
2.348911e+003,8.590780e-004
2.350840e+003,8.646250e-004
2.352768e+003,8.701608e-004
2.354697e+003,8.756965e-004
2.356625e+003,8.812193e-004
2.358554e+003,8.867364e-004
2.360482e+003,8.922499e-004
2.362411e+003,8.977521e-004
2.364339e+003,9.032544e-004
2.366268e+003,9.087455e-004
2.368196e+003,9.142291e-004
2.370125e+003,9.197053e-004
2.372053e+003,9.251758e-004
2.373982e+003,9.306353e-004
2.375910e+003,9.360947e-004
2.377839e+003,9.415448e-004
2.379767e+003,9.469874e-004
2.381696e+003,9.524208e-004
2.383624e+003,9.578504e-004
2.385553e+003,9.632744e-004
2.387481e+003,9.686872e-004
2.389410e+003,9.740945e-004
2.391338e+003,9.794980e-004
2.393267e+003,9.848941e-004
2.395195e+003,9.902772e-004
2.397124e+003,9.956565e-004
2.399052e+003,1.001030e-003
2.400981e+003,9.829961e-004
2.402909e+003,9.008069e-004
2.404838e+003,8.977223e-004
2.406766e+003,1.076959e-003
2.408695e+003,1.271937e-003
2.410623e+003,1.308406e-003
2.412552e+003,1.249384e-003
2.414480e+003,1.217995e-003
2.416409e+003,1.336431e-003
2.418337e+003,1.326429e-003
2.420266e+003,1.343058e-003
2.422194e+003,1.319829e-003
2.424123e+003,1.240959e-003
2.426051e+003,1.196969e-003
2.427979e+003,1.160644e-003
2.429908e+003,1.160379e-003
2.431837e+003,1.258058e-003
2.433765e+003,1.217473e-003
2.435694e+003,1.209728e-003
2.437622e+003,1.265142e-003
2.439551e+003,1.275685e-003
2.441479e+003,1.088412e-003
2.443407e+003,1.127372e-003
2.445336e+003,1.217492e-003
2.447265e+003,1.281807e-003
2.449193e+003,1.198873e-003
2.451122e+003,1.364984e-003
2.453050e+003,1.452094e-003
2.454979e+003,1.492416e-003
2.456907e+003,1.399608e-003
2.458836e+003,1.293411e-003
2.460764e+003,1.269577e-003
2.462693e+003,1.332885e-003
2.464621e+003,1.356879e-003
2.466550e+003,1.416422e-003
2.468478e+003,1.492029e-003
2.470406e+003,1.547335e-003
2.472335e+003,1.495985e-003
2.474264e+003,1.582218e-003
2.476192e+003,1.510002e-003
2.478121e+003,1.521301e-003
2.480049e+003,1.653209e-003
2.481978e+003,1.782224e-003
2.483906e+003,1.636077e-003
2.485835e+003,1.665346e-003
2.487763e+003,1.704017e-003
2.489692e+003,1.706460e-003
2.491620e+003,1.651229e-003
2.493549e+003,1.702635e-003
2.495477e+003,1.705319e-003
2.497406e+003,1.727810e-003
2.499334e+003,1.889680e-003
2.501263e+003,2.098463e-003
2.503191e+003,2.102032e-003
2.505120e+003,2.084197e-003
2.507048e+003,2.070583e-003
2.508977e+003,2.214478e-003
2.510905e+003,2.301397e-003
2.512833e+003,2.279550e-003
2.514762e+003,2.260812e-003
2.516691e+003,2.519073e-003
2.518619e+003,2.831699e-003
2.520548e+003,2.913540e-003
2.522476e+003,2.941923e-003
2.524405e+003,3.003409e-003
2.526333e+003,3.037730e-003
2.528261e+003,3.085904e-003
2.530190e+003,3.082458e-003
2.532119e+003,3.103234e-003
2.534047e+003,3.110876e-003
2.535976e+003,3.126351e-003
2.537904e+003,3.202828e-003
2.539833e+003,3.303897e-003
2.541761e+003,3.315911e-003
2.543689e+003,3.555637e-003
2.545618e+003,3.782799e-003
2.547547e+003,3.926076e-003
2.549475e+003,3.888108e-003
2.551404e+003,3.833784e-003
2.553332e+003,4.045133e-003
2.555260e+003,4.201461e-003
2.557189e+003,4.146343e-003
2.559117e+003,4.218221e-003
2.561046e+003,4.318215e-003
2.562975e+003,4.546108e-003
2.564903e+003,4.696630e-003
2.566832e+003,4.782137e-003
2.568760e+003,4.884886e-003
2.570688e+003,4.978441e-003
2.572617e+003,5.133959e-003
2.574546e+003,5.402485e-003
2.576474e+003,5.567094e-003
2.578403e+003,5.758105e-003
2.580331e+003,6.018244e-003
2.582260e+003,6.193239e-003
2.584188e+003,6.349424e-003
2.586116e+003,6.602159e-003
2.588045e+003,6.697949e-003
2.589974e+003,6.921479e-003
2.591902e+003,7.204428e-003
2.593831e+003,7.407540e-003
2.595759e+003,7.619113e-003
2.597688e+003,7.850239e-003
2.599616e+003,8.008204e-003
2.601544e+003,8.175712e-003
2.603473e+003,8.413171e-003
2.605402e+003,8.645238e-003
2.607330e+003,8.874126e-003
2.609259e+003,9.138368e-003
2.611187e+003,9.457754e-003
2.613115e+003,9.799002e-003
2.615044e+003,1.002950e-002
2.616972e+003,1.039363e-002
2.618901e+003,1.074014e-002
2.620830e+003,1.105259e-002
2.622758e+003,1.135794e-002
2.624687e+003,1.180336e-002
2.626615e+003,1.227852e-002
2.628543e+003,1.269231e-002
2.630472e+003,1.310260e-002
2.632400e+003,1.343078e-002
2.634329e+003,1.365702e-002
2.636258e+003,1.378175e-002
2.638186e+003,1.384358e-002
2.640115e+003,1.384045e-002
2.642043e+003,1.382863e-002
2.643971e+003,1.390859e-002
2.645900e+003,1.397189e-002
2.647828e+003,1.401414e-002
2.649757e+003,1.414957e-002
2.651686e+003,1.434198e-002
2.653614e+003,1.453151e-002
2.655542e+003,1.469838e-002
2.657471e+003,1.485283e-002
2.659399e+003,1.492636e-002
2.661328e+003,1.486567e-002
2.663256e+003,1.477220e-002
2.665185e+003,1.460231e-002
2.667114e+003,1.437890e-002
2.669042e+003,1.422734e-002
2.670970e+003,1.412333e-002
2.672899e+003,1.399188e-002
2.674827e+003,1.385043e-002
2.676756e+003,1.372537e-002
2.678685e+003,1.368215e-002
2.680613e+003,1.355723e-002
2.682542e+003,1.340237e-002
2.684470e+003,1.326992e-002
2.686398e+003,1.319096e-002
2.688327e+003,1.310535e-002
2.690255e+003,1.297855e-002
2.692184e+003,1.286777e-002
2.694113e+003,1.287124e-002
2.696041e+003,1.288964e-002
2.697969e+003,1.289688e-002
2.699898e+003,1.290272e-002
2.701826e+003,1.299455e-002
2.703755e+003,1.315155e-002
2.705683e+003,1.339529e-002
2.707612e+003,1.359908e-002
2.709541e+003,1.376040e-002
2.711469e+003,1.392306e-002
2.713397e+003,1.408578e-002
2.715326e+003,1.425283e-002
2.717254e+003,1.442578e-002
2.719183e+003,1.459350e-002
2.721111e+003,1.485360e-002
2.723040e+003,1.511159e-002
2.724969e+003,1.538904e-002
2.726897e+003,1.570031e-002
2.728825e+003,1.597717e-002
2.730754e+003,1.618558e-002
2.732682e+003,1.640369e-002
2.734611e+003,1.661207e-002
2.736539e+003,1.681542e-002
2.738468e+003,1.697148e-002
2.740396e+003,1.707648e-002
2.742325e+003,1.714282e-002
2.744253e+003,1.714478e-002
2.746182e+003,1.715181e-002
2.748110e+003,1.720065e-002
2.750039e+003,1.731496e-002
2.751967e+003,1.753795e-002
2.753896e+003,1.776704e-002
2.755824e+003,1.799760e-002
2.757753e+003,1.833295e-002
2.759681e+003,1.877150e-002
2.761610e+003,1.916378e-002
2.763538e+003,1.955470e-002
2.765467e+003,1.998083e-002
2.767395e+003,2.051390e-002
2.769324e+003,2.105985e-002
2.771252e+003,2.166503e-002
2.773181e+003,2.236062e-002
2.775109e+003,2.318730e-002
2.777038e+003,2.410254e-002
2.778966e+003,2.498626e-002
2.780895e+003,2.601792e-002
2.782823e+003,2.723679e-002
2.784752e+003,2.848574e-002
2.786680e+003,2.976780e-002
2.788609e+003,3.124936e-002
2.790537e+003,3.283126e-002
2.792466e+003,3.447900e-002
2.794394e+003,3.621975e-002
2.796323e+003,3.801238e-002
2.798251e+003,3.980856e-002
2.800180e+003,4.167461e-002
2.802108e+003,4.369492e-002
2.804037e+003,4.588386e-002
2.805965e+003,4.823020e-002
2.807894e+003,5.090944e-002
2.809822e+003,5.393274e-002
2.811751e+003,5.730600e-002
2.813679e+003,6.107322e-002
2.815608e+003,6.544081e-002
2.817536e+003,7.046664e-002
2.819465e+003,7.631812e-002
2.821393e+003,8.329442e-002
2.823322e+003,9.185815e-002
2.825250e+003,1.023473e-001
2.827179e+003,1.155171e-001
2.829107e+003,1.324274e-001
2.831036e+003,1.547609e-001
2.832964e+003,1.849181e-001
2.834893e+003,2.268638e-001
2.836821e+003,2.862344e-001
2.838750e+003,3.721831e-001
2.840678e+003,4.991921e-001
2.842607e+003,6.841657e-001
2.844535e+003,9.305146e-001
2.846464e+003,1.166459e+000
2.848392e+003,1.188959e+000
2.850321e+003,9.649344e-001
2.852249e+003,7.158170e-001
2.854178e+003,5.386533e-001
2.856106e+003,4.168061e-001
2.858035e+003,3.292348e-001
2.859963e+003,2.660509e-001
2.861892e+003,2.217304e-001
2.863820e+003,1.921031e-001
2.865749e+003,1.740879e-001
2.867677e+003,1.650289e-001
2.869606e+003,1.623245e-001
2.871534e+003,1.637947e-001
2.873463e+003,1.688504e-001
2.875391e+003,1.786468e-001
2.877320e+003,1.941965e-001
2.879248e+003,2.150950e-001
2.881177e+003,2.401066e-001
2.883105e+003,2.681334e-001
2.885034e+003,2.986987e-001
2.886962e+003,3.311886e-001
2.888891e+003,3.647276e-001
2.890819e+003,3.986602e-001
2.892748e+003,4.322769e-001
2.894676e+003,4.652752e-001
2.896605e+003,4.983889e-001
2.898533e+003,5.331814e-001
2.900462e+003,5.720740e-001
2.902390e+003,6.190437e-001
2.904319e+003,6.799091e-001
2.906247e+003,7.624808e-001
2.908176e+003,8.751348e-001
2.910104e+003,1.023343e+000
2.912033e+003,1.194472e+000
2.913961e+003,1.327761e+000
2.915890e+003,1.333449e+000
2.917818e+003,1.204725e+000
2.919747e+003,1.026231e+000
2.921675e+003,8.593644e-001
2.923604e+003,7.206507e-001
2.925532e+003,6.087511e-001
2.927461e+003,5.170739e-001
2.929389e+003,4.398374e-001
2.931318e+003,3.735683e-001
2.933246e+003,3.162808e-001
2.935175e+003,2.669935e-001
2.937103e+003,2.249487e-001
2.939032e+003,1.893345e-001
2.940960e+003,1.596510e-001
2.942889e+003,1.354934e-001
2.944817e+003,1.166234e-001
2.946746e+003,1.027278e-001
2.948674e+003,9.327655e-002
2.950603e+003,8.703494e-002
2.952531e+003,8.237435e-002
2.954460e+003,7.799184e-002
2.956388e+003,7.319150e-002
2.958317e+003,6.780839e-002
2.960245e+003,6.202511e-002
2.962174e+003,5.594308e-002
2.964102e+003,4.988039e-002
2.966031e+003,4.405746e-002
2.967959e+003,3.875230e-002
2.969888e+003,3.420447e-002
2.971816e+003,3.035230e-002
2.973745e+003,2.708591e-002
2.975673e+003,2.435887e-002
2.977602e+003,2.207918e-002
2.979530e+003,2.021323e-002
2.981459e+003,1.871385e-002
2.983387e+003,1.739742e-002
2.985316e+003,1.622174e-002
2.987244e+003,1.534493e-002
2.989173e+003,1.457433e-002
2.991101e+003,1.385845e-002
2.993030e+003,1.331309e-002
2.994958e+003,1.289855e-002
2.996887e+003,1.266770e-002
2.998815e+003,1.248651e-002
3.000744e+003,1.225003e-002
3.002672e+003,1.204231e-002
3.004601e+003,1.181618e-002
3.006529e+003,1.152385e-002
3.008458e+003,1.116349e-002
3.010386e+003,1.077830e-002
3.012315e+003,1.017602e-002
3.014243e+003,9.635542e-003
3.016172e+003,9.263149e-003
3.018100e+003,8.884100e-003
3.020029e+003,8.567868e-003
3.021957e+003,8.267460e-003
3.023886e+003,7.927274e-003
3.025814e+003,7.743899e-003
3.027743e+003,7.552151e-003
3.029671e+003,7.237431e-003
3.031600e+003,6.941874e-003
3.033528e+003,6.720753e-003
3.035457e+003,6.488213e-003
3.037385e+003,6.275259e-003
3.039314e+003,6.065369e-003
3.041242e+003,5.768569e-003
3.043171e+003,5.455304e-003
3.045099e+003,5.247191e-003
3.047028e+003,5.042054e-003
3.048956e+003,4.878543e-003
3.050885e+003,4.631177e-003
3.052813e+003,4.349204e-003
3.054742e+003,4.245296e-003
3.056670e+003,4.177289e-003
3.058599e+003,4.069507e-003
3.060527e+003,4.001923e-003
3.062456e+003,3.839929e-003
3.064384e+003,3.713947e-003
3.066313e+003,3.566163e-003
3.068241e+003,3.498092e-003
3.070170e+003,3.383450e-003
3.072098e+003,3.255637e-003
3.074027e+003,3.159596e-003
3.075955e+003,3.121274e-003
3.077884e+003,3.084155e-003
3.079812e+003,3.023360e-003
3.081741e+003,2.758250e-003
3.083669e+003,2.595589e-003
3.085598e+003,2.517631e-003
3.087526e+003,2.450047e-003
3.089455e+003,2.311753e-003
3.091383e+003,2.111739e-003
3.093312e+003,1.875108e-003
3.095240e+003,1.646193e-003
3.097169e+003,1.426477e-003
3.099097e+003,1.215976e-003
3.101026e+003,9.862129e-004
3.102954e+003,7.850081e-004
3.104883e+003,6.834064e-004
3.106811e+003,6.642081e-004
3.108740e+003,6.298088e-004
3.110668e+003,5.096942e-004
3.112597e+003,3.796313e-004
3.114525e+003,3.057476e-004
3.116454e+003,2.425406e-004
3.118382e+003,1.825318e-004
3.120311e+003,1.788773e-004
3.122239e+003,1.346152e-004
3.124168e+003,-3.856979e-005
3.126096e+003,-9.593740e-005
3.128025e+003,-3.929622e-005
3.129953e+003,-5.307235e-005
3.131882e+003,-4.120171e-005
3.133810e+003,-1.939014e-006
3.135739e+003,2.438203e-006
3.137667e+003,-1.059212e-004
3.139596e+003,-2.253540e-004
3.141524e+003,-2.463292e-004
3.143453e+003,-2.199672e-004
3.145381e+003,-1.324378e-004
3.147310e+003,-5.609915e-005
3.149238e+003,-9.281188e-005
3.151167e+003,-8.411705e-005
3.153095e+003,-4.017539e-005
3.155024e+003,-3.902614e-005
3.156952e+003,-1.308825e-004
3.158881e+003,-1.845602e-004
3.160809e+003,-9.883568e-005
3.162738e+003,-6.935000e-005
3.164666e+003,6.791204e-006
3.166594e+003,-5.905516e-005
3.168523e+003,-1.622234e-004
3.170452e+003,-9.459816e-005
3.172380e+003,-5.567819e-005
3.174309e+003,-4.283711e-005
3.176237e+003,-1.589023e-005
3.178166e+003,-2.970546e-005
3.180094e+003,-2.587214e-005
3.182022e+003,9.596534e-005
3.183951e+003,2.104118e-004
3.185880e+003,2.120100e-004
3.187808e+003,1.513157e-004
3.189737e+003,4.743412e-005
3.191665e+003,-6.294250e-005
3.193594e+003,-1.781806e-005
3.195522e+003,4.370511e-005
3.197450e+003,4.466064e-005
3.199379e+003,-5.207956e-006
3.201308e+003,1.815148e-005
3.203236e+003,1.061987e-004
3.205165e+003,1.016464e-004
3.207093e+003,7.014908e-005
3.209021e+003,7.404014e-005
3.210950e+003,-2.214685e-006
3.212878e+003,2.154708e-005
3.214807e+003,1.216680e-004
3.216736e+003,1.553409e-004
3.218664e+003,1.547076e-004
3.220593e+003,1.642108e-004
3.222521e+003,2.718698e-004
3.224449e+003,2.480317e-004
3.226378e+003,1.803357e-004
3.228307e+003,1.841895e-004
3.230235e+003,2.121143e-004
3.232164e+003,1.494177e-004
3.234092e+003,1.290422e-004
3.236021e+003,1.975354e-004
3.237949e+003,2.977028e-004
3.239877e+003,3.050342e-004
3.241806e+003,2.866611e-004
3.243735e+003,3.690366e-004
3.245663e+003,3.675073e-004
3.247592e+003,2.831277e-004
3.249520e+003,3.448371e-004
3.251448e+003,3.712587e-004
3.253377e+003,4.257131e-004
3.255305e+003,4.389752e-004
3.257234e+003,4.870184e-004
3.259163e+003,6.154012e-004
3.261091e+003,6.310046e-004
3.263020e+003,5.976446e-004
3.264948e+003,6.181225e-004
3.266876e+003,6.092824e-004
3.268805e+003,6.874949e-004
3.270733e+003,7.367693e-004
3.272662e+003,7.768869e-004
3.274591e+003,7.220581e-004
3.276519e+003,7.345602e-004
3.278448e+003,8.648559e-004
3.280376e+003,8.287542e-004
3.282304e+003,8.169748e-004
3.284233e+003,8.295551e-004
3.286161e+003,8.704402e-004
3.288090e+003,9.446926e-004
3.290019e+003,9.456500e-004
3.291947e+003,9.591095e-004
3.293875e+003,9.355135e-004
3.295804e+003,9.267479e-004
3.297732e+003,8.682236e-004
3.299661e+003,8.778535e-004
3.301589e+003,8.962192e-004
3.303518e+003,9.180792e-004
3.305447e+003,9.578839e-004
3.307375e+003,1.010742e-003
3.309303e+003,1.097765e-003
3.311232e+003,1.105864e-003
3.313160e+003,9.890869e-004
3.315089e+003,9.809434e-004
3.317018e+003,1.002245e-003
3.318946e+003,1.008943e-003
3.320875e+003,1.038279e-003
3.322803e+003,1.071591e-003
3.324731e+003,1.034714e-003
3.326660e+003,1.041103e-003
3.328588e+003,1.070291e-003
3.330517e+003,1.031879e-003
3.332446e+003,1.139037e-003
3.334374e+003,1.302287e-003
3.336302e+003,1.203746e-003
3.338231e+003,1.169834e-003
3.340159e+003,1.208927e-003
3.342088e+003,1.199901e-003
3.344016e+003,1.160257e-003
3.345945e+003,1.058057e-003
3.347874e+003,1.013622e-003
3.349802e+003,1.084283e-003
3.351730e+003,1.074243e-003
3.353659e+003,1.036890e-003
3.355587e+003,1.072537e-003
3.357516e+003,1.143843e-003
3.359444e+003,1.109079e-003
3.361373e+003,1.162369e-003
3.363302e+003,1.196560e-003
3.365230e+003,1.142930e-003
3.367158e+003,1.141299e-003
3.369087e+003,1.219165e-003
3.371015e+003,1.151849e-003
3.372944e+003,1.054615e-003
3.374872e+003,1.138385e-003
3.376801e+003,1.198553e-003
3.378729e+003,1.190171e-003
3.380658e+003,1.131691e-003
3.382586e+003,1.087822e-003
3.384515e+003,1.044929e-003
3.386443e+003,1.007501e-003
3.388372e+003,9.832382e-004
3.390300e+003,1.094684e-003
3.392229e+003,1.161519e-003
3.394157e+003,1.115311e-003
3.396086e+003,1.059957e-003
3.398014e+003,1.006838e-003
3.399943e+003,8.875020e-004
3.401871e+003,8.548722e-004
3.403800e+003,9.090863e-004
3.405728e+003,9.394586e-004
3.407657e+003,9.968951e-004
3.409585e+003,9.384602e-004
3.411514e+003,9.390637e-004
3.413442e+003,9.445138e-004
3.415371e+003,8.865222e-004
3.417299e+003,7.560737e-004
3.419228e+003,7.137880e-004
3.421156e+003,7.252656e-004
3.423085e+003,7.012449e-004
3.425013e+003,6.926395e-004
3.426942e+003,7.183999e-004
3.428870e+003,8.319467e-004
3.430799e+003,8.557215e-004
3.432727e+003,8.095801e-004
3.434656e+003,8.140430e-004
3.436584e+003,7.383563e-004
3.438513e+003,7.585101e-004
3.440441e+003,8.051544e-004
3.442370e+003,7.722676e-004
3.444298e+003,7.548705e-004
3.446227e+003,8.354709e-004
3.448155e+003,8.155107e-004
3.450084e+003,8.003265e-004
3.452012e+003,7.786788e-004
3.453941e+003,8.245669e-004
3.455869e+003,7.787757e-004
3.457798e+003,6.928481e-004
3.459726e+003,6.754324e-004
3.461655e+003,6.349944e-004
3.463583e+003,6.263256e-004
3.465512e+003,7.022135e-004
3.467440e+003,6.888695e-004
3.469369e+003,5.989410e-004
3.471297e+003,4.957430e-004
3.473226e+003,4.367009e-004
3.475154e+003,4.230477e-004
3.477083e+003,4.394315e-004
3.479011e+003,4.718639e-004
3.480940e+003,4.979596e-004
3.482868e+003,4.625842e-004
3.484797e+003,5.107932e-004
3.486725e+003,4.445314e-004
3.488654e+003,2.584308e-004
3.490582e+003,2.487488e-004
3.492511e+003,3.653392e-004
3.494439e+003,3.609098e-004
3.496368e+003,3.100224e-004
3.498296e+003,2.972521e-004
3.500225e+003,2.691634e-004
3.502153e+003,2.969466e-004
3.504082e+003,2.063550e-004
3.506010e+003,4.273281e-005
3.507939e+003,-3.608316e-005
3.509867e+003,4.580989e-005
3.511796e+003,2.955981e-004
3.513724e+003,3.775395e-004
3.515653e+003,2.325960e-004
3.517581e+003,1.875088e-004
3.519510e+003,1.211353e-004
3.521438e+003,5.564839e-005
3.523367e+003,-3.043935e-005
3.525295e+003,-1.408719e-004
3.527224e+003,-1.168512e-004
3.529152e+003,-1.855977e-004
3.531081e+003,-2.437718e-004
3.533009e+003,-2.704114e-004
3.534938e+003,-1.970753e-004
3.536866e+003,-1.061633e-004
3.538795e+003,-1.728237e-004
3.540723e+003,-1.335070e-004
3.542652e+003,-1.329221e-004
3.544580e+003,-2.745353e-004
3.546509e+003,-4.070327e-004
3.548437e+003,-5.181506e-004
3.550366e+003,-4.860237e-004
3.552294e+003,-2.809279e-004
3.554223e+003,-2.732091e-004
3.556151e+003,-5.801469e-004
3.558080e+003,-6.462261e-004
3.560008e+003,-4.806034e-004
3.561937e+003,-3.380626e-004
3.563865e+003,-4.361235e-004
3.565794e+003,-7.323772e-004
3.567722e+003,-6.854869e-004
3.569651e+003,-6.403625e-004
3.571579e+003,-7.611699e-004
3.573508e+003,-6.963052e-004
3.575436e+003,-5.343631e-004
3.577365e+003,-5.059056e-004
3.579293e+003,-4.626140e-004
3.581222e+003,-4.905015e-004
3.583150e+003,-4.811548e-004
3.585079e+003,-5.089603e-004
3.587007e+003,-6.112866e-004
3.588936e+003,-5.277060e-004
3.590864e+003,-2.466999e-004
3.592793e+003,-3.203750e-006
3.594721e+003,1.472645e-004
3.596650e+003,3.797114e-004
3.598578e+003,8.824430e-004
3.600507e+003,1.357071e-003
3.602435e+003,1.356825e-003
3.604364e+003,1.307074e-003
3.606292e+003,1.064263e-003
3.608221e+003,8.958653e-004
3.610149e+003,8.139610e-004
3.612078e+003,5.499981e-004
3.614006e+003,3.455728e-004
3.615935e+003,1.916885e-004
3.617863e+003,-1.008958e-004
3.619792e+003,-1.674369e-004
3.621720e+003,6.284192e-005
3.623649e+003,1.015514e-004
3.625577e+003,1.539402e-004
3.627506e+003,1.094975e-004
3.629434e+003,-4.913658e-005
3.631363e+003,-1.426786e-006
3.633291e+003,-5.254894e-005
3.635220e+003,5.088747e-005
3.637148e+003,7.123128e-005
3.639077e+003,1.639985e-004
3.641005e+003,4.264563e-004
3.642934e+003,4.182570e-004
3.644862e+003,3.192350e-004
3.646791e+003,5.805865e-005
3.648719e+003,-4.223064e-004
3.650648e+003,-4.725419e-004
3.652576e+003,-3.132969e-004
3.654505e+003,-2.892353e-004
3.656433e+003,-2.907850e-004
3.658362e+003,-2.106503e-004
3.660290e+003,-1.830235e-004
3.662219e+003,-3.554113e-004
3.664147e+003,-5.576424e-004
3.666076e+003,-5.902797e-004
3.668004e+003,-5.283765e-004
3.669933e+003,-6.316565e-004
3.671861e+003,-7.181317e-004
3.673790e+003,-1.098119e-003
3.675718e+003,-1.197606e-003
3.677647e+003,-6.023198e-004
3.679575e+003,-5.566888e-004
3.681504e+003,-5.874820e-004
3.683432e+003,-4.737824e-004
3.685361e+003,-4.192702e-004
3.687289e+003,-6.601810e-004
3.689218e+003,-7.854588e-004
3.691146e+003,-5.447082e-004
3.693075e+003,-3.240742e-004
3.695003e+003,-2.042279e-004
3.696932e+003,-2.329759e-004
3.698860e+003,-2.781712e-004
3.700789e+003,-2.624691e-004
3.702717e+003,-3.529042e-004
3.704646e+003,-4.199557e-004
3.706574e+003,-5.546473e-004
3.708503e+003,-7.791705e-004
3.710431e+003,-8.148663e-004
3.712360e+003,-5.000420e-004
3.714288e+003,-9.911135e-005
3.716217e+003,-4.534423e-005
3.718145e+003,-2.882928e-004
3.720074e+003,-5.295649e-004
3.722002e+003,-6.151944e-004
3.723931e+003,-5.324557e-004
3.725859e+003,-2.878904e-004
3.727788e+003,-2.579428e-004
3.729716e+003,-2.924353e-004
3.731645e+003,-5.238540e-004
3.733573e+003,-9.443313e-004
3.735502e+003,-1.043502e-003
3.737430e+003,-5.740076e-004
3.739359e+003,-4.223548e-004
3.741287e+003,-3.959350e-004
3.743216e+003,-6.026253e-004
3.745144e+003,-3.601387e-004
3.747073e+003,-3.152341e-004
3.749001e+003,-3.324226e-004
3.750930e+003,-5.632266e-005
3.752858e+003,-5.304441e-005
3.754787e+003,3.425032e-005
3.756715e+003,3.350526e-005
3.758644e+003,-8.878857e-005
3.760572e+003,4.169717e-005
3.762501e+003,1.142919e-004
3.764429e+003,5.041808e-005
3.766358e+003,1.409613e-004
3.768286e+003,2.275221e-004
3.770215e+003,1.433901e-004
3.772143e+003,2.103411e-004
3.774072e+003,4.621446e-004
3.776000e+003,5.951449e-004
3.777929e+003,5.618744e-004
3.779857e+003,4.753731e-004
3.781786e+003,4.712380e-004
3.783714e+003,4.153959e-004
3.785643e+003,5.139187e-004
3.787571e+003,6.282143e-004
3.789500e+003,5.374029e-004
3.791428e+003,5.708225e-004
3.793357e+003,7.033348e-004
3.795285e+003,6.647967e-004
3.797214e+003,5.497225e-004
3.799142e+003,4.366077e-004
3.801071e+003,3.662966e-004
3.802999e+003,6.468147e-004
3.804927e+003,7.859617e-004
3.806856e+003,8.931085e-004
3.808785e+003,1.027625e-003
3.810713e+003,1.033928e-003
3.812642e+003,8.770227e-004
3.814570e+003,8.960590e-004
3.816499e+003,1.112282e-003
3.818427e+003,1.238715e-003
3.820355e+003,1.010422e-003
3.822284e+003,8.396097e-004
3.824213e+003,1.066741e-003
3.826141e+003,1.138490e-003
3.828070e+003,1.106285e-003
3.829998e+003,1.095358e-003
3.831927e+003,1.239117e-003
3.833855e+003,1.408536e-003
3.835783e+003,1.414523e-003
3.837712e+003,1.385618e-003
3.839641e+003,1.430940e-003
3.841569e+003,1.354825e-003
3.843498e+003,1.389347e-003
3.845426e+003,1.480669e-003
3.847354e+003,1.388658e-003
3.849283e+003,1.278009e-003
3.851211e+003,1.475777e-003
3.853140e+003,1.612037e-003
3.855069e+003,1.398232e-003
3.856997e+003,1.452129e-003
3.858926e+003,1.374215e-003
3.860854e+003,1.416750e-003
3.862782e+003,1.489874e-003
3.864711e+003,1.564503e-003
3.866640e+003,1.658108e-003
3.868568e+003,1.589403e-003
3.870497e+003,1.463234e-003
3.872425e+003,1.540359e-003
3.874354e+003,1.624662e-003
3.876282e+003,1.583427e-003
3.878210e+003,1.582939e-003
3.880139e+003,1.763783e-003
3.882068e+003,1.791317e-003
3.883996e+003,1.688763e-003
3.885925e+003,1.691751e-003
3.887853e+003,1.675740e-003
3.889781e+003,1.573637e-003
3.891710e+003,1.662683e-003
3.893638e+003,1.608700e-003
3.895567e+003,1.593530e-003
3.897496e+003,1.655061e-003
3.899424e+003,1.682643e-003
3.901353e+003,1.622990e-003
3.903281e+003,1.674287e-003
3.905209e+003,1.735188e-003
3.907138e+003,1.764577e-003
3.909066e+003,1.811642e-003
3.910995e+003,1.963895e-003
3.912924e+003,2.046444e-003
3.914852e+003,2.039097e-003
3.916781e+003,2.039313e-003
3.918709e+003,1.922611e-003
3.920637e+003,1.816973e-003
3.922566e+003,1.929190e-003
3.924494e+003,2.000760e-003
3.926423e+003,1.832612e-003
3.928352e+003,1.775119e-003
3.930280e+003,1.822956e-003
3.932208e+003,1.734696e-003
3.934137e+003,1.629792e-003
3.936065e+003,1.674552e-003
3.937994e+003,1.660798e-003
3.939922e+003,1.442045e-003
3.941851e+003,1.397133e-003
3.943780e+003,1.553472e-003
3.945708e+003,1.583688e-003
3.947636e+003,1.545191e-003
3.949565e+003,1.617391e-003
3.951493e+003,1.603421e-003
3.953422e+003,1.622036e-003
3.955351e+003,1.747131e-003
3.957279e+003,1.737900e-003
3.959208e+003,1.735903e-003
3.961136e+003,1.790654e-003
3.963064e+003,1.760833e-003
3.964993e+003,1.759112e-003
3.966921e+003,1.742721e-003
3.968850e+003,1.792178e-003
3.970779e+003,1.887649e-003
3.972707e+003,1.889620e-003
3.974635e+003,2.027467e-003
3.976564e+003,2.064198e-003
3.978492e+003,2.048563e-003
3.980421e+003,2.084255e-003
3.982349e+003,2.083339e-003
3.984278e+003,1.966227e-003
3.986207e+003,1.927767e-003
3.988135e+003,1.869231e-003
3.990063e+003,1.867790e-003
3.991992e+003,2.004046e-003
3.993920e+003,2.012428e-003
3.995849e+003,1.891550e-003
3.997777e+003,1.871515e-003
3.999706e+003,1.868706e-003
4.001635e+003,0.000000e+000
