3.991992e+002,0.000000e+000
4.011277e+002,0.000000e+000
4.030562e+002,0.000000e+000
4.049846e+002,0.000000e+000
4.069131e+002,0.000000e+000
4.088416e+002,0.000000e+000
4.107701e+002,0.000000e+000
4.126986e+002,0.000000e+000
4.146271e+002,0.000000e+000
4.165556e+002,0.000000e+000
4.184841e+002,0.000000e+000
4.204126e+002,0.000000e+000
4.223411e+002,0.000000e+000
4.242697e+002,0.000000e+000
4.261982e+002,0.000000e+000
4.281266e+002,0.000000e+000
4.300551e+002,0.000000e+000
4.319836e+002,0.000000e+000
4.339121e+002,0.000000e+000
4.358406e+002,0.000000e+000
4.377691e+002,0.000000e+000
4.396976e+002,0.000000e+000
4.416261e+002,0.000000e+000
4.435546e+002,0.000000e+000
4.454831e+002,0.000000e+000
4.474116e+002,0.000000e+000
4.493401e+002,0.000000e+000
4.512686e+002,0.000000e+000
4.531971e+002,0.000000e+000
4.551256e+002,0.000000e+000
4.570541e+002,0.000000e+000
4.589826e+002,0.000000e+000
4.609111e+002,0.000000e+000
4.628396e+002,0.000000e+000
4.647681e+002,0.000000e+000
4.666966e+002,0.000000e+000
4.686251e+002,0.000000e+000
4.705536e+002,0.000000e+000
4.724821e+002,0.000000e+000
4.744106e+002,0.000000e+000
4.763391e+002,0.000000e+000
4.782676e+002,0.000000e+000
4.801961e+002,0.000000e+000
4.821246e+002,0.000000e+000
4.840531e+002,0.000000e+000
4.859816e+002,0.000000e+000
4.879101e+002,0.000000e+000
4.898386e+002,0.000000e+000
4.917671e+002,0.000000e+000
4.936956e+002,0.000000e+000
4.956241e+002,0.000000e+000
4.975526e+002,0.000000e+000
4.994811e+002,0.000000e+000
5.014096e+002,0.000000e+000
5.033381e+002,0.000000e+000
5.052666e+002,0.000000e+000
5.071951e+002,0.000000e+000
5.091236e+002,0.000000e+000
5.110521e+002,0.000000e+000
5.129806e+002,0.000000e+000
5.149091e+002,0.000000e+000
5.168376e+002,0.000000e+000
5.187661e+002,0.000000e+000
5.206946e+002,0.000000e+000
5.226230e+002,0.000000e+000
5.245516e+002,-7.034540e-004
5.264800e+002,-7.330272e-004
5.284086e+002,-7.828809e-004
5.303370e+002,-7.690871e-004
5.322656e+002,-6.011138e-004
5.341940e+002,-7.009134e-004
5.361226e+002,-7.241331e-004
5.380510e+002,-6.713942e-004
5.399796e+002,-5.285274e-004
5.419081e+002,-4.868917e-004
5.438365e+002,-5.945051e-004
5.457650e+002,-7.085185e-004
5.476935e+002,-6.698323e-004
5.496221e+002,-6.132228e-004
5.515505e+002,-4.906012e-004
5.534790e+002,-4.543839e-004
5.554075e+002,-4.800512e-004
5.573361e+002,-4.936270e-004
5.592645e+002,-3.768308e-004
5.611931e+002,-3.977939e-004
5.631215e+002,-3.728559e-004
5.650500e+002,-3.740741e-004
5.669785e+002,-2.866648e-004
5.689070e+002,-1.411457e-004
5.708355e+002,-1.001451e-005
5.727640e+002,1.766058e-004
5.746925e+002,2.858834e-004
5.766210e+002,2.611279e-004
5.785495e+002,2.836855e-004
5.804780e+002,3.832392e-004
5.824065e+002,3.440101e-004
5.843350e+002,3.544539e-004
5.862635e+002,4.608091e-004
5.881920e+002,4.828433e-004
5.901205e+002,5.645268e-004
5.920490e+002,4.996127e-004
5.939775e+002,4.997011e-004
5.959060e+002,5.500969e-004
5.978345e+002,5.448395e-004
5.997630e+002,4.753349e-004
6.016915e+002,6.272821e-004
6.036200e+002,6.233389e-004
6.055485e+002,5.414151e-004
6.074770e+002,4.952913e-004
6.094055e+002,6.220397e-004
6.113340e+002,6.356053e-004
6.132625e+002,5.606720e-004
6.151910e+002,3.690012e-004
6.171195e+002,2.296902e-004
6.190480e+002,1.677210e-004
6.209765e+002,2.615061e-004
6.229050e+002,3.432399e-004
6.248335e+002,4.119836e-004
6.267620e+002,4.281448e-004
6.286905e+002,4.535802e-004
6.306190e+002,4.421193e-004
6.325475e+002,5.634893e-004
6.344760e+002,5.853279e-004
6.364045e+002,6.726291e-004
6.383330e+002,8.471590e-004
6.402615e+002,9.322241e-004
6.421899e+002,9.288033e-004
6.441185e+002,1.054212e-003
6.460470e+002,1.154232e-003
6.479755e+002,1.269854e-003
6.499039e+002,1.280015e-003
6.518325e+002,1.308814e-003
6.537610e+002,1.321729e-003
6.556895e+002,1.464694e-003
6.576179e+002,1.622400e-003
6.595464e+002,1.875775e-003
6.614750e+002,2.015324e-003
6.634034e+002,2.141484e-003
6.653319e+002,2.196738e-003
6.672604e+002,2.356938e-003
6.691890e+002,2.515855e-003
6.711174e+002,2.786531e-003
6.730460e+002,2.949609e-003
6.749745e+002,3.254382e-003
6.769030e+002,3.515121e-003
6.788314e+002,3.892742e-003
6.807599e+002,4.273047e-003
6.826885e+002,4.625343e-003
6.846169e+002,4.797691e-003
6.865454e+002,5.220128e-003
6.884739e+002,5.783099e-003
6.904025e+002,6.259758e-003
6.923309e+002,6.654987e-003
6.942594e+002,7.351697e-003
6.961879e+002,8.127023e-003
6.981165e+002,9.059007e-003
7.000449e+002,9.892878e-003
7.019734e+002,1.099496e-002
7.039019e+002,1.240830e-002
7.058304e+002,1.461772e-002
7.077589e+002,1.756679e-002
7.096874e+002,2.183937e-002
7.116159e+002,2.822802e-002
7.135444e+002,3.974196e-002
7.154729e+002,6.066317e-002
7.174014e+002,9.217080e-002
7.193299e+002,1.068548e-001
7.212584e+002,8.193671e-002
7.231869e+002,5.686826e-002
7.251154e+002,4.760084e-002
7.270439e+002,5.033682e-002
7.289724e+002,6.235641e-002
7.309009e+002,5.922955e-002
7.328294e+002,3.618893e-002
7.347579e+002,2.071598e-002
7.366864e+002,1.486671e-002
7.386149e+002,1.217324e-002
7.405434e+002,1.043762e-002
7.424719e+002,9.301530e-003
7.444004e+002,8.310133e-003
7.463289e+002,7.539587e-003
7.482574e+002,6.832544e-003
7.501859e+002,6.301617e-003
7.521144e+002,5.805474e-003
7.540428e+002,5.463245e-003
7.559714e+002,5.121436e-003
7.578999e+002,4.824455e-003
7.598284e+002,4.521802e-003
7.617568e+002,4.294146e-003
7.636854e+002,4.108892e-003
7.656139e+002,3.947572e-003
7.675424e+002,3.700516e-003
7.694709e+002,3.504136e-003
7.713994e+002,3.277278e-003
7.733279e+002,3.063992e-003
7.752563e+002,2.871020e-003
7.771849e+002,2.650413e-003
7.791134e+002,2.475969e-003
7.810419e+002,2.451261e-003
7.829703e+002,2.405060e-003
7.848989e+002,2.374170e-003
7.868274e+002,2.336407e-003
7.887559e+002,2.301556e-003
7.906843e+002,2.292636e-003
7.926129e+002,2.274906e-003
7.945414e+002,2.235740e-003
7.964698e+002,2.212657e-003
7.983983e+002,2.267646e-003
8.003268e+002,2.328346e-003
8.022554e+002,2.348425e-003
8.041838e+002,2.366493e-003
8.061123e+002,2.336331e-003
8.080408e+002,2.253672e-003
8.099694e+002,2.259882e-003
8.118978e+002,2.274953e-003
8.138263e+002,2.221555e-003
8.157548e+002,2.185089e-003
8.176833e+002,2.162653e-003
8.196118e+002,2.137844e-003
8.215403e+002,2.147067e-003
8.234689e+002,2.055962e-003
8.253973e+002,1.983020e-003
8.273258e+002,2.075248e-003
8.292543e+002,2.118175e-003
8.311829e+002,2.100060e-003
8.331113e+002,2.170314e-003
8.350398e+002,2.239479e-003
8.369683e+002,2.290657e-003
8.388969e+002,2.440976e-003
8.408253e+002,2.520755e-003
8.427538e+002,2.548765e-003
8.446823e+002,2.691686e-003
8.466108e+002,2.805193e-003
8.485393e+002,2.878781e-003
8.504678e+002,2.943207e-003
8.523963e+002,3.012960e-003
8.543248e+002,3.006701e-003
8.562533e+002,2.977041e-003
8.581818e+002,2.987803e-003
8.601103e+002,2.955803e-003
8.620388e+002,2.922731e-003
8.639673e+002,3.042008e-003
8.658958e+002,3.095828e-003
8.678243e+002,3.076162e-003
8.697528e+002,3.074690e-003
8.716813e+002,3.164853e-003
8.736098e+002,3.212900e-003
8.755383e+002,3.271003e-003
8.774668e+002,3.255056e-003
8.793953e+002,3.194546e-003
8.813238e+002,3.176467e-003
8.832523e+002,3.216190e-003
8.851808e+002,3.304132e-003
8.871093e+002,3.491404e-003
8.890378e+002,3.571965e-003
8.909663e+002,3.562002e-003
8.928948e+002,3.420297e-003
8.948232e+002,3.297893e-003
8.967518e+002,3.241658e-003
8.986803e+002,3.189815e-003
9.006088e+002,3.174054e-003
9.025372e+002,3.346558e-003
9.044658e+002,3.627899e-003
9.063943e+002,4.010300e-003
9.083228e+002,4.244744e-003
9.102512e+002,4.184986e-003
9.121797e+002,3.847857e-003
9.141083e+002,3.604703e-003
9.160367e+002,3.383272e-003
9.179653e+002,3.221190e-003
9.198937e+002,3.187409e-003
9.218223e+002,3.177887e-003
9.237507e+002,3.121670e-003
9.256793e+002,3.101331e-003
9.276077e+002,3.131170e-003
9.295363e+002,3.204402e-003
9.314647e+002,3.308368e-003
9.333932e+002,3.420999e-003
9.353217e+002,3.559011e-003
9.372502e+002,3.714615e-003
9.391787e+002,3.820500e-003
9.411072e+002,3.990613e-003
9.430358e+002,4.143551e-003
9.449642e+002,4.326067e-003
9.468928e+002,4.488179e-003
9.488212e+002,4.696421e-003
9.507498e+002,4.883399e-003
9.526782e+002,5.056182e-003
9.546068e+002,5.269744e-003
9.565352e+002,5.572097e-003
9.584637e+002,5.792635e-003
9.603922e+002,6.063176e-003
9.623207e+002,6.284222e-003
9.642492e+002,6.434204e-003
9.661777e+002,6.496850e-003
9.681062e+002,6.575821e-003
9.700347e+002,6.535105e-003
9.719632e+002,6.486938e-003
9.738917e+002,6.434900e-003
9.758202e+002,6.354565e-003
9.777487e+002,6.335914e-003
9.796772e+002,6.469516e-003
9.816057e+002,6.579527e-003
9.835342e+002,6.744189e-003
9.854627e+002,6.902508e-003
9.873912e+002,7.066194e-003
9.893197e+002,7.231592e-003
9.912482e+002,7.428546e-003
9.931767e+002,7.447455e-003
9.951052e+002,7.499801e-003
9.970337e+002,7.629531e-003
9.989622e+002,7.800403e-003
1.000891e+003,7.946245e-003
1.002819e+003,8.148827e-003
1.004748e+003,8.358451e-003
1.006676e+003,8.592362e-003
1.008605e+003,8.860296e-003
1.010533e+003,9.210907e-003
1.012462e+003,9.513097e-003
1.014390e+003,9.853808e-003
1.016319e+003,1.018419e-002
1.018247e+003,1.056670e-002
1.020176e+003,1.085982e-002
1.022104e+003,1.115891e-002
1.024033e+003,1.146044e-002
1.025961e+003,1.180922e-002
1.027890e+003,1.211741e-002
1.029818e+003,1.232731e-002
1.031747e+003,1.239956e-002
1.033675e+003,1.248081e-002
1.035604e+003,1.250399e-002
1.037532e+003,1.247594e-002
1.039461e+003,1.242424e-002
1.041389e+003,1.244987e-002
1.043318e+003,1.251773e-002
1.045246e+003,1.271377e-002
1.047175e+003,1.294991e-002
1.049103e+003,1.332495e-002
1.051032e+003,1.371418e-002
1.052960e+003,1.404058e-002
1.054889e+003,1.432723e-002
1.056817e+003,1.467761e-002
1.058746e+003,1.500131e-002
1.060674e+003,1.531955e-002
1.062603e+003,1.554844e-002
1.064531e+003,1.573904e-002
1.066460e+003,1.585428e-002
1.068388e+003,1.601498e-002
1.070317e+003,1.627246e-002
1.072245e+003,1.678654e-002
1.074174e+003,1.762760e-002
1.076102e+003,1.876028e-002
1.078031e+003,1.997966e-002
1.079959e+003,2.126357e-002
1.081888e+003,2.238408e-002
1.083816e+003,2.331232e-002
1.085745e+003,2.406182e-002
1.087673e+003,2.492563e-002
1.089602e+003,2.590904e-002
1.091530e+003,2.688416e-002
1.093459e+003,2.761393e-002
1.095387e+003,2.804426e-002
1.097316e+003,2.804817e-002
1.099244e+003,2.772408e-002
1.101173e+003,2.712099e-002
1.103101e+003,2.644165e-002
1.105030e+003,2.574715e-002
1.106958e+003,2.534346e-002
1.108887e+003,2.541827e-002
1.110815e+003,2.601325e-002
1.112744e+003,2.693887e-002
1.114672e+003,2.804356e-002
1.116601e+003,2.892804e-002
1.118529e+003,2.930262e-002
1.120458e+003,2.890215e-002
1.122386e+003,2.788731e-002
1.124315e+003,2.650975e-002
1.126243e+003,2.540381e-002
1.128172e+003,2.493862e-002
1.130100e+003,2.549620e-002
1.132029e+003,2.703853e-002
1.133957e+003,2.944053e-002
1.135885e+003,3.227167e-002
1.137814e+003,3.524801e-002
1.139743e+003,3.788828e-002
1.141671e+003,3.996272e-002
1.143600e+003,4.144827e-002
1.145528e+003,4.263536e-002
1.147457e+003,4.375978e-002
1.149385e+003,4.498285e-002
1.151314e+003,4.642017e-002
1.153242e+003,4.802177e-002
1.155171e+003,4.954263e-002
1.157099e+003,5.098991e-002
1.159028e+003,5.217823e-002
1.160956e+003,5.299070e-002
1.162885e+003,5.324861e-002
1.164813e+003,5.299383e-002
1.166742e+003,5.222028e-002
1.168670e+003,5.105010e-002
1.170599e+003,4.955257e-002
1.172527e+003,4.793702e-002
1.174456e+003,4.626345e-002
1.176384e+003,4.454149e-002
1.178313e+003,4.270177e-002
1.180241e+003,4.089987e-002
1.182170e+003,3.924402e-002
1.184098e+003,3.778637e-002
1.186027e+003,3.640718e-002
1.187955e+003,3.513430e-002
1.189884e+003,3.392119e-002
1.191812e+003,3.276673e-002
1.193740e+003,3.156725e-002
1.195669e+003,3.041788e-002
1.197598e+003,2.935261e-002
1.199526e+003,2.851228e-002
1.201455e+003,2.775565e-002
1.203383e+003,2.718278e-002
1.205312e+003,2.679755e-002
1.207240e+003,2.663332e-002
1.209168e+003,2.650989e-002
1.211097e+003,2.639548e-002
1.213026e+003,2.629371e-002
1.214954e+003,2.630697e-002
1.216883e+003,2.639247e-002
1.218811e+003,2.667371e-002
1.220740e+003,2.707692e-002
1.222668e+003,2.761082e-002
1.224596e+003,2.822860e-002
1.226525e+003,2.889983e-002
1.228453e+003,2.947746e-002
1.230382e+003,3.007757e-002
1.232311e+003,3.062040e-002
1.234239e+003,3.110271e-002
1.236167e+003,3.143589e-002
1.238096e+003,3.162148e-002
1.240025e+003,3.158005e-002
1.241953e+003,3.128561e-002
1.243882e+003,3.063035e-002
1.245810e+003,2.974093e-002
1.247739e+003,2.866449e-002
1.249667e+003,2.762627e-002
1.251595e+003,2.671792e-002
1.253524e+003,2.612381e-002
1.255453e+003,2.578412e-002
1.257381e+003,2.567410e-002
1.259310e+003,2.550741e-002
1.261238e+003,2.523074e-002
1.263167e+003,2.481034e-002
1.265095e+003,2.438104e-002
1.267023e+003,2.391468e-002
1.268952e+003,2.355336e-002
1.270880e+003,2.320382e-002
1.272809e+003,2.303315e-002
1.274738e+003,2.298132e-002
1.276666e+003,2.306567e-002
1.278594e+003,2.302387e-002
1.280523e+003,2.282194e-002
1.282451e+003,2.229770e-002
1.284380e+003,2.168972e-002
1.286308e+003,2.107851e-002
1.288237e+003,2.071450e-002
1.290166e+003,2.059605e-002
1.292094e+003,2.076077e-002
1.294022e+003,2.100443e-002
1.295951e+003,2.126699e-002
1.297879e+003,2.144605e-002
1.299808e+003,2.167122e-002
1.301736e+003,2.169476e-002
1.303665e+003,2.158665e-002
1.305594e+003,2.127179e-002
1.307522e+003,2.100775e-002
1.309450e+003,2.072731e-002
1.311379e+003,2.046897e-002
1.313307e+003,2.008202e-002
1.315236e+003,1.976320e-002
1.317164e+003,1.940650e-002
1.319093e+003,1.901233e-002
1.321021e+003,1.840994e-002
1.322950e+003,1.783001e-002
1.324878e+003,1.721114e-002
1.326807e+003,1.670435e-002
1.328735e+003,1.633872e-002
1.330664e+003,1.623171e-002
1.332592e+003,1.630194e-002
1.334521e+003,1.676877e-002
1.336449e+003,1.746974e-002
1.338378e+003,1.850825e-002
1.340306e+003,1.955868e-002
1.342235e+003,2.026757e-002
1.344163e+003,2.081976e-002
1.346092e+003,2.161961e-002
1.348021e+003,2.244131e-002
1.349949e+003,2.321845e-002
1.351877e+003,2.366319e-002
1.353806e+003,2.375892e-002
1.355734e+003,2.357416e-002
1.357663e+003,2.369198e-002
1.359591e+003,2.408108e-002
1.361520e+003,2.484502e-002
1.363448e+003,2.595318e-002
1.365377e+003,2.697668e-002
1.367305e+003,2.769232e-002
1.369234e+003,2.774889e-002
1.371162e+003,2.708981e-002
1.373091e+003,2.673357e-002
1.375019e+003,2.767645e-002
1.376948e+003,2.874152e-002
1.378876e+003,2.713114e-002
1.380805e+003,2.327375e-002
1.382733e+003,1.977674e-002
1.384662e+003,1.768614e-002
1.386590e+003,1.617230e-002
1.388519e+003,1.499787e-002
1.390447e+003,1.408907e-002
1.392376e+003,1.354709e-002
1.394304e+003,1.323788e-002
1.396233e+003,1.338991e-002
1.398161e+003,1.363008e-002
1.400090e+003,1.408409e-002
1.402018e+003,1.411306e-002
1.403947e+003,1.413807e-002
1.405875e+003,1.371278e-002
1.407804e+003,1.367447e-002
1.409732e+003,1.396435e-002
1.411661e+003,1.504495e-002
1.413589e+003,1.620598e-002
1.415518e+003,1.744508e-002
1.417446e+003,1.809800e-002
1.419375e+003,1.830994e-002
1.421303e+003,1.790071e-002
1.423232e+003,1.818633e-002
1.425160e+003,1.905583e-002
1.427089e+003,2.103634e-002
1.429017e+003,2.384275e-002
1.430946e+003,2.801860e-002
1.432874e+003,3.152850e-002
1.434803e+003,3.476063e-002
1.436731e+003,3.856221e-002
1.438660e+003,4.169597e-002
1.440588e+003,4.341308e-002
1.442517e+003,4.563686e-002
1.444445e+003,4.756859e-002
1.446374e+003,5.016063e-002
1.448302e+003,5.406552e-002
1.450231e+003,5.977617e-002
1.452159e+003,6.833586e-002
1.454088e+003,7.890475e-002
1.456016e+003,8.952001e-002
1.457945e+003,1.122165e-001
1.459873e+003,1.502158e-001
1.461802e+003,1.844723e-001
1.463730e+003,1.801140e-001
1.465659e+003,1.426437e-001
1.467587e+003,1.279439e-001
1.469516e+003,1.182919e-001
1.471444e+003,1.223110e-001
1.473373e+003,1.039740e-001
1.475301e+003,5.930182e-002
1.477230e+003,2.883471e-002
1.479158e+003,1.973230e-002
1.481087e+003,1.508081e-002
1.483015e+003,1.270930e-002
1.484944e+003,1.095179e-002
1.486872e+003,1.050477e-002
1.488801e+003,9.556164e-003
1.490729e+003,9.333891e-003
1.492658e+003,8.357950e-003
1.494586e+003,8.320797e-003
1.496515e+003,7.911772e-003
1.498443e+003,8.248324e-003
1.500372e+003,7.702155e-003
1.502300e+003,7.592728e-003
1.504229e+003,7.067331e-003
1.506157e+003,7.498875e-003
1.508086e+003,7.639676e-003
1.510014e+003,8.117300e-003
1.511943e+003,7.888978e-003
1.513871e+003,8.163854e-003
1.515800e+003,8.109521e-003
1.517728e+003,8.440055e-003
1.519657e+003,8.326657e-003
1.521585e+003,8.791481e-003
1.523514e+003,8.471848e-003
1.525442e+003,8.564152e-003
1.527371e+003,8.567035e-003
1.529299e+003,9.053024e-003
1.531228e+003,9.057527e-003
1.533156e+003,9.513903e-003
1.535085e+003,9.512977e-003
1.537013e+003,9.713305e-003
1.538942e+003,9.754624e-003
1.540870e+003,1.065711e-002
1.542799e+003,1.009286e-002
1.544727e+003,1.016075e-002
1.546656e+003,9.754596e-003
1.548584e+003,9.905379e-003
1.550513e+003,9.364139e-003
1.552441e+003,9.084914e-003
1.554370e+003,8.455186e-003
1.556298e+003,8.319220e-003
1.558227e+003,8.103972e-003
1.560155e+003,7.471155e-003
1.562084e+003,6.771212e-003
1.564012e+003,6.540019e-003
1.565941e+003,6.067254e-003
1.567869e+003,6.040091e-003
1.569798e+003,5.896503e-003
1.571726e+003,5.793909e-003
1.573655e+003,5.488550e-003
1.575583e+003,5.574929e-003
1.577512e+003,5.539333e-003
1.579440e+003,5.476758e-003
1.581369e+003,5.148207e-003
1.583297e+003,5.116471e-003
1.585226e+003,4.999576e-003
1.587154e+003,5.067935e-003
1.589083e+003,5.061479e-003
1.591011e+003,5.096938e-003
1.592940e+003,5.020136e-003
1.594868e+003,5.196150e-003
1.596797e+003,5.221495e-003
1.598725e+003,5.280482e-003
1.600654e+003,5.269472e-003
1.602582e+003,5.377218e-003
1.604511e+003,5.471393e-003
1.606439e+003,5.824346e-003
1.608368e+003,6.006857e-003
1.610296e+003,6.217651e-003
1.612225e+003,6.322984e-003
1.614153e+003,6.631587e-003
1.616082e+003,7.402422e-003
1.618010e+003,7.972576e-003
1.619939e+003,7.916680e-003
1.621867e+003,8.317694e-003
1.623796e+003,9.040663e-003
1.625724e+003,9.666914e-003
1.627653e+003,1.004311e-002
1.629581e+003,1.037333e-002
1.631510e+003,1.054023e-002
1.633438e+003,1.089541e-002
1.635367e+003,1.163776e-002
1.637295e+003,1.249361e-002
1.639224e+003,1.273411e-002
1.641152e+003,1.304596e-002
1.643081e+003,1.353434e-002
1.645009e+003,1.411299e-002
1.646938e+003,1.497614e-002
1.648866e+003,1.546551e-002
1.650795e+003,1.557207e-002
1.652723e+003,1.610880e-002
1.654652e+003,1.637975e-002
1.656580e+003,1.594338e-002
1.658509e+003,1.523836e-002
1.660437e+003,1.471023e-002
1.662366e+003,1.403362e-002
1.664294e+003,1.343908e-002
1.666223e+003,1.294905e-002
1.668151e+003,1.258545e-002
1.670080e+003,1.201831e-002
1.672008e+003,1.156764e-002
1.673937e+003,1.143498e-002
1.675865e+003,1.116540e-002
1.677794e+003,1.067168e-002
1.679722e+003,1.028502e-002
1.681651e+003,9.745145e-003
1.683579e+003,9.706490e-003
1.685508e+003,9.515546e-003
1.687436e+003,9.405555e-003
1.689365e+003,8.986196e-003
1.691293e+003,8.713702e-003
1.693222e+003,8.523248e-003
1.695150e+003,8.757478e-003
1.697079e+003,9.037523e-003
1.699007e+003,9.407697e-003
1.700936e+003,9.479947e-003
1.702864e+003,9.956244e-003
1.704793e+003,1.033633e-002
1.706721e+003,1.102184e-002
1.708650e+003,1.166949e-002
1.710578e+003,1.238929e-002
1.712507e+003,1.315029e-002
1.714435e+003,1.412074e-002
1.716364e+003,1.549364e-002
1.718292e+003,1.798050e-002
1.720221e+003,1.979203e-002
1.722149e+003,2.172565e-002
1.724078e+003,2.482178e-002
1.726006e+003,2.841009e-002
1.727935e+003,3.287107e-002
1.729863e+003,3.962479e-002
1.731792e+003,4.663482e-002
1.733720e+003,5.924941e-002
1.735649e+003,7.668050e-002
1.737577e+003,8.656065e-002
1.739506e+003,1.027450e-001
1.741434e+003,1.171783e-001
1.743363e+003,1.263130e-001
1.745291e+003,1.300091e-001
1.747220e+003,1.275919e-001
1.749148e+003,1.172964e-001
1.751077e+003,1.007545e-001
1.753005e+003,8.239836e-002
1.754934e+003,6.852891e-002
1.756862e+003,5.164681e-002
1.758791e+003,3.846208e-002
1.760719e+003,2.976632e-002
1.762648e+003,2.137264e-002
1.764576e+003,1.633591e-002
1.766505e+003,1.304552e-002
1.768433e+003,1.024021e-002
1.770362e+003,8.848695e-003
1.772290e+003,7.619003e-003
1.774219e+003,6.303690e-003
1.776147e+003,5.199498e-003
1.778076e+003,4.394270e-003
1.780004e+003,4.118457e-003
1.781933e+003,3.714098e-003
1.783861e+003,3.459658e-003
1.785790e+003,3.001276e-003
1.787718e+003,2.658019e-003
1.789646e+003,2.405973e-003
1.791575e+003,2.421821e-003
1.793504e+003,2.154462e-003
1.795432e+003,1.895804e-003
1.797361e+003,1.570079e-003
1.799289e+003,1.535926e-003
1.801218e+003,1.430150e-003
1.803146e+003,1.295770e-003
1.805074e+003,1.128247e-003
1.807003e+003,1.039639e-003
1.808932e+003,7.788837e-004
1.810860e+003,6.316174e-004
1.812789e+003,4.567876e-004
1.814717e+003,2.923012e-004
1.816646e+003,-1.900084e-005
1.818574e+003,1.738090e-004
1.820502e+003,2.601538e-004
1.822431e+003,3.558081e-004
1.824360e+003,2.470426e-004
1.826288e+003,-2.473034e-005
1.828217e+003,-1.253802e-004
1.830145e+003,8.257106e-006
1.832073e+003,-2.594478e-004
1.834002e+003,-3.850646e-004
1.835931e+003,-5.116295e-004
1.837859e+003,-4.909988e-004
1.839788e+003,-5.929340e-004
1.841716e+003,-4.770048e-004
1.843645e+003,-5.137566e-004
1.845573e+003,-5.225074e-004
1.847501e+003,-6.892513e-004
1.849430e+003,-6.757788e-004
1.851359e+003,-9.153876e-004
1.853287e+003,-9.886157e-004
1.855216e+003,-1.036417e-003
1.857144e+003,-9.820070e-004
1.859073e+003,-9.914674e-004
1.861001e+003,-7.662829e-004
1.862929e+003,-8.946825e-004
1.864858e+003,-6.737877e-004
1.866787e+003,-5.061924e-004
1.868715e+003,-3.776774e-004
1.870644e+003,-7.576663e-004
1.872572e+003,-7.802397e-004
1.874500e+003,-9.306930e-004
1.876429e+003,-8.320305e-004
1.878357e+003,-8.505359e-004
1.880286e+003,-6.895531e-004
1.882215e+003,-9.259395e-004
1.884143e+003,-8.799210e-004
1.886072e+003,-9.596869e-004
1.888000e+003,-4.844349e-004
1.889928e+003,-4.067719e-004
1.891857e+003,-3.841929e-004
1.893785e+003,-4.133414e-004
1.895714e+003,-2.328604e-004
1.897643e+003,-2.666358e-004
1.899571e+003,-2.528746e-004
1.901500e+003,-2.502464e-004
1.903428e+003,-2.476219e-004
1.905356e+003,-2.450086e-004
1.907285e+003,-2.424009e-004
1.909213e+003,-2.398025e-004
1.911142e+003,-2.372097e-004
1.913071e+003,-2.346225e-004
1.914999e+003,-2.320465e-004
1.916927e+003,-2.294760e-004
1.918856e+003,-2.269130e-004
1.920784e+003,-2.243575e-004
1.922713e+003,-2.218131e-004
1.924641e+003,-2.192724e-004
1.926570e+003,-2.167393e-004
1.928499e+003,-2.142154e-004
1.930427e+003,-2.116952e-004
1.932355e+003,-2.091900e-004
1.934284e+003,-2.066866e-004
1.936212e+003,-2.041887e-004
1.938141e+003,-2.017040e-004
1.940070e+003,-1.992211e-004
1.941998e+003,-1.967512e-004
1.943927e+003,-1.942851e-004
1.945855e+003,-1.918282e-004
1.947783e+003,-1.893789e-004
1.949712e+003,-1.869351e-004
1.951640e+003,-1.845006e-004
1.953569e+003,-1.820736e-004
1.955498e+003,-1.796540e-004
1.957426e+003,-1.772400e-004
1.959354e+003,-1.748353e-004
1.961283e+003,-1.724362e-004
1.963211e+003,-1.700465e-004
1.965140e+003,-1.676660e-004
1.967068e+003,-1.652893e-004
1.968997e+003,-1.629237e-004
1.970926e+003,-1.605637e-004
1.972854e+003,-1.582112e-004
1.974782e+003,-1.558661e-004
1.976711e+003,-1.535285e-004
1.978639e+003,-1.511984e-004
1.980568e+003,-1.488756e-004
1.982496e+003,-1.465604e-004
1.984425e+003,-1.442526e-004
1.986354e+003,-1.419522e-004
1.988282e+003,-1.396611e-004
1.990210e+003,-1.373757e-004
1.992139e+003,-1.350958e-004
1.994067e+003,-1.328252e-004
1.995996e+003,-1.305621e-004
1.997924e+003,-1.283083e-004
1.999853e+003,-1.260601e-004
2.001781e+003,-1.238212e-004
2.003710e+003,-1.215898e-004
2.005638e+003,-1.193639e-004
2.007567e+003,-1.171455e-004
2.009495e+003,-1.149345e-004
2.011424e+003,-1.127329e-004
2.013352e+003,-1.105350e-004
2.015281e+003,-1.083501e-004
2.017209e+003,-1.061689e-004
2.019138e+003,-1.039971e-004
2.021066e+003,-1.018289e-004
2.022995e+003,-9.967387e-005
2.024923e+003,-9.752251e-005
2.026852e+003,-9.537861e-005
2.028781e+003,-9.324402e-005
2.030709e+003,-9.111688e-005
2.032637e+003,-8.899719e-005
2.034566e+003,-8.688495e-005
2.036494e+003,-8.478016e-005
2.038423e+003,-8.268096e-005
2.040351e+003,-8.059107e-005
2.042280e+003,-7.850677e-005
2.044208e+003,-7.643178e-005
2.046137e+003,-7.436424e-005
2.048065e+003,-7.230416e-005
2.049994e+003,-7.024966e-005
2.051922e+003,-6.820634e-005
2.053851e+003,-6.616674e-005
2.055779e+003,-6.413646e-005
2.057708e+003,-6.211363e-005
2.059636e+003,-6.009825e-005
2.061565e+003,-5.809031e-005
2.063493e+003,-5.609170e-005
2.065422e+003,-5.409680e-005
2.067350e+003,-5.211309e-005
2.069279e+003,-5.013309e-005
2.071207e+003,-4.816428e-005
2.073136e+003,-4.620105e-005
2.075064e+003,-4.424527e-005
2.076993e+003,-4.229695e-005
2.078921e+003,-4.035793e-005
2.080850e+003,-3.842451e-005
2.082778e+003,-3.650039e-005
2.084707e+003,-3.457814e-005
2.086635e+003,-3.266893e-005
2.088564e+003,-3.076717e-005
2.090492e+003,-2.887100e-005
2.092421e+003,-2.698414e-005
2.094349e+003,-2.510287e-005
2.096278e+003,-2.323091e-005
2.098206e+003,-2.136268e-005
2.100135e+003,-1.950562e-005
2.102063e+003,-1.765601e-005
2.103992e+003,-1.581386e-005
2.105920e+003,-1.397729e-005
2.107849e+003,-1.215003e-005
2.109777e+003,-1.033023e-005
2.111706e+003,-8.517876e-006
2.113634e+003,-6.709248e-006
2.115563e+003,-4.909933e-006
2.117491e+003,-3.121793e-006
2.119420e+003,-1.339242e-006
2.121348e+003,4.358590e-007
2.123277e+003,2.205372e-006
2.125205e+003,3.965572e-006
2.127134e+003,5.720183e-006
2.129062e+003,7.465482e-006
2.130991e+003,9.205192e-006
2.132919e+003,1.093373e-005
2.134848e+003,1.265667e-005
2.136776e+003,1.437217e-005
2.138705e+003,1.608022e-005
2.140633e+003,1.778081e-005
2.142562e+003,1.947582e-005
2.144490e+003,2.116151e-005
2.146419e+003,2.283975e-005
2.148347e+003,2.451055e-005
2.150276e+003,2.617016e-005
2.152204e+003,2.782792e-005
2.154133e+003,2.947636e-005
2.156061e+003,3.111921e-005
2.157990e+003,3.275275e-005
2.159918e+003,3.437698e-005
2.161847e+003,3.599562e-005
2.163775e+003,3.760494e-005
2.165704e+003,3.920682e-005
2.167632e+003,4.080310e-005
2.169561e+003,4.239194e-005
2.171489e+003,4.397333e-005
2.173418e+003,4.554726e-005
2.175346e+003,4.711375e-005
2.177275e+003,4.867278e-005
2.179203e+003,5.022436e-005
2.181132e+003,5.176663e-005
2.183060e+003,5.329959e-005
2.184989e+003,5.482882e-005
2.186917e+003,5.635247e-005
2.188846e+003,5.786680e-005
2.190774e+003,5.936995e-005
2.192703e+003,6.086938e-005
2.194631e+003,6.235950e-005
2.196560e+003,6.384216e-005
2.198488e+003,6.531924e-005
2.200417e+003,6.678887e-005
2.202345e+003,6.824918e-005
2.204274e+003,6.970391e-005
2.206202e+003,7.114746e-005
2.208131e+003,7.258542e-005
2.210059e+003,7.401593e-005
2.211988e+003,7.543899e-005
2.213916e+003,7.685460e-005
2.215845e+003,7.826276e-005
2.217773e+003,7.966533e-005
2.219702e+003,8.105859e-005
2.221630e+003,8.244440e-005
2.223559e+003,8.382276e-005
2.225487e+003,8.519553e-005
2.227416e+003,8.655898e-005
2.229344e+003,8.791313e-005
2.231273e+003,8.926354e-005
2.233201e+003,9.060651e-005
2.235130e+003,9.193830e-005
2.237058e+003,9.326264e-005
2.238987e+003,9.458140e-005
2.240915e+003,9.589083e-005
2.242844e+003,9.719469e-005
2.244772e+003,9.849295e-005
2.246701e+003,9.978190e-005
2.248629e+003,1.010634e-004
2.250558e+003,1.023356e-004
2.252486e+003,1.036022e-004
2.254415e+003,1.048595e-004
2.256343e+003,1.061112e-004
2.258272e+003,1.073554e-004
2.260200e+003,1.085903e-004
2.262129e+003,1.098216e-004
2.264057e+003,1.110435e-004
2.265986e+003,1.122523e-004
2.267914e+003,1.134593e-004
2.269843e+003,1.146588e-004
2.271771e+003,1.158509e-004
2.273700e+003,1.170337e-004
2.275628e+003,1.182109e-004
2.277557e+003,1.193807e-004
2.279485e+003,1.205429e-004
2.281414e+003,1.216941e-004
2.283342e+003,1.228396e-004
2.285271e+003,1.239795e-004
2.287199e+003,1.251101e-004
2.289128e+003,1.262370e-004
2.291056e+003,1.273509e-004
2.292985e+003,1.284610e-004
2.294913e+003,1.295619e-004
2.296842e+003,1.306552e-004
2.298770e+003,1.317393e-004
2.300699e+003,1.328196e-004
2.302627e+003,1.338944e-004
2.304556e+003,1.349561e-004
2.306484e+003,1.360141e-004
2.308413e+003,1.370609e-004
2.310341e+003,1.381021e-004
2.312270e+003,1.391340e-004
2.314198e+003,1.401622e-004
2.316127e+003,1.411792e-004
2.318055e+003,1.421906e-004
2.319984e+003,1.431964e-004
2.321912e+003,1.441929e-004
2.323841e+003,1.451820e-004
2.325769e+003,1.461636e-004
2.327698e+003,1.471378e-004
2.329626e+003,1.481026e-004
2.331555e+003,1.490619e-004
2.333483e+003,1.500156e-004
2.335412e+003,1.509581e-004
2.337340e+003,1.518950e-004
2.339269e+003,1.528226e-004
2.341197e+003,1.537446e-004
2.343126e+003,1.546554e-004
2.345054e+003,1.555625e-004
2.346983e+003,1.564641e-004
2.348911e+003,1.573544e-004
2.350840e+003,1.582392e-004
2.352768e+003,1.591165e-004
2.354697e+003,1.599826e-004
2.356625e+003,1.608450e-004
2.358554e+003,1.616981e-004
2.360482e+003,1.625456e-004
2.362411e+003,1.633838e-004
2.364339e+003,1.642164e-004
2.366268e+003,1.650434e-004
2.368196e+003,1.658555e-004
2.370125e+003,1.666658e-004
2.372053e+003,1.674686e-004
2.373982e+003,1.682620e-004
2.375910e+003,1.690481e-004
2.377839e+003,1.698285e-004
2.379767e+003,1.705997e-004
2.381696e+003,1.713634e-004
2.383624e+003,1.721196e-004
2.385553e+003,1.728665e-004
2.387481e+003,1.736116e-004
2.389410e+003,1.743436e-004
2.391338e+003,1.750737e-004
2.393267e+003,1.757909e-004
2.395195e+003,1.765005e-004
2.397124e+003,1.772065e-004
2.399052e+003,1.779031e-004
2.400981e+003,2.020746e-004
2.402909e+003,-6.146729e-006
2.404838e+003,9.710528e-005
2.406766e+003,4.498176e-004
2.408695e+003,6.718934e-004
2.410623e+003,6.973371e-004
2.412552e+003,6.480273e-004
2.414480e+003,5.526394e-004
2.416409e+003,6.237179e-004
2.418337e+003,6.016996e-004
2.420266e+003,5.121622e-004
2.422194e+003,5.095117e-004
2.424123e+003,5.997662e-004
2.426051e+003,6.230939e-004
2.427979e+003,5.735848e-004
2.429908e+003,5.439594e-004
2.431837e+003,6.335042e-004
2.433765e+003,6.719660e-004
2.435694e+003,6.113276e-004
2.437622e+003,4.676227e-004
2.439551e+003,5.248245e-004
2.441479e+003,6.154012e-004
2.443407e+003,7.319991e-004
2.445336e+003,6.778967e-004
2.447265e+003,7.114001e-004
2.449193e+003,8.027162e-004
2.451122e+003,8.792412e-004
2.453050e+003,8.547641e-004
2.454979e+003,8.074716e-004
2.456907e+003,7.598419e-004
2.458836e+003,8.578338e-004
2.460764e+003,9.010900e-004
2.462693e+003,9.959172e-004
2.464621e+003,8.908492e-004
2.466550e+003,7.603336e-004
2.468478e+003,8.457880e-004
2.470406e+003,1.079548e-003
2.472335e+003,1.212010e-003
2.474264e+003,1.231596e-003
2.476192e+003,1.064194e-003
2.478121e+003,1.068240e-003
2.480049e+003,1.139358e-003
2.481978e+003,1.068588e-003
2.483906e+003,9.953529e-004
2.485835e+003,1.162302e-003
2.487763e+003,1.308551e-003
2.489692e+003,1.344776e-003
2.491620e+003,1.408549e-003
2.493549e+003,1.609035e-003
2.495477e+003,1.625102e-003
2.497406e+003,1.513392e-003
2.499334e+003,1.514405e-003
2.501263e+003,1.586389e-003
2.503191e+003,1.572773e-003
2.505120e+003,1.696477e-003
2.507048e+003,1.753038e-003
2.508977e+003,1.727162e-003
2.510905e+003,1.751242e-003
2.512833e+003,1.985420e-003
2.514762e+003,2.163159e-003
2.516691e+003,2.218470e-003
2.518619e+003,2.131259e-003
2.520548e+003,2.281666e-003
2.522476e+003,2.423845e-003
2.524405e+003,2.597481e-003
2.526333e+003,2.652453e-003
2.528261e+003,2.739714e-003
2.530190e+003,2.826331e-003
2.532119e+003,2.768604e-003
2.534047e+003,2.561323e-003
2.535976e+003,2.499681e-003
2.537904e+003,2.646448e-003
2.539833e+003,2.771404e-003
2.541761e+003,2.831312e-003
2.543689e+003,3.128581e-003
2.545618e+003,3.376625e-003
2.547547e+003,3.497792e-003
2.549475e+003,3.523747e-003
2.551404e+003,3.450369e-003
2.553332e+003,3.331840e-003
2.555260e+003,3.414629e-003
2.557189e+003,3.556782e-003
2.559117e+003,3.646279e-003
2.561046e+003,3.619127e-003
2.562975e+003,3.731480e-003
2.564903e+003,3.737044e-003
2.566832e+003,3.791634e-003
2.568760e+003,3.909057e-003
2.570688e+003,3.898857e-003
2.572617e+003,4.039042e-003
2.574546e+003,4.458845e-003
2.576474e+003,4.705470e-003
2.578403e+003,4.787879e-003
2.580331e+003,4.904058e-003
2.582260e+003,4.937084e-003
2.584188e+003,4.998412e-003
2.586116e+003,5.170949e-003
2.588045e+003,5.390616e-003
2.589974e+003,5.511099e-003
2.591902e+003,5.696502e-003
2.593831e+003,5.974421e-003
2.595759e+003,6.178491e-003
2.597688e+003,6.278120e-003
2.599616e+003,6.377274e-003
2.601544e+003,6.516645e-003
2.603473e+003,6.604159e-003
2.605402e+003,6.788930e-003
2.607330e+003,7.048678e-003
2.609259e+003,7.320747e-003
2.611187e+003,7.561002e-003
2.613115e+003,7.831357e-003
2.615044e+003,8.036969e-003
2.616972e+003,8.259129e-003
2.618901e+003,8.523490e-003
2.620830e+003,8.885531e-003
2.622758e+003,9.133140e-003
2.624687e+003,9.429287e-003
2.626615e+003,9.855550e-003
2.628543e+003,1.022284e-002
2.630472e+003,1.051061e-002
2.632400e+003,1.091639e-002
2.634329e+003,1.111247e-002
2.636258e+003,1.114997e-002
2.638186e+003,1.122578e-002
2.640115e+003,1.134966e-002
2.642043e+003,1.142697e-002
2.643971e+003,1.142726e-002
2.645900e+003,1.138199e-002
2.647828e+003,1.147796e-002
2.649757e+003,1.165245e-002
2.651686e+003,1.177438e-002
2.653614e+003,1.189684e-002
2.655542e+003,1.210232e-002
2.657471e+003,1.228994e-002
2.659399e+003,1.233849e-002
2.661328e+003,1.230824e-002
2.663256e+003,1.219711e-002
2.665185e+003,1.213772e-002
2.667114e+003,1.208753e-002
2.669042e+003,1.202893e-002
2.670970e+003,1.200373e-002
2.672899e+003,1.195529e-002
2.674827e+003,1.192511e-002
2.676756e+003,1.184202e-002
2.678685e+003,1.169147e-002
2.680613e+003,1.158354e-002
2.682542e+003,1.147948e-002
2.684470e+003,1.134638e-002
2.686398e+003,1.123676e-002
2.688327e+003,1.112908e-002
2.690255e+003,1.099755e-002
2.692184e+003,1.088999e-002
2.694113e+003,1.072886e-002
2.696041e+003,1.061929e-002
2.697969e+003,1.060013e-002
2.699898e+003,1.059512e-002
2.701826e+003,1.067582e-002
2.703755e+003,1.078440e-002
2.705683e+003,1.087889e-002
2.707612e+003,1.103709e-002
2.709541e+003,1.125611e-002
2.711469e+003,1.142592e-002
2.713397e+003,1.160431e-002
2.715326e+003,1.176378e-002
2.717254e+003,1.188002e-002
2.719183e+003,1.208012e-002
2.721111e+003,1.226554e-002
2.723040e+003,1.247171e-002
2.724969e+003,1.285450e-002
2.726897e+003,1.315448e-002
2.728825e+003,1.331523e-002
2.730754e+003,1.349927e-002
2.732682e+003,1.370508e-002
2.734611e+003,1.379481e-002
2.736539e+003,1.383139e-002
2.738468e+003,1.392880e-002
2.740396e+003,1.404640e-002
2.742325e+003,1.409161e-002
2.744253e+003,1.415809e-002
2.746182e+003,1.422324e-002
2.748110e+003,1.417891e-002
2.750039e+003,1.420336e-002
2.751967e+003,1.436685e-002
2.753896e+003,1.450237e-002
2.755824e+003,1.467835e-002
2.757753e+003,1.498894e-002
2.759681e+003,1.534737e-002
2.761610e+003,1.569929e-002
2.763538e+003,1.604713e-002
2.765467e+003,1.635495e-002
2.767395e+003,1.679060e-002
2.769324e+003,1.732767e-002
2.771252e+003,1.781415e-002
2.773181e+003,1.835231e-002
2.775109e+003,1.906511e-002
2.777038e+003,1.987359e-002
2.778966e+003,2.070702e-002
2.780895e+003,2.158695e-002
2.782823e+003,2.262591e-002
2.784752e+003,2.381167e-002
2.786680e+003,2.506857e-002
2.788609e+003,2.634466e-002
2.790537e+003,2.767948e-002
2.792466e+003,2.905692e-002
2.794394e+003,3.050198e-002
2.796323e+003,3.206456e-002
2.798251e+003,3.365622e-002
2.800180e+003,3.534808e-002
2.802108e+003,3.722788e-002
2.804037e+003,3.925415e-002
2.805965e+003,4.144411e-002
2.807894e+003,4.385453e-002
2.809822e+003,4.661290e-002
2.811751e+003,4.970825e-002
2.813679e+003,5.321565e-002
2.815608e+003,5.735237e-002
2.817536e+003,6.208350e-002
2.819465e+003,6.755752e-002
2.821393e+003,7.410227e-002
2.823322e+003,8.211744e-002
2.825250e+003,9.210829e-002
2.827179e+003,1.047062e-001
2.829107e+003,1.207006e-001
2.831036e+003,1.413875e-001
2.832964e+003,1.689069e-001
2.834893e+003,2.068180e-001
2.836821e+003,2.598125e-001
2.838750e+003,3.355647e-001
2.840678e+003,4.456691e-001
2.842607e+003,6.024569e-001
2.844535e+003,8.052553e-001
2.846464e+003,9.963533e-001
2.848392e+003,1.030642e+000
2.850321e+003,8.808216e-001
2.852249e+003,6.995811e-001
2.854178e+003,5.613089e-001
2.856106e+003,4.567651e-001
2.858035e+003,3.739682e-001
2.859963e+003,3.090703e-001
2.861892e+003,2.602499e-001
2.863820e+003,2.257404e-001
2.865749e+003,2.037136e-001
2.867677e+003,1.920618e-001
2.869606e+003,1.878355e-001
2.871534e+003,1.870880e-001
2.873463e+003,1.876563e-001
2.875391e+003,1.910873e-001
2.877320e+003,1.996994e-001
2.879248e+003,2.140431e-001
2.881177e+003,2.333512e-001
2.883105e+003,2.564466e-001
2.885034e+003,2.825563e-001
2.886962e+003,3.110820e-001
2.888891e+003,3.412802e-001
2.890819e+003,3.723421e-001
2.892748e+003,4.035130e-001
2.894676e+003,4.345495e-001
2.896605e+003,4.660392e-001
2.898533e+003,4.991872e-001
2.900462e+003,5.359101e-001
2.902390e+003,5.794046e-001
2.904319e+003,6.342515e-001
2.906247e+003,7.061277e-001
2.908176e+003,8.007960e-001
2.910104e+003,9.212477e-001
2.912033e+003,1.057434e+000
2.913961e+003,1.168383e+000
2.915890e+003,1.193376e+000
2.917818e+003,1.119926e+000
2.919747e+003,9.997885e-001
2.921675e+003,8.779067e-001
2.923604e+003,7.694395e-001
2.925532e+003,6.756346e-001
2.927461e+003,5.935813e-001
2.929389e+003,5.203744e-001
2.931318e+003,4.545561e-001
2.933246e+003,3.955202e-001
2.935175e+003,3.431412e-001
2.937103e+003,2.974074e-001
2.939032e+003,2.578872e-001
2.940960e+003,2.246393e-001
2.942889e+003,1.975959e-001
2.944817e+003,1.764996e-001
2.946746e+003,1.612829e-001
2.948674e+003,1.516781e-001
2.950603e+003,1.462853e-001
2.952531e+003,1.427386e-001
2.954460e+003,1.388336e-001
2.956388e+003,1.332517e-001
2.958317e+003,1.257212e-001
2.960245e+003,1.165828e-001
2.962174e+003,1.063411e-001
2.964102e+003,9.565069e-002
2.966031e+003,8.494486e-002
2.967959e+003,7.493038e-002
2.969888e+003,6.609426e-002
2.971816e+003,5.856258e-002
2.973745e+003,5.228302e-002
2.975673e+003,4.713155e-002
2.977602e+003,4.287122e-002
2.979530e+003,3.925868e-002
2.981459e+003,3.617892e-002
2.983387e+003,3.360919e-002
2.985316e+003,3.154811e-002
2.987244e+003,3.004704e-002
2.989173e+003,2.904992e-002
2.991101e+003,2.845510e-002
2.993030e+003,2.839561e-002
2.994958e+003,2.920969e-002
2.996887e+003,3.053646e-002
2.998815e+003,3.219224e-002
3.000744e+003,3.394841e-002
3.002672e+003,3.518704e-002
3.004601e+003,3.565995e-002
3.006529e+003,3.534636e-002
3.008458e+003,3.403642e-002
3.010386e+003,3.194133e-002
3.012315e+003,2.923973e-002
3.014243e+003,2.637969e-002
3.016172e+003,2.370775e-002
3.018100e+003,2.132136e-002
3.020029e+003,1.930155e-002
3.021957e+003,1.768741e-002
3.023886e+003,1.638305e-002
3.025814e+003,1.535626e-002
3.027743e+003,1.453019e-002
3.029671e+003,1.381145e-002
3.031600e+003,1.326034e-002
3.033528e+003,1.285687e-002
3.035457e+003,1.234431e-002
3.037385e+003,1.185605e-002
3.039314e+003,1.137813e-002
3.041242e+003,1.104059e-002
3.043171e+003,1.075456e-002
3.045099e+003,1.041643e-002
3.047028e+003,1.013163e-002
3.048956e+003,9.881519e-003
3.050885e+003,9.701587e-003
3.052813e+003,9.603068e-003
3.054742e+003,9.442927e-003
3.056670e+003,9.261986e-003
3.058599e+003,9.220589e-003
3.060527e+003,9.188715e-003
3.062456e+003,9.079846e-003
3.064384e+003,8.969469e-003
3.066313e+003,8.879729e-003
3.068241e+003,8.753411e-003
3.070170e+003,8.637179e-003
3.072098e+003,8.384051e-003
3.074027e+003,8.136081e-003
3.075955e+003,7.996971e-003
3.077884e+003,7.863034e-003
3.079812e+003,7.685661e-003
3.081741e+003,7.409051e-003
3.083669e+003,7.251032e-003
3.085598e+003,7.129850e-003
3.087526e+003,6.908288e-003
3.089455e+003,6.727109e-003
3.091383e+003,6.606435e-003
3.093312e+003,6.449988e-003
3.095240e+003,6.212374e-003
3.097169e+003,5.935362e-003
3.099097e+003,5.693944e-003
3.101026e+003,5.573032e-003
3.102954e+003,5.501488e-003
3.104883e+003,5.342459e-003
3.106811e+003,5.224491e-003
3.108740e+003,5.098557e-003
3.110668e+003,4.958952e-003
3.112597e+003,4.932219e-003
3.114525e+003,4.994767e-003
3.116454e+003,4.937010e-003
3.118382e+003,4.744343e-003
3.120311e+003,4.593600e-003
3.122239e+003,4.623517e-003
3.124168e+003,4.761703e-003
3.126096e+003,4.772758e-003
3.128025e+003,4.722239e-003
3.129953e+003,4.615897e-003
3.131882e+003,4.614629e-003
3.133810e+003,4.808281e-003
3.135739e+003,4.860535e-003
3.137667e+003,4.783032e-003
3.139596e+003,4.757324e-003
3.141524e+003,4.789565e-003
3.143453e+003,4.792184e-003
3.145381e+003,4.873572e-003
3.147310e+003,4.879327e-003
3.149238e+003,4.921094e-003
3.151167e+003,4.949756e-003
3.153095e+003,4.974904e-003
3.155024e+003,5.050302e-003
3.156952e+003,5.099962e-003
3.158881e+003,5.122975e-003
3.160809e+003,5.167466e-003
3.162738e+003,5.183870e-003
3.164666e+003,5.351771e-003
3.166594e+003,5.353568e-003
3.168523e+003,5.389350e-003
3.170452e+003,5.528826e-003
3.172380e+003,5.543953e-003
3.174309e+003,5.565554e-003
3.176237e+003,5.695241e-003
3.178166e+003,5.768530e-003
3.180094e+003,5.809186e-003
3.182022e+003,5.897643e-003
3.183951e+003,5.968362e-003
3.185880e+003,6.036127e-003
3.187808e+003,6.078744e-003
3.189737e+003,6.095070e-003
3.191665e+003,6.083546e-003
3.193594e+003,6.098680e-003
3.195522e+003,6.201206e-003
3.197450e+003,6.318303e-003
3.199379e+003,6.405212e-003
3.201308e+003,6.502552e-003
3.203236e+003,6.530568e-003
3.205165e+003,6.462226e-003
3.207093e+003,6.495783e-003
3.209021e+003,6.541915e-003
3.210950e+003,6.566813e-003
3.212878e+003,6.617825e-003
3.214807e+003,6.717287e-003
3.216736e+003,6.844087e-003
3.218664e+003,6.804768e-003
3.220593e+003,6.837074e-003
3.222521e+003,6.976312e-003
3.224449e+003,7.030996e-003
3.226378e+003,7.061608e-003
3.228307e+003,7.158313e-003
3.230235e+003,7.265007e-003
3.232164e+003,7.324683e-003
3.234092e+003,7.360350e-003
3.236021e+003,7.396922e-003
3.237949e+003,7.418120e-003
3.239877e+003,7.521627e-003
3.241806e+003,7.751027e-003
3.243735e+003,7.923026e-003
3.245663e+003,7.965639e-003
3.247592e+003,8.088596e-003
3.249520e+003,8.201307e-003
3.251448e+003,8.336050e-003
3.253377e+003,8.505607e-003
3.255305e+003,8.673595e-003
3.257234e+003,8.882919e-003
3.259163e+003,9.148311e-003
3.261091e+003,9.266503e-003
3.263020e+003,9.364512e-003
3.264948e+003,9.508204e-003
3.266876e+003,9.579316e-003
3.268805e+003,9.711947e-003
3.270733e+003,9.868126e-003
3.272662e+003,1.007912e-002
3.274591e+003,1.021095e-002
3.276519e+003,1.035856e-002
3.278448e+003,1.051104e-002
3.280376e+003,1.055438e-002
3.282304e+003,1.056422e-002
3.284233e+003,1.070868e-002
3.286161e+003,1.078635e-002
3.288090e+003,1.075013e-002
3.290019e+003,1.069368e-002
3.291947e+003,1.074799e-002
3.293875e+003,1.077440e-002
3.295804e+003,1.084193e-002
3.297732e+003,1.084155e-002
3.299661e+003,1.086082e-002
3.301589e+003,1.078155e-002
3.303518e+003,1.066830e-002
3.305447e+003,1.077150e-002
3.307375e+003,1.089611e-002
3.309303e+003,1.076971e-002
3.311232e+003,1.058010e-002
3.313160e+003,1.041556e-002
3.315089e+003,1.036614e-002
3.317018e+003,1.033009e-002
3.318946e+003,1.029863e-002
3.320875e+003,1.029393e-002
3.322803e+003,1.025695e-002
3.324731e+003,1.027485e-002
3.326660e+003,1.019530e-002
3.328588e+003,1.009185e-002
3.330517e+003,1.004114e-002
3.332446e+003,9.994773e-003
3.334374e+003,9.930406e-003
3.336302e+003,9.977641e-003
3.338231e+003,9.922607e-003
3.340159e+003,9.862948e-003
3.342088e+003,9.820161e-003
3.344016e+003,9.757631e-003
3.345945e+003,9.684188e-003
3.347874e+003,9.600848e-003
3.349802e+003,9.510454e-003
3.351730e+003,9.387204e-003
3.353659e+003,9.307414e-003
3.355587e+003,9.309882e-003
3.357516e+003,9.303086e-003
3.359444e+003,9.187294e-003
3.361373e+003,9.152938e-003
3.363302e+003,9.326769e-003
3.365230e+003,9.245919e-003
3.367158e+003,9.033531e-003
3.369087e+003,8.972028e-003
3.371015e+003,8.896675e-003
3.372944e+003,8.823184e-003
3.374872e+003,8.835617e-003
3.376801e+003,8.753140e-003
3.378729e+003,8.629410e-003
3.380658e+003,8.555111e-003
3.382586e+003,8.578187e-003
3.384515e+003,8.476695e-003
3.386443e+003,8.413907e-003
3.388372e+003,8.419396e-003
3.390300e+003,8.445976e-003
3.392229e+003,8.360650e-003
3.394157e+003,8.296002e-003
3.396086e+003,8.312589e-003
3.398014e+003,8.223431e-003
3.399943e+003,8.133948e-003
3.401871e+003,8.040413e-003
3.403800e+003,8.023521e-003
3.405728e+003,7.961655e-003
3.407657e+003,7.891834e-003
3.409585e+003,7.929061e-003
3.411514e+003,7.873744e-003
3.413442e+003,7.751266e-003
3.415371e+003,7.659191e-003
3.417299e+003,7.687846e-003
3.419228e+003,7.712800e-003
3.421156e+003,7.659838e-003
3.423085e+003,7.686645e-003
3.425013e+003,7.675389e-003
3.426942e+003,7.675070e-003
3.428870e+003,7.628229e-003
3.430799e+003,7.615849e-003
3.432727e+003,7.548127e-003
3.434656e+003,7.420313e-003
3.436584e+003,7.457886e-003
3.438513e+003,7.450253e-003
3.440441e+003,7.451255e-003
3.442370e+003,7.500235e-003
3.444298e+003,7.465303e-003
3.446227e+003,7.508706e-003
3.448155e+003,7.504549e-003
3.450084e+003,7.625412e-003
3.452012e+003,7.577054e-003
3.453941e+003,7.564563e-003
3.455869e+003,7.521387e-003
3.457798e+003,7.563846e-003
3.459726e+003,7.542364e-003
3.461655e+003,7.560387e-003
3.463583e+003,7.626466e-003
3.465512e+003,7.604603e-003
3.467440e+003,7.518807e-003
3.469369e+003,7.552506e-003
3.471297e+003,7.437548e-003
3.473226e+003,7.330962e-003
3.475154e+003,7.237010e-003
3.477083e+003,7.105963e-003
3.479011e+003,6.892616e-003
3.480940e+003,6.932631e-003
3.482868e+003,6.950315e-003
3.484797e+003,6.707869e-003
3.486725e+003,6.484840e-003
3.488654e+003,6.398700e-003
3.490582e+003,6.316371e-003
3.492511e+003,6.222915e-003
3.494439e+003,6.118439e-003
3.496368e+003,6.042100e-003
3.498296e+003,5.959142e-003
3.500225e+003,5.923513e-003
3.502153e+003,5.926013e-003
3.504082e+003,5.801547e-003
3.506010e+003,5.584698e-003
3.507939e+003,5.612951e-003
3.509867e+003,5.522311e-003
3.511796e+003,5.466130e-003
3.513724e+003,5.401302e-003
3.515653e+003,5.561735e-003
3.517581e+003,5.571507e-003
3.519510e+003,5.322844e-003
3.521438e+003,5.122706e-003
3.523367e+003,5.080685e-003
3.525295e+003,5.284388e-003
3.527224e+003,5.397923e-003
3.529152e+003,5.106427e-003
3.531081e+003,4.694965e-003
3.533009e+003,4.486073e-003
3.534938e+003,4.688688e-003
3.536866e+003,4.787844e-003
3.538795e+003,4.764136e-003
3.540723e+003,4.440904e-003
3.542652e+003,4.194289e-003
3.544580e+003,4.300546e-003
3.546509e+003,4.550703e-003
3.548437e+003,4.332349e-003
3.550366e+003,4.056953e-003
3.552294e+003,3.642887e-003
3.554223e+003,3.665540e-003
3.556151e+003,3.795777e-003
3.558080e+003,3.820334e-003
3.560008e+003,3.574256e-003
3.561937e+003,3.105652e-003
3.563865e+003,2.657332e-003
3.565794e+003,3.013980e-003
3.567722e+003,3.698546e-003
3.569651e+003,3.414933e-003
3.571579e+003,2.601601e-003
3.573508e+003,2.187010e-003
3.575436e+003,2.171852e-003
3.577365e+003,2.295200e-003
3.579293e+003,2.357680e-003
3.581222e+003,2.312124e-003
3.583150e+003,1.928829e-003
3.585079e+003,1.650102e-003
3.587007e+003,2.211325e-003
3.588936e+003,2.879776e-003
3.590864e+003,2.590828e-003
3.592793e+003,1.860678e-003
3.594721e+003,1.495089e-003
3.596650e+003,2.085678e-003
3.598578e+003,2.892006e-003
3.600507e+003,3.516488e-003
3.602435e+003,3.158040e-003
3.604364e+003,2.441537e-003
3.606292e+003,1.939807e-003
3.608221e+003,2.400022e-003
3.610149e+003,2.728119e-003
3.612078e+003,2.187815e-003
3.614006e+003,1.292702e-003
3.615935e+003,1.071122e-003
3.617863e+003,1.975261e-003
3.619792e+003,2.847522e-003
3.621720e+003,2.121840e-003
3.623649e+003,1.232408e-003
3.625577e+003,3.578626e-004
3.627506e+003,7.700659e-004
3.629434e+003,2.094600e-003
3.631363e+003,1.802120e-003
3.633291e+003,6.108470e-004
3.635220e+003,9.747595e-005
3.637148e+003,3.019348e-004
3.639077e+003,6.191991e-004
3.641005e+003,1.332670e-003
3.642934e+003,8.605123e-004
3.644862e+003,1.325682e-004
3.646791e+003,-2.944954e-004
3.648719e+003,1.105517e-003
3.650648e+003,2.250459e-003
3.652576e+003,6.946288e-004
3.654505e+003,-9.573996e-005
3.656433e+003,-5.785488e-004
3.658362e+003,1.259819e-004
3.660290e+003,5.130582e-004
3.662219e+003,3.020875e-004
3.664147e+003,-2.678484e-006
3.666076e+003,-4.392788e-004
3.668004e+003,-3.436729e-004
3.669933e+003,5.358085e-004
3.671861e+003,-7.229671e-005
3.673790e+003,-7.908903e-004
3.675718e+003,-2.071768e-003
3.677647e+003,-7.584505e-004
3.679575e+003,-1.407750e-004
3.681504e+003,3.356226e-004
3.683432e+003,-1.231879e-004
3.685361e+003,-1.139909e-003
3.687289e+003,-1.726430e-003
3.689218e+003,-5.749688e-004
3.691146e+003,1.084063e-003
3.693075e+003,2.536289e-004
3.695003e+003,-7.353313e-004
3.696932e+003,-1.300607e-003
3.698860e+003,-1.223888e-003
3.700789e+003,-6.658174e-004
3.702717e+003,9.948388e-005
3.704646e+003,-3.497675e-005
3.706574e+003,-8.144751e-004
3.708503e+003,-1.610957e-003
3.710431e+003,-1.492064e-003
3.712360e+003,8.714944e-005
3.714288e+003,2.705157e-004
3.716217e+003,-1.520030e-004
3.718145e+003,-1.031153e-003
3.720074e+003,-1.341283e-003
3.722002e+003,-6.236620e-004
3.723931e+003,5.606674e-004
3.725859e+003,7.880144e-004
3.727788e+003,-9.787828e-005
3.729716e+003,-6.564111e-004
3.731645e+003,-1.248639e-003
3.733573e+003,-2.554134e-004
3.735502e+003,3.181808e-004
3.737430e+003,1.809038e-004
3.739359e+003,-7.164478e-005
3.741287e+003,-1.162421e-003
3.743216e+003,-1.363207e-003
3.745144e+003,-1.192454e-003
3.747073e+003,-5.888902e-004
3.749001e+003,-9.685345e-004
3.750930e+003,-4.836805e-004
3.752858e+003,-1.200229e-003
3.754787e+003,-1.227260e-003
3.756715e+003,-1.279466e-003
3.758644e+003,-7.469654e-004
3.760572e+003,-5.218536e-004
3.762501e+003,-1.059886e-003
3.764429e+003,-1.374323e-003
3.766358e+003,-1.579918e-003
3.768286e+003,-9.563528e-004
3.770215e+003,-6.087869e-004
3.772143e+003,-3.480688e-004
3.774072e+003,-2.391301e-004
3.776000e+003,-5.382001e-004
3.777929e+003,-6.810054e-004
3.779857e+003,-4.815832e-004
3.781786e+003,-7.567927e-005
3.783714e+003,-2.795793e-004
3.785643e+003,-2.320148e-004
3.787571e+003,-1.439154e-004
3.789500e+003,-2.143197e-004
3.791428e+003,3.039204e-004
3.793357e+003,6.201863e-005
3.795285e+003,2.471618e-004
3.797214e+003,-3.716350e-005
3.799142e+003,-4.512779e-004
3.801071e+003,5.302578e-005
3.802999e+003,-2.180785e-005
3.804927e+003,-1.407601e-004
3.806856e+003,-3.632158e-006
3.808785e+003,4.014969e-004
3.810713e+003,3.644377e-004
3.812642e+003,-1.954362e-004
3.814570e+003,-1.467466e-004
3.816499e+003,-3.468320e-004
3.818427e+003,-1.111142e-004
3.820355e+003,-2.586581e-004
3.822284e+003,2.685077e-004
3.824213e+003,5.379803e-004
3.826141e+003,-3.630668e-005
3.828070e+003,-1.372546e-004
3.829998e+003,-1.661219e-004
3.831927e+003,1.776442e-004
3.833855e+003,8.461550e-004
3.835783e+003,-1.859404e-004
3.837712e+003,-8.267574e-004
3.839641e+003,-6.550103e-004
3.841569e+003,2.354719e-004
3.843498e+003,8.951575e-004
3.845426e+003,6.073266e-004
3.847354e+003,-1.338385e-004
3.849283e+003,-8.543357e-004
3.851211e+003,-9.684078e-004
3.853140e+003,9.213500e-004
3.855069e+003,1.947843e-003
3.856997e+003,7.241555e-004
3.858926e+003,-2.140813e-004
3.860854e+003,-5.529709e-004
3.862782e+003,-4.081577e-004
3.864711e+003,5.080774e-004
3.866640e+003,-6.259233e-005
3.868568e+003,-2.945513e-004
3.870497e+003,-3.424697e-004
3.872425e+003,7.286370e-004
3.874354e+003,8.393340e-004
3.876282e+003,6.734952e-004
3.878210e+003,3.993511e-006
3.880139e+003,9.644777e-006
3.882068e+003,3.864653e-004
3.883996e+003,5.824193e-004
3.885925e+003,4.385337e-004
3.887853e+003,2.085902e-004
3.889781e+003,-3.295429e-004
3.891710e+003,2.120584e-004
3.893638e+003,9.413101e-004
3.895567e+003,6.551556e-004
3.897496e+003,5.111471e-005
3.899424e+003,-5.642623e-004
3.901353e+003,-3.259331e-004
3.903281e+003,5.574822e-004
3.905209e+003,9.075552e-004
3.907138e+003,5.150922e-004
3.909066e+003,-1.604855e-005
3.910995e+003,-3.834814e-005
3.912924e+003,3.467128e-005
3.914852e+003,3.481209e-004
3.916781e+003,3.938377e-004
3.918709e+003,4.555099e-004
3.920637e+003,2.170578e-004
3.922566e+003,3.983155e-004
3.924494e+003,4.829280e-004
3.926423e+003,3.067143e-004
3.928352e+003,1.102649e-004
3.930280e+003,9.559840e-005
3.932208e+003,6.252974e-004
3.934137e+003,6.019324e-004
3.936065e+003,4.862025e-004
3.937994e+003,3.952906e-004
3.939922e+003,3.169514e-004
3.941851e+003,3.210008e-004
3.943780e+003,3.166348e-004
3.945708e+003,2.656505e-004
3.947636e+003,1.520813e-004
3.949565e+003,3.480166e-004
3.951493e+003,3.897883e-004
3.953422e+003,3.327020e-004
3.955351e+003,2.797097e-004
3.957279e+003,1.967959e-004
3.959208e+003,2.313219e-004
3.961136e+003,3.140084e-004
3.963064e+003,3.441945e-004
3.964993e+003,3.623255e-004
3.966921e+003,3.591254e-004
3.968850e+003,4.146211e-004
3.970779e+003,5.384572e-004
3.972707e+003,5.639680e-004
3.974635e+003,5.495362e-004
3.976564e+003,4.502758e-004
3.978492e+003,4.299767e-004
3.980421e+003,5.322807e-004
3.982349e+003,4.881285e-004
3.984278e+003,4.869550e-004
3.986207e+003,4.629828e-004
3.988135e+003,5.110726e-004
3.990063e+003,4.687011e-004
3.991992e+003,2.965592e-004
3.993920e+003,2.399795e-004
3.995849e+003,4.201904e-004
3.997777e+003,5.873293e-004
3.999706e+003,5.467683e-004
4.001635e+003,0.000000e+000
