3.991992e+002,0.000000e+000
4.011277e+002,0.000000e+000
4.030562e+002,0.000000e+000
4.049846e+002,0.000000e+000
4.069131e+002,0.000000e+000
4.088416e+002,0.000000e+000
4.107701e+002,0.000000e+000
4.126986e+002,0.000000e+000
4.146271e+002,0.000000e+000
4.165556e+002,0.000000e+000
4.184841e+002,0.000000e+000
4.204126e+002,0.000000e+000
4.223411e+002,0.000000e+000
4.242697e+002,0.000000e+000
4.261982e+002,0.000000e+000
4.281266e+002,0.000000e+000
4.300551e+002,0.000000e+000
4.319836e+002,0.000000e+000
4.339121e+002,0.000000e+000
4.358406e+002,0.000000e+000
4.377691e+002,0.000000e+000
4.396976e+002,0.000000e+000
4.416261e+002,0.000000e+000
4.435546e+002,0.000000e+000
4.454831e+002,0.000000e+000
4.474116e+002,0.000000e+000
4.493401e+002,0.000000e+000
4.512686e+002,0.000000e+000
4.531971e+002,0.000000e+000
4.551256e+002,0.000000e+000
4.570541e+002,0.000000e+000
4.589826e+002,0.000000e+000
4.609111e+002,0.000000e+000
4.628396e+002,0.000000e+000
4.647681e+002,0.000000e+000
4.666966e+002,0.000000e+000
4.686251e+002,0.000000e+000
4.705536e+002,0.000000e+000
4.724821e+002,0.000000e+000
4.744106e+002,0.000000e+000
4.763391e+002,0.000000e+000
4.782676e+002,0.000000e+000
4.801961e+002,0.000000e+000
4.821246e+002,0.000000e+000
4.840531e+002,0.000000e+000
4.859816e+002,0.000000e+000
4.879101e+002,0.000000e+000
4.898386e+002,0.000000e+000
4.917671e+002,0.000000e+000
4.936956e+002,0.000000e+000
4.956241e+002,0.000000e+000
4.975526e+002,0.000000e+000
4.994811e+002,0.000000e+000
5.014096e+002,0.000000e+000
5.033381e+002,0.000000e+000
5.052666e+002,0.000000e+000
5.071951e+002,0.000000e+000
5.091236e+002,0.000000e+000
5.110521e+002,0.000000e+000
5.129806e+002,0.000000e+000
5.149091e+002,0.000000e+000
5.168376e+002,0.000000e+000
5.187661e+002,0.000000e+000
5.206946e+002,0.000000e+000
5.226230e+002,0.000000e+000
5.245516e+002,-6.566755e-005
5.264800e+002,-8.625258e-005
5.284086e+002,-1.471778e-004
5.303370e+002,-5.618576e-005
5.322656e+002,-6.226450e-005
5.341940e+002,-1.482395e-004
5.361226e+002,-1.298534e-004
5.380510e+002,-7.165223e-005
5.399796e+002,-1.981948e-005
5.419081e+002,-5.273335e-005
5.438365e+002,1.215190e-005
5.457650e+002,7.336680e-005
5.476935e+002,1.111981e-004
5.496221e+002,-4.628673e-007
5.515505e+002,7.742830e-005
5.534790e+002,2.674013e-005
5.554075e+002,-1.002289e-005
5.573361e+002,-6.041490e-006
5.592645e+002,-5.141925e-005
5.611931e+002,-1.557246e-004
5.631215e+002,-1.354516e-004
5.650500e+002,-1.220200e-004
5.669785e+002,-2.267174e-004
5.689070e+002,-3.915457e-004
5.708355e+002,-2.070749e-004
5.727640e+002,-1.790095e-005
5.746925e+002,1.014760e-004
5.766210e+002,1.528915e-004
5.785495e+002,1.141764e-004
5.804780e+002,-7.026829e-006
5.824065e+002,-1.395801e-004
5.843350e+002,-1.544002e-004
5.862635e+002,-1.520189e-004
5.881920e+002,-2.046516e-004
5.901205e+002,-1.304457e-004
5.920490e+002,-5.631149e-005
5.939775e+002,-2.794433e-005
5.959060e+002,-5.078036e-005
5.978345e+002,-1.000818e-004
5.997630e+002,-1.490125e-004
6.016915e+002,-2.111346e-004
6.036200e+002,-1.705121e-004
6.055485e+002,2.484396e-005
6.074770e+002,7.352419e-005
6.094055e+002,9.854138e-005
6.113340e+002,1.550186e-005
6.132625e+002,-7.013697e-005
6.151910e+002,-2.246052e-004
6.171195e+002,-2.241926e-004
6.190480e+002,-1.243623e-004
6.209765e+002,-3.721286e-005
6.229050e+002,-2.942048e-005
6.248335e+002,1.549618e-004
6.267620e+002,3.010863e-004
6.286905e+002,3.164308e-004
6.306190e+002,2.541812e-004
6.325475e+002,2.782373e-004
6.344760e+002,3.767703e-004
6.364045e+002,4.136367e-004
6.383330e+002,3.983611e-004
6.402615e+002,4.824251e-004
6.421899e+002,5.049426e-004
6.441185e+002,5.741725e-004
6.460470e+002,5.067559e-004
6.479755e+002,4.253900e-004
6.499039e+002,3.414247e-004
6.518325e+002,3.470453e-004
6.537610e+002,3.241468e-004
6.556895e+002,4.453650e-004
6.576179e+002,5.883574e-004
6.595464e+002,7.124711e-004
6.614750e+002,6.062035e-004
6.634034e+002,6.293319e-004
6.653319e+002,7.053679e-004
6.672604e+002,7.336680e-004
6.691890e+002,7.513175e-004
6.711174e+002,8.117054e-004
6.730460e+002,9.056544e-004
6.749745e+002,1.064287e-003
6.769030e+002,1.087266e-003
6.788314e+002,1.169944e-003
6.807599e+002,1.247926e-003
6.826885e+002,1.566613e-003
6.846169e+002,1.723739e-003
6.865454e+002,1.857470e-003
6.884739e+002,2.049931e-003
6.904025e+002,2.422306e-003
6.923309e+002,2.710894e-003
6.942594e+002,3.095303e-003
6.961879e+002,3.559778e-003
6.981165e+002,4.317201e-003
7.000449e+002,5.252124e-003
7.019734e+002,6.686173e-003
7.039019e+002,8.434623e-003
7.058304e+002,1.080377e-002
7.077589e+002,1.405526e-002
7.096874e+002,1.906148e-002
7.116159e+002,2.759195e-002
7.135444e+002,4.427903e-002
7.154729e+002,7.205484e-002
7.174014e+002,1.041463e-001
7.193299e+002,1.141905e-001
7.212584e+002,8.501801e-002
7.231869e+002,5.674339e-002
7.251154e+002,4.648290e-002
7.270439e+002,5.052595e-002
7.289724e+002,6.575935e-002
7.309009e+002,6.281987e-002
7.328294e+002,3.607129e-002
7.347579e+002,1.813631e-002
7.366864e+002,1.176836e-002
7.386149e+002,9.174932e-003
7.405434e+002,7.628264e-003
7.424719e+002,6.687456e-003
7.444004e+002,5.966399e-003
7.463289e+002,5.338781e-003
7.482574e+002,4.832817e-003
7.501859e+002,4.572107e-003
7.521144e+002,4.267432e-003
7.540428e+002,4.050560e-003
7.559714e+002,3.813268e-003
7.578999e+002,3.484496e-003
7.598284e+002,3.202298e-003
7.617568e+002,3.087356e-003
7.636854e+002,2.958301e-003
7.656139e+002,2.799321e-003
7.675424e+002,2.686961e-003
7.694709e+002,2.588386e-003
7.713994e+002,2.489094e-003
7.733279e+002,2.393061e-003
7.752563e+002,2.286135e-003
7.771849e+002,2.212062e-003
7.791134e+002,2.165095e-003
7.810419e+002,2.143604e-003
7.829703e+002,2.107842e-003
7.848989e+002,2.084515e-003
7.868274e+002,2.056346e-003
7.887559e+002,2.025017e-003
7.906843e+002,2.003761e-003
7.926129e+002,1.908142e-003
7.945414e+002,1.854547e-003
7.964698e+002,1.903245e-003
7.983983e+002,1.956400e-003
8.003268e+002,1.990523e-003
8.022554e+002,1.900452e-003
8.041838e+002,1.845764e-003
8.061123e+002,1.831059e-003
8.080408e+002,1.693710e-003
8.099694e+002,1.653036e-003
8.118978e+002,1.627051e-003
8.138263e+002,1.487738e-003
8.157548e+002,1.305774e-003
8.176833e+002,1.311165e-003
8.196118e+002,1.387519e-003
8.215403e+002,1.356101e-003
8.234689e+002,1.177710e-003
8.253973e+002,1.120785e-003
8.273258e+002,1.118859e-003
8.292543e+002,1.091400e-003
8.311829e+002,1.030785e-003
8.331113e+002,1.055866e-003
8.350398e+002,1.037035e-003
8.369683e+002,1.022100e-003
8.388969e+002,1.030897e-003
8.408253e+002,1.033759e-003
8.427538e+002,1.012334e-003
8.446823e+002,1.052544e-003
8.466108e+002,1.040457e-003
8.485393e+002,1.141652e-003
8.504678e+002,1.211865e-003
8.523963e+002,1.222450e-003
8.543248e+002,1.148450e-003
8.562533e+002,1.091165e-003
8.581818e+002,1.115979e-003
8.601103e+002,1.205203e-003
8.620388e+002,1.202399e-003
8.639673e+002,1.230894e-003
8.658958e+002,1.214935e-003
8.678243e+002,1.154783e-003
8.697528e+002,1.164258e-003
8.716813e+002,1.148934e-003
8.736098e+002,1.119548e-003
8.755383e+002,1.124852e-003
8.774668e+002,1.176649e-003
8.793953e+002,1.359005e-003
8.813238e+002,1.401518e-003
8.832523e+002,1.443451e-003
8.851808e+002,1.405952e-003
8.871093e+002,1.502099e-003
8.890378e+002,1.653207e-003
8.909663e+002,1.595026e-003
8.928948e+002,1.332993e-003
8.948232e+002,1.273441e-003
8.967518e+002,1.282862e-003
8.986803e+002,1.277701e-003
9.006088e+002,1.334587e-003
9.025372e+002,1.534995e-003
9.044658e+002,1.895253e-003
9.063943e+002,2.295616e-003
9.083228e+002,2.375643e-003
9.102512e+002,2.026799e-003
9.121797e+002,1.666836e-003
9.141083e+002,1.554632e-003
9.160367e+002,1.368947e-003
9.179653e+002,1.432570e-003
9.198937e+002,1.374412e-003
9.218223e+002,1.273331e-003
9.237507e+002,1.111808e-003
9.256793e+002,1.189250e-003
9.276077e+002,1.225864e-003
9.295363e+002,1.167018e-003
9.314647e+002,1.216615e-003
9.333932e+002,1.295011e-003
9.353217e+002,1.302706e-003
9.372502e+002,1.323559e-003
9.391787e+002,1.211769e-003
9.411072e+002,1.174058e-003
9.430358e+002,1.133434e-003
9.449642e+002,1.113481e-003
9.468928e+002,1.107544e-003
9.488212e+002,1.114316e-003
9.507498e+002,1.061199e-003
9.526782e+002,1.171040e-003
9.546068e+002,1.265883e-003
9.565352e+002,1.332276e-003
9.584637e+002,1.328703e-003
9.603922e+002,1.360531e-003
9.623207e+002,1.381155e-003
9.642492e+002,1.448686e-003
9.661777e+002,1.472218e-003
9.681062e+002,1.534484e-003
9.700347e+002,1.508427e-003
9.719632e+002,1.527408e-003
9.738917e+002,1.491854e-003
9.758202e+002,1.501184e-003
9.777487e+002,1.453890e-003
9.796772e+002,1.495103e-003
9.816057e+002,1.576543e-003
9.835342e+002,1.734293e-003
9.854627e+002,1.894540e-003
9.873912e+002,2.111626e-003
9.893197e+002,2.346521e-003
9.912482e+002,2.567329e-003
9.931767e+002,2.710815e-003
9.951052e+002,2.937181e-003
9.970337e+002,3.091934e-003
9.989622e+002,3.287115e-003
1.000891e+003,3.473544e-003
1.002819e+003,3.711153e-003
1.004748e+003,3.923546e-003
1.006676e+003,4.114536e-003
1.008605e+003,4.244868e-003
1.010533e+003,4.385982e-003
1.012462e+003,4.372288e-003
1.014390e+003,4.369775e-003
1.016319e+003,4.357402e-003
1.018247e+003,4.348723e-003
1.020176e+003,4.277225e-003
1.022104e+003,4.228398e-003
1.024033e+003,4.163991e-003
1.025961e+003,4.133740e-003
1.027890e+003,4.064430e-003
1.029818e+003,4.057054e-003
1.031747e+003,4.041750e-003
1.033675e+003,4.013682e-003
1.035604e+003,3.912318e-003
1.037532e+003,3.964068e-003
1.039461e+003,4.078993e-003
1.041389e+003,4.250781e-003
1.043318e+003,4.382193e-003
1.045246e+003,4.516206e-003
1.047175e+003,4.598931e-003
1.049103e+003,4.857312e-003
1.051032e+003,5.042061e-003
1.052960e+003,5.045547e-003
1.054889e+003,4.904282e-003
1.056817e+003,4.833567e-003
1.058746e+003,4.789494e-003
1.060674e+003,4.773090e-003
1.062603e+003,4.702570e-003
1.064531e+003,4.722715e-003
1.066460e+003,4.691863e-003
1.068388e+003,4.756310e-003
1.070317e+003,4.890655e-003
1.072245e+003,5.233916e-003
1.074174e+003,5.469673e-003
1.076102e+003,5.732750e-003
1.078031e+003,5.862950e-003
1.079959e+003,5.894952e-003
1.081888e+003,5.829561e-003
1.083816e+003,5.736760e-003
1.085745e+003,5.584051e-003
1.087673e+003,5.505340e-003
1.089602e+003,5.368516e-003
1.091530e+003,5.327830e-003
1.093459e+003,5.242542e-003
1.095387e+003,5.184274e-003
1.097316e+003,5.112290e-003
1.099244e+003,5.122076e-003
1.101173e+003,5.049260e-003
1.103101e+003,5.066379e-003
1.105030e+003,5.044009e-003
1.106958e+003,4.985923e-003
1.108887e+003,4.868594e-003
1.110815e+003,4.793087e-003
1.112744e+003,4.673504e-003
1.114672e+003,4.650427e-003
1.116601e+003,4.536304e-003
1.118529e+003,4.495379e-003
1.120458e+003,4.492831e-003
1.122386e+003,4.460513e-003
1.124315e+003,4.400876e-003
1.126243e+003,4.460925e-003
1.128172e+003,4.424244e-003
1.130100e+003,4.458080e-003
1.132029e+003,4.482020e-003
1.133957e+003,4.569925e-003
1.135885e+003,4.569549e-003
1.137814e+003,4.559027e-003
1.139743e+003,4.564796e-003
1.141671e+003,4.702860e-003
1.143600e+003,4.783873e-003
1.145528e+003,5.004818e-003
1.147457e+003,5.309604e-003
1.149385e+003,5.701667e-003
1.151314e+003,6.057175e-003
1.153242e+003,6.448789e-003
1.155171e+003,6.716877e-003
1.157099e+003,6.957565e-003
1.159028e+003,7.079162e-003
1.160956e+003,7.160774e-003
1.162885e+003,7.062130e-003
1.164813e+003,6.923217e-003
1.166742e+003,6.690642e-003
1.168670e+003,6.448362e-003
1.170599e+003,6.096639e-003
1.172527e+003,5.791707e-003
1.174456e+003,5.501432e-003
1.176384e+003,5.328827e-003
1.178313e+003,5.020954e-003
1.180241e+003,4.756395e-003
1.182170e+003,4.626457e-003
1.184098e+003,4.626546e-003
1.186027e+003,4.555428e-003
1.187955e+003,4.576514e-003
1.189884e+003,4.605591e-003
1.191812e+003,4.715666e-003
1.193740e+003,4.744334e-003
1.195669e+003,4.820257e-003
1.197598e+003,4.911078e-003
1.199526e+003,5.094606e-003
1.201455e+003,5.219398e-003
1.203383e+003,5.449606e-003
1.205312e+003,5.708518e-003
1.207240e+003,5.985746e-003
1.209168e+003,6.199207e-003
1.211097e+003,6.502444e-003
1.213026e+003,6.708026e-003
1.214954e+003,6.927952e-003
1.216883e+003,7.097198e-003
1.218811e+003,7.304879e-003
1.220740e+003,7.491773e-003
1.222668e+003,7.757826e-003
1.224596e+003,7.947894e-003
1.226525e+003,8.165261e-003
1.228453e+003,8.307762e-003
1.230382e+003,8.527290e-003
1.232311e+003,8.681361e-003
1.234239e+003,8.838117e-003
1.236167e+003,8.943291e-003
1.238096e+003,9.079020e-003
1.240025e+003,9.109383e-003
1.241953e+003,9.110548e-003
1.243882e+003,9.021169e-003
1.245810e+003,8.899422e-003
1.247739e+003,8.665118e-003
1.249667e+003,8.501798e-003
1.251595e+003,8.246517e-003
1.253524e+003,8.057373e-003
1.255453e+003,7.899778e-003
1.257381e+003,7.819936e-003
1.259310e+003,7.655399e-003
1.261238e+003,7.541304e-003
1.263167e+003,7.290483e-003
1.265095e+003,7.120294e-003
1.267023e+003,6.945785e-003
1.268952e+003,6.900363e-003
1.270880e+003,6.852202e-003
1.272809e+003,6.824963e-003
1.274738e+003,6.737104e-003
1.276666e+003,6.751988e-003
1.278594e+003,6.742179e-003
1.280523e+003,6.880954e-003
1.282451e+003,6.960146e-003
1.284380e+003,7.142045e-003
1.286308e+003,7.374059e-003
1.288237e+003,7.692898e-003
1.290166e+003,7.831397e-003
1.292094e+003,8.184778e-003
1.294022e+003,8.599661e-003
1.295951e+003,9.095175e-003
1.297879e+003,9.396659e-003
1.299808e+003,9.661444e-003
1.301736e+003,9.709226e-003
1.303665e+003,9.753749e-003
1.305594e+003,9.665066e-003
1.307522e+003,9.615457e-003
1.309450e+003,9.339157e-003
1.311379e+003,9.101171e-003
1.313307e+003,8.679617e-003
1.315236e+003,8.240590e-003
1.317164e+003,7.825464e-003
1.319093e+003,7.462535e-003
1.321021e+003,6.843328e-003
1.322950e+003,6.463969e-003
1.324878e+003,6.160779e-003
1.326807e+003,6.071841e-003
1.328735e+003,6.010436e-003
1.330664e+003,6.143887e-003
1.332592e+003,6.296355e-003
1.334521e+003,6.793715e-003
1.336449e+003,7.596156e-003
1.338378e+003,8.830169e-003
1.340306e+003,9.441780e-003
1.342235e+003,9.438848e-003
1.344163e+003,9.676754e-003
1.346092e+003,1.036723e-002
1.348021e+003,1.108173e-002
1.349949e+003,1.183249e-002
1.351877e+003,1.217334e-002
1.353806e+003,1.227218e-002
1.355734e+003,1.199603e-002
1.357663e+003,1.205249e-002
1.359591e+003,1.251008e-002
1.361520e+003,1.371590e-002
1.363448e+003,1.488912e-002
1.365377e+003,1.565818e-002
1.367305e+003,1.637551e-002
1.369234e+003,1.644373e-002
1.371162e+003,1.533081e-002
1.373091e+003,1.455605e-002
1.375019e+003,1.403449e-002
1.376948e+003,1.368273e-002
1.378876e+003,1.197862e-002
1.380805e+003,9.275829e-003
1.382733e+003,7.236628e-003
1.384662e+003,6.492805e-003
1.386590e+003,6.271666e-003
1.388519e+003,5.898630e-003
1.390447e+003,5.339539e-003
1.392376e+003,5.459201e-003
1.394304e+003,5.904794e-003
1.396233e+003,6.132735e-003
1.398161e+003,5.868273e-003
1.400090e+003,5.613366e-003
1.402018e+003,5.205944e-003
1.403947e+003,5.613349e-003
1.405875e+003,5.678773e-003
1.407804e+003,5.720539e-003
1.409732e+003,5.762981e-003
1.411661e+003,6.071392e-003
1.413589e+003,6.158791e-003
1.415518e+003,6.970625e-003
1.417446e+003,7.808097e-003
1.419375e+003,8.596919e-003
1.421303e+003,8.303652e-003
1.423232e+003,9.401290e-003
1.425160e+003,1.072476e-002
1.427089e+003,1.257200e-002
1.429017e+003,1.506865e-002
1.430946e+003,1.878959e-002
1.432874e+003,2.176894e-002
1.434803e+003,2.494519e-002
1.436731e+003,2.801600e-002
1.438660e+003,2.995850e-002
1.440588e+003,3.101553e-002
1.442517e+003,3.310572e-002
1.444445e+003,3.468612e-002
1.446374e+003,3.725947e-002
1.448302e+003,4.062597e-002
1.450231e+003,4.583255e-002
1.452159e+003,5.396828e-002
1.454088e+003,6.488431e-002
1.456016e+003,7.628535e-002
1.457945e+003,1.011904e-001
1.459873e+003,1.448354e-001
1.461802e+003,1.900297e-001
1.463730e+003,1.910627e-001
1.465659e+003,1.510176e-001
1.467587e+003,1.400770e-001
1.469516e+003,1.408284e-001
1.471444e+003,1.620648e-001
1.473373e+003,1.409760e-001
1.475301e+003,7.550853e-002
1.477230e+003,3.313589e-002
1.479158e+003,2.072188e-002
1.481087e+003,1.501521e-002
1.483015e+003,1.233786e-002
1.484944e+003,1.051531e-002
1.486872e+003,1.059888e-002
1.488801e+003,9.600410e-003
1.490729e+003,8.796519e-003
1.492658e+003,7.003104e-003
1.494586e+003,7.257111e-003
1.496515e+003,7.058596e-003
1.498443e+003,6.786212e-003
1.500372e+003,5.699109e-003
1.502300e+003,5.805118e-003
1.504229e+003,5.907761e-003
1.506157e+003,8.447343e-003
1.508086e+003,7.459849e-003
1.510014e+003,6.204024e-003
1.511943e+003,5.240299e-003
1.513871e+003,5.333195e-003
1.515800e+003,5.645961e-003
1.517728e+003,6.027585e-003
1.519657e+003,5.797789e-003
1.521585e+003,6.713903e-003
1.523514e+003,5.411182e-003
1.525442e+003,5.339751e-003
1.527371e+003,4.905665e-003
1.529299e+003,4.708491e-003
1.531228e+003,4.467919e-003
1.533156e+003,5.223664e-003
1.535085e+003,4.513234e-003
1.537013e+003,4.815664e-003
1.538942e+003,6.291037e-003
1.540870e+003,7.569935e-003
1.542799e+003,5.681830e-003
1.544727e+003,5.353183e-003
1.546656e+003,4.032537e-003
1.548584e+003,4.141487e-003
1.550513e+003,3.899733e-003
1.552441e+003,3.746962e-003
1.554370e+003,4.069231e-003
1.556298e+003,4.786259e-003
1.558227e+003,5.878415e-003
1.560155e+003,4.648214e-003
1.562084e+003,3.139894e-003
1.564012e+003,3.221979e-003
1.565941e+003,3.089214e-003
1.567869e+003,3.254682e-003
1.569798e+003,3.293062e-003
1.571726e+003,2.947446e-003
1.573655e+003,2.951184e-003
1.575583e+003,3.887830e-003
1.577512e+003,3.417326e-003
1.579440e+003,2.760602e-003
1.581369e+003,2.547143e-003
1.583297e+003,2.629850e-003
1.585226e+003,2.503095e-003
1.587154e+003,2.555856e-003
1.589083e+003,2.544951e-003
1.591011e+003,2.710415e-003
1.592940e+003,2.834700e-003
1.594868e+003,3.084989e-003
1.596797e+003,2.860295e-003
1.598725e+003,2.724687e-003
1.600654e+003,2.656031e-003
1.602582e+003,2.756873e-003
1.604511e+003,2.697743e-003
1.606439e+003,2.962478e-003
1.608368e+003,2.995813e-003
1.610296e+003,2.986535e-003
1.612225e+003,2.938373e-003
1.614153e+003,3.352614e-003
1.616082e+003,3.955945e-003
1.618010e+003,3.505617e-003
1.619939e+003,2.962688e-003
1.621867e+003,3.699759e-003
1.623796e+003,4.138328e-003
1.625724e+003,3.732072e-003
1.627653e+003,3.559234e-003
1.629581e+003,3.423564e-003
1.631510e+003,3.419455e-003
1.633438e+003,3.976379e-003
1.635367e+003,4.926236e-003
1.637295e+003,4.401013e-003
1.639224e+003,3.678197e-003
1.641152e+003,3.769388e-003
1.643081e+003,4.042890e-003
1.645009e+003,4.712084e-003
1.646938e+003,5.454220e-003
1.648866e+003,4.608344e-003
1.650795e+003,4.408039e-003
1.652723e+003,6.029310e-003
1.654652e+003,4.466781e-003
1.656580e+003,3.205981e-003
1.658509e+003,2.932802e-003
1.660437e+003,3.229836e-003
1.662366e+003,3.356697e-003
1.664294e+003,2.804102e-003
1.666223e+003,2.627976e-003
1.668151e+003,3.460104e-003
1.670080e+003,3.791615e-003
1.672008e+003,2.981482e-003
1.673937e+003,2.907788e-003
1.675865e+003,2.923794e-003
1.677794e+003,2.464373e-003
1.679722e+003,2.933560e-003
1.681651e+003,3.303010e-003
1.683579e+003,4.588652e-003
1.685508e+003,3.446169e-003
1.687436e+003,2.775358e-003
1.689365e+003,2.518479e-003
1.691293e+003,2.134712e-003
1.693222e+003,2.053568e-003
1.695150e+003,3.263626e-003
1.697079e+003,3.664495e-003
1.699007e+003,3.541714e-003
1.700936e+003,3.387414e-003
1.702864e+003,3.151655e-003
1.704793e+003,3.315447e-003
1.706721e+003,3.183914e-003
1.708650e+003,2.650620e-003
1.710578e+003,2.622135e-003
1.712507e+003,2.966912e-003
1.714435e+003,3.979404e-003
1.716364e+003,4.753629e-003
1.718292e+003,4.428508e-003
1.720221e+003,3.115239e-003
1.722149e+003,2.892809e-003
1.724078e+003,2.785960e-003
1.726006e+003,2.574809e-003
1.727935e+003,2.839021e-003
1.729863e+003,3.899248e-003
1.731792e+003,4.520075e-003
1.733720e+003,5.638449e-003
1.735649e+003,4.751978e-003
1.737577e+003,4.518369e-003
1.739506e+003,4.954260e-003
1.741434e+003,5.113456e-003
1.743363e+003,5.022274e-003
1.745291e+003,4.892403e-003
1.747220e+003,5.155316e-003
1.749148e+003,5.106537e-003
1.751077e+003,4.140938e-003
1.753005e+003,2.739059e-003
1.754934e+003,2.025571e-003
1.756862e+003,1.956737e-003
1.758791e+003,1.427462e-003
1.760719e+003,1.369065e-003
1.762648e+003,1.025889e-003
1.764576e+003,3.706645e-004
1.766505e+003,4.294105e-004
1.768433e+003,9.607356e-004
1.770362e+003,1.365073e-003
1.772290e+003,1.720119e-003
1.774219e+003,6.883461e-004
1.776147e+003,1.473147e-004
1.778076e+003,5.978532e-005
1.780004e+003,4.220996e-004
1.781933e+003,-7.417612e-005
1.783861e+003,-1.351014e-004
1.785790e+003,-1.938380e-004
1.787718e+003,-1.930334e-004
1.789646e+003,2.186503e-004
1.791575e+003,1.017703e-003
1.793504e+003,3.896225e-004
1.795432e+003,1.795106e-004
1.797361e+003,7.612631e-005
1.799289e+003,3.761146e-004
1.801218e+003,4.018806e-004
1.803146e+003,-3.212504e-005
1.805074e+003,-4.102960e-004
1.807003e+003,-2.189744e-004
1.808932e+003,-2.484825e-004
1.810860e+003,-2.294909e-004
1.812789e+003,-6.053317e-004
1.814717e+003,-8.803979e-004
1.816646e+003,-9.660460e-004
1.818574e+003,-6.542932e-004
1.820502e+003,-5.473346e-004
1.822431e+003,-1.932308e-004
1.824360e+003,9.973161e-005
1.826288e+003,-1.555495e-005
1.828217e+003,2.080947e-005
1.830145e+003,3.840718e-004
1.832073e+003,-3.648642e-004
1.834002e+003,-5.754754e-004
1.835931e+003,-4.759617e-004
1.837859e+003,-3.907364e-004
1.839788e+003,-6.837193e-004
1.841716e+003,-2.521984e-004
1.843645e+003,4.127286e-004
1.845573e+003,2.213586e-004
1.847501e+003,-5.087797e-004
1.849430e+003,-7.304791e-004
1.851359e+003,-1.020839e-003
1.853287e+003,-1.090419e-003
1.855216e+003,-1.183819e-003
1.857144e+003,-9.341333e-004
1.859073e+003,-1.033744e-003
1.861001e+003,-9.245798e-004
1.862929e+003,-1.121046e-003
1.864858e+003,-8.512158e-004
1.866787e+003,-2.998728e-004
1.868715e+003,4.982743e-004
1.870644e+003,-3.599934e-004
1.872572e+003,-8.917078e-004
1.874500e+003,-1.131490e-003
1.876429e+003,-1.015862e-003
1.878357e+003,-1.299892e-003
1.880286e+003,-1.283174e-003
1.882215e+003,-1.272719e-003
1.884143e+003,-9.721145e-004
1.886072e+003,-1.004910e-003
1.888000e+003,-5.964879e-004
1.889928e+003,-6.763581e-004
1.891857e+003,-4.999693e-004
1.893785e+003,-1.409892e-004
1.895714e+003,2.523772e-004
1.897643e+003,-2.558902e-005
1.899571e+003,-5.662441e-006
1.901500e+003,-4.805624e-006
1.903428e+003,-3.958121e-006
1.905356e+003,-3.114343e-006
1.907285e+003,-2.283603e-006
1.909213e+003,-1.456589e-006
1.911142e+003,-6.351620e-007
1.913071e+003,1.750886e-007
1.914999e+003,9.816140e-007
1.916927e+003,1.782551e-006
1.918856e+003,2.574176e-006
1.920784e+003,3.360212e-006
1.922713e+003,4.138798e-006
1.924641e+003,4.908070e-006
1.926570e+003,5.673617e-006
1.928499e+003,6.429851e-006
1.930427e+003,7.182360e-006
1.932355e+003,7.923692e-006
1.934284e+003,8.665025e-006
1.936212e+003,9.395182e-006
1.938141e+003,1.011230e-005
1.940070e+003,1.082942e-005
1.941998e+003,1.153722e-005
1.943927e+003,1.223944e-005
1.945855e+003,1.293607e-005
1.947783e+003,1.362711e-005
1.949712e+003,1.430511e-005
1.951640e+003,1.497939e-005
1.953569e+003,1.564808e-005
1.955498e+003,1.630932e-005
1.957426e+003,1.696125e-005
1.959354e+003,1.760572e-005
1.961283e+003,1.824275e-005
1.963211e+003,1.887977e-005
1.965140e+003,1.950562e-005
1.967068e+003,2.012216e-005
1.968997e+003,2.072938e-005
1.970926e+003,2.133474e-005
1.972854e+003,2.193637e-005
1.974782e+003,2.252497e-005
1.976711e+003,2.310984e-005
1.978639e+003,2.368540e-005
1.980568e+003,2.425723e-005
1.982496e+003,2.481788e-005
1.984425e+003,2.537668e-005
1.986354e+003,2.592430e-005
1.988282e+003,2.646446e-005
1.990210e+003,2.700090e-005
1.992139e+003,2.752990e-005
1.994067e+003,2.804957e-005
1.995996e+003,2.856366e-005
1.997924e+003,2.907030e-005
1.999853e+003,2.957135e-005
2.001781e+003,3.006496e-005
2.003710e+003,3.054924e-005
2.005638e+003,3.102981e-005
2.007567e+003,3.150478e-005
2.009495e+003,3.196672e-005
2.011424e+003,3.242493e-005
2.013352e+003,3.287941e-005
2.015281e+003,3.332272e-005
2.017209e+003,3.376044e-005
2.019138e+003,3.418885e-005
2.021066e+003,3.461167e-005
2.022995e+003,3.503449e-005
2.024923e+003,3.544055e-005
2.026852e+003,3.584288e-005
2.028781e+003,3.623962e-005
2.030709e+003,3.662892e-005
2.032637e+003,3.701076e-005
2.034566e+003,3.738329e-005
2.036494e+003,3.775582e-005
2.038423e+003,3.811717e-005
2.040351e+003,3.847107e-005
2.042280e+003,3.882125e-005
2.044208e+003,3.915839e-005
2.046137e+003,3.948994e-005
2.048065e+003,3.981404e-005
2.049994e+003,4.013628e-005
2.051922e+003,4.044920e-005
2.053851e+003,4.075840e-005
2.055779e+003,4.105642e-005
2.057708e+003,4.134700e-005
2.059636e+003,4.163012e-005
2.061565e+003,4.190579e-005
2.063493e+003,4.217774e-005
2.065422e+003,4.244223e-005
2.067350e+003,4.270114e-005
2.069279e+003,4.294887e-005
2.071207e+003,4.319288e-005
2.073136e+003,4.343130e-005
2.075064e+003,4.365854e-005
2.076993e+003,4.388019e-005
2.078921e+003,4.409626e-005
2.080850e+003,4.430115e-005
2.082778e+003,4.450232e-005
2.084707e+003,4.469976e-005
2.086635e+003,4.488975e-005
2.088564e+003,4.506856e-005
2.090492e+003,4.523993e-005
2.092421e+003,4.540384e-005
2.094349e+003,4.556775e-005
2.096278e+003,4.571676e-005
2.098206e+003,4.586577e-005
2.100135e+003,4.600361e-005
2.102063e+003,4.613586e-005
2.103992e+003,4.626065e-005
2.105920e+003,4.637800e-005
2.107849e+003,4.648603e-005
2.109777e+003,4.659221e-005
2.111706e+003,4.668906e-005
2.113634e+003,4.678220e-005
2.115563e+003,4.686415e-005
2.117491e+003,4.694238e-005
2.119420e+003,4.700944e-005
2.121348e+003,4.706904e-005
2.123277e+003,4.712492e-005
2.125205e+003,4.717335e-005
2.127134e+003,4.721433e-005
2.129062e+003,4.725344e-005
2.130991e+003,4.727952e-005
2.132919e+003,4.729629e-005
2.134848e+003,4.731305e-005
2.136776e+003,4.731864e-005
2.138705e+003,4.731864e-005
2.140633e+003,4.731119e-005
2.142562e+003,4.729815e-005
2.144490e+003,4.727766e-005
2.146419e+003,4.724786e-005
2.148347e+003,4.721433e-005
2.150276e+003,4.716963e-005
2.152204e+003,4.712306e-005
2.154133e+003,4.706718e-005
2.156061e+003,4.700758e-005
2.157990e+003,4.693680e-005
2.159918e+003,4.685856e-005
2.161847e+003,4.677288e-005
2.163775e+003,4.668161e-005
2.165704e+003,4.658103e-005
2.167632e+003,4.647672e-005
2.169561e+003,4.636683e-005
2.171489e+003,4.624948e-005
2.173418e+003,4.612654e-005
2.175346e+003,4.599243e-005
2.177275e+003,4.585460e-005
2.179203e+003,4.570559e-005
2.181132e+003,4.555471e-005
2.183060e+003,4.539266e-005
2.184989e+003,4.522502e-005
2.186917e+003,4.505366e-005
2.188846e+003,4.487298e-005
2.190774e+003,4.468113e-005
2.192703e+003,4.448742e-005
2.194631e+003,4.428253e-005
2.196560e+003,4.407577e-005
2.198488e+003,4.386157e-005
2.200417e+003,4.363991e-005
2.202345e+003,4.341081e-005
2.204274e+003,4.317611e-005
2.206202e+003,4.293025e-005
2.208131e+003,4.267693e-005
2.210059e+003,4.241988e-005
2.211988e+003,4.215539e-005
2.213916e+003,4.188344e-005
2.215845e+003,4.160404e-005
2.217773e+003,4.132092e-005
2.219702e+003,4.103035e-005
2.221630e+003,4.072860e-005
2.223559e+003,4.041940e-005
2.225487e+003,4.010834e-005
2.227416e+003,3.978983e-005
2.229344e+003,3.946200e-005
2.231273e+003,3.913045e-005
2.233201e+003,3.879145e-005
2.235130e+003,3.844127e-005
2.237058e+003,3.808551e-005
2.238987e+003,3.772229e-005
2.240915e+003,3.735162e-005
2.242844e+003,3.697723e-005
2.244772e+003,3.659539e-005
2.246701e+003,3.620982e-005
2.248629e+003,3.581122e-005
2.250558e+003,3.540516e-005
2.252486e+003,3.499724e-005
2.254415e+003,3.457814e-005
2.256343e+003,3.415346e-005
2.258272e+003,3.371760e-005
2.260200e+003,3.327988e-005
2.262129e+003,3.284216e-005
2.264057e+003,3.238581e-005
2.265986e+003,3.192574e-005
2.267914e+003,3.146194e-005
2.269843e+003,3.098510e-005
2.271771e+003,3.050640e-005
2.273700e+003,3.002211e-005
2.275628e+003,2.953038e-005
2.277557e+003,2.902746e-005
2.279485e+003,2.852269e-005
2.281414e+003,2.800487e-005
2.283342e+003,2.748333e-005
2.285271e+003,2.695248e-005
2.287199e+003,2.641603e-005
2.289128e+003,2.587773e-005
2.291056e+003,2.532639e-005
2.292985e+003,2.476946e-005
2.294913e+003,2.420507e-005
2.296842e+003,2.363510e-005
2.298770e+003,2.305955e-005
2.300699e+003,2.247468e-005
2.302627e+003,2.188608e-005
2.304556e+003,2.128631e-005
2.306484e+003,2.068467e-005
2.308413e+003,2.006814e-005
2.310341e+003,1.944974e-005
2.312270e+003,1.882017e-005
2.314198e+003,1.818687e-005
2.316127e+003,1.754612e-005
2.318055e+003,1.689792e-005
2.319984e+003,1.624599e-005
2.321912e+003,1.558661e-005
2.323841e+003,1.492351e-005
2.325769e+003,1.424924e-005
2.327698e+003,1.356378e-005
2.329626e+003,1.287460e-005
2.331555e+003,1.217797e-005
2.333483e+003,1.148134e-005
2.335412e+003,1.076981e-005
2.337340e+003,1.005456e-005
2.339269e+003,9.328127e-006
2.341197e+003,8.597970e-006
2.343126e+003,7.860363e-006
2.345054e+003,7.115304e-006
2.346983e+003,6.366521e-006
2.348911e+003,5.606562e-006
2.350840e+003,4.842877e-006
2.352768e+003,4.075468e-006
2.354697e+003,3.293157e-006
2.356625e+003,2.507120e-006
2.358554e+003,1.713634e-006
2.360482e+003,9.126961e-007
2.362411e+003,1.080334e-007
2.364339e+003,-7.040799e-007
2.366268e+003,-1.527369e-006
2.368196e+003,-2.354383e-006
2.370125e+003,-3.188848e-006
2.372053e+003,-4.030764e-006
2.373982e+003,-4.883856e-006
2.375910e+003,-5.733222e-006
2.377839e+003,-6.597489e-006
2.379767e+003,-7.469207e-006
2.381696e+003,-8.344650e-006
2.383624e+003,-9.223819e-006
2.385553e+003,-1.011416e-005
2.387481e+003,-1.101196e-005
2.389410e+003,-1.191720e-005
2.391338e+003,-1.282617e-005
2.393267e+003,-1.374260e-005
2.395195e+003,-1.467019e-005
2.397124e+003,-1.560152e-005
2.399052e+003,-1.654401e-005
2.400981e+003,-4.016608e-005
2.402909e+003,-2.087094e-004
2.404838e+003,-1.164675e-004
2.406766e+003,1.409911e-004
2.408695e+003,3.527105e-004
2.410623e+003,4.629008e-004
2.412552e+003,6.258413e-004
2.414480e+003,5.547404e-004
2.416409e+003,5.010478e-004
2.418337e+003,3.007203e-004
2.420266e+003,2.038777e-004
2.422194e+003,1.808442e-004
2.424123e+003,1.799762e-004
2.426051e+003,8.536875e-005
2.427979e+003,2.128445e-004
2.429908e+003,2.621748e-004
2.431837e+003,2.625957e-004
2.433765e+003,2.981462e-004
2.435694e+003,3.015064e-004
2.437622e+003,3.220402e-004
2.439551e+003,3.433600e-004
2.441479e+003,3.181137e-004
2.443407e+003,3.490634e-004
2.445336e+003,4.511401e-004
2.447265e+003,6.513298e-004
2.449193e+003,6.147437e-004
2.451122e+003,6.165840e-004
2.453050e+003,6.827079e-004
2.454979e+003,8.312427e-004
2.456907e+003,7.498525e-004
2.458836e+003,6.649792e-004
2.460764e+003,5.645677e-004
2.462693e+003,4.725941e-004
2.464621e+003,3.439039e-004
2.466550e+003,4.798099e-004
2.468478e+003,5.504936e-004
2.470406e+003,5.751513e-004
2.472335e+003,6.688610e-004
2.474264e+003,8.255243e-004
2.476192e+003,8.796826e-004
2.478121e+003,8.832961e-004
2.480049e+003,7.915385e-004
2.481978e+003,8.630976e-004
2.483906e+003,9.618923e-004
2.485835e+003,9.903200e-004
2.487763e+003,9.644665e-004
2.489692e+003,9.322688e-004
2.491620e+003,8.370206e-004
2.493549e+003,9.482577e-004
2.495477e+003,9.470396e-004
2.497406e+003,8.683950e-004
2.499334e+003,9.185858e-004
2.501263e+003,1.174647e-003
2.503191e+003,1.268681e-003
2.505120e+003,1.363806e-003
2.507048e+003,1.249943e-003
2.508977e+003,1.162179e-003
2.510905e+003,1.151118e-003
2.512833e+003,1.321945e-003
2.514762e+003,1.439843e-003
2.516691e+003,1.658317e-003
2.518619e+003,1.794361e-003
2.520548e+003,1.858976e-003
2.522476e+003,2.002824e-003
2.524405e+003,2.139732e-003
2.526333e+003,2.189882e-003
2.528261e+003,2.066877e-003
2.530190e+003,2.138264e-003
2.532119e+003,2.236299e-003
2.534047e+003,2.146970e-003
2.535976e+003,2.147328e-003
2.537904e+003,2.076305e-003
2.539833e+003,2.160989e-003
2.541761e+003,2.256345e-003
2.543689e+003,2.479624e-003
2.545618e+003,2.727799e-003
2.547547e+003,2.881024e-003
2.549475e+003,2.840042e-003
2.551404e+003,2.751324e-003
2.553332e+003,2.696600e-003
2.555260e+003,2.873715e-003
2.557189e+003,3.050856e-003
2.559117e+003,3.253825e-003
2.561046e+003,3.382377e-003
2.562975e+003,3.534783e-003
2.564903e+003,3.655221e-003
2.566832e+003,3.794517e-003
2.568760e+003,3.804568e-003
2.570688e+003,3.799547e-003
2.572617e+003,4.031595e-003
2.574546e+003,4.234441e-003
2.576474e+003,4.337322e-003
2.578403e+003,4.591096e-003
2.580331e+003,4.685998e-003
2.582260e+003,4.905362e-003
2.584188e+003,5.239595e-003
2.586116e+003,5.514082e-003
2.588045e+003,5.684797e-003
2.589974e+003,5.860314e-003
2.591902e+003,6.073538e-003
2.593831e+003,6.297279e-003
2.595759e+003,6.534588e-003
2.597688e+003,6.684553e-003
2.599616e+003,6.766602e-003
2.601544e+003,7.144406e-003
2.603473e+003,7.438660e-003
2.605402e+003,7.635374e-003
2.607330e+003,7.897310e-003
2.609259e+003,8.179981e-003
2.611187e+003,8.494616e-003
2.613115e+003,8.753151e-003
2.615044e+003,9.012021e-003
2.616972e+003,9.405382e-003
2.618901e+003,9.828173e-003
2.620830e+003,1.024250e-002
2.622758e+003,1.058896e-002
2.624687e+003,1.100162e-002
2.626615e+003,1.147361e-002
2.628543e+003,1.192032e-002
2.630472e+003,1.227683e-002
2.632400e+003,1.262049e-002
2.634329e+003,1.292391e-002
2.636258e+003,1.306327e-002
2.638186e+003,1.303318e-002
2.640115e+003,1.287457e-002
2.642043e+003,1.285935e-002
2.643971e+003,1.292573e-002
2.645900e+003,1.298498e-002
2.647828e+003,1.304878e-002
2.649757e+003,1.315343e-002
2.651686e+003,1.330052e-002
2.653614e+003,1.345406e-002
2.655542e+003,1.364202e-002
2.657471e+003,1.381305e-002
2.659399e+003,1.390288e-002
2.661328e+003,1.381636e-002
2.663256e+003,1.362843e-002
2.665185e+003,1.345177e-002
2.667114e+003,1.332182e-002
2.669042e+003,1.319749e-002
2.670970e+003,1.308813e-002
2.672899e+003,1.296853e-002
2.674827e+003,1.277135e-002
2.676756e+003,1.262424e-002
2.678685e+003,1.246962e-002
2.680613e+003,1.232663e-002
2.682542e+003,1.216277e-002
2.684470e+003,1.200137e-002
2.686398e+003,1.188178e-002
2.688327e+003,1.171968e-002
2.690255e+003,1.158737e-002
2.692184e+003,1.149011e-002
2.694113e+003,1.143400e-002
2.696041e+003,1.140787e-002
2.697969e+003,1.143136e-002
2.699898e+003,1.150035e-002
2.701826e+003,1.164333e-002
2.703755e+003,1.182099e-002
2.705683e+003,1.203517e-002
2.707612e+003,1.227625e-002
2.709541e+003,1.249121e-002
2.711469e+003,1.264697e-002
2.713397e+003,1.280794e-002
2.715326e+003,1.298565e-002
2.717254e+003,1.312783e-002
2.719183e+003,1.335739e-002
2.721111e+003,1.359455e-002
2.723040e+003,1.391368e-002
2.724969e+003,1.429179e-002
2.726897e+003,1.453969e-002
2.728825e+003,1.479382e-002
2.730754e+003,1.502110e-002
2.732682e+003,1.521514e-002
2.734611e+003,1.536597e-002
2.736539e+003,1.549056e-002
2.738468e+003,1.573412e-002
2.740396e+003,1.596685e-002
2.742325e+003,1.601969e-002
2.744253e+003,1.590271e-002
2.746182e+003,1.583667e-002
2.748110e+003,1.589319e-002
2.750039e+003,1.599390e-002
2.751967e+003,1.612394e-002
2.753896e+003,1.634426e-002
2.755824e+003,1.661366e-002
2.757753e+003,1.698611e-002
2.759681e+003,1.744487e-002
2.761610e+003,1.787385e-002
2.763538e+003,1.825067e-002
2.765467e+003,1.865481e-002
2.767395e+003,1.908665e-002
2.769324e+003,1.960306e-002
2.771252e+003,2.025320e-002
2.773181e+003,2.099865e-002
2.775109e+003,2.179773e-002
2.777038e+003,2.271098e-002
2.778966e+003,2.371133e-002
2.780895e+003,2.480735e-002
2.782823e+003,2.602622e-002
2.784752e+003,2.722934e-002
2.786680e+003,2.860270e-002
2.788609e+003,3.029352e-002
2.790537e+003,3.207442e-002
2.792466e+003,3.377084e-002
2.794394e+003,3.548864e-002
2.796323e+003,3.725957e-002
2.798251e+003,3.904224e-002
2.800180e+003,4.104681e-002
2.802108e+003,4.326117e-002
2.804037e+003,4.559956e-002
2.805965e+003,4.813591e-002
2.807894e+003,5.098701e-002
2.809822e+003,5.410559e-002
2.811751e+003,5.757599e-002
2.813679e+003,6.156572e-002
2.815608e+003,6.607478e-002
2.817536e+003,7.126136e-002
2.819465e+003,7.744830e-002
2.821393e+003,8.484408e-002
2.823322e+003,9.379517e-002
2.825250e+003,1.047869e-001
2.827179e+003,1.187416e-001
2.829107e+003,1.369511e-001
2.831036e+003,1.613139e-001
2.832964e+003,1.947706e-001
2.834893e+003,2.418866e-001
2.836821e+003,3.088841e-001
2.838750e+003,4.063191e-001
2.840678e+003,5.516440e-001
2.842607e+003,7.663773e-001
2.844535e+003,1.059867e+000
2.846464e+003,1.355184e+000
2.848392e+003,1.396829e+000
2.850321e+003,1.126504e+000
2.852249e+003,8.254822e-001
2.854178e+003,6.139760e-001
2.856106e+003,4.705224e-001
2.858035e+003,3.688101e-001
2.859963e+003,2.963894e-001
2.861892e+003,2.460005e-001
2.863820e+003,2.124111e-001
2.865749e+003,1.919372e-001
2.867677e+003,1.814097e-001
2.869606e+003,1.777819e-001
2.871534e+003,1.789119e-001
2.873463e+003,1.844150e-001
2.875391e+003,1.954805e-001
2.877320e+003,2.130686e-001
2.879248e+003,2.365773e-001
2.881177e+003,2.646692e-001
2.883105e+003,2.962680e-001
2.885034e+003,3.309491e-001
2.886962e+003,3.682413e-001
2.888891e+003,4.071698e-001
2.890819e+003,4.466026e-001
2.892748e+003,4.856795e-001
2.894676e+003,5.243891e-001
2.896605e+003,5.636655e-001
2.898533e+003,6.051294e-001
2.900462e+003,6.518412e-001
2.902390e+003,7.085016e-001
2.904319e+003,7.822354e-001
2.906247e+003,8.828377e-001
2.908176e+003,1.021108e+000
2.910104e+003,1.203313e+000
2.912033e+003,1.410713e+000
2.913961e+003,1.564415e+000
2.915890e+003,1.558451e+000
2.917818e+003,1.395680e+000
2.919747e+003,1.180190e+000
2.921675e+003,9.821250e-001
2.923604e+003,8.189244e-001
2.925532e+003,6.883590e-001
2.927461e+003,5.825874e-001
2.929389e+003,4.942921e-001
2.931318e+003,4.189220e-001
2.933246e+003,3.542292e-001
2.935175e+003,2.987750e-001
2.937103e+003,2.513877e-001
2.939032e+003,2.113361e-001
2.940960e+003,1.781118e-001
2.942889e+003,1.511027e-001
2.944817e+003,1.297880e-001
2.946746e+003,1.139468e-001
2.948674e+003,1.029554e-001
2.950603e+003,9.547055e-002
2.952531e+003,8.978949e-002
2.954460e+003,8.449598e-002
2.956388e+003,7.898998e-002
2.958317e+003,7.301679e-002
2.960245e+003,6.661573e-002
2.962174e+003,6.008871e-002
2.964102e+003,5.381697e-002
2.966031e+003,4.781797e-002
2.967959e+003,4.232512e-002
2.969888e+003,3.767090e-002
2.971816e+003,3.381570e-002
2.973745e+003,3.037508e-002
2.975673e+003,2.746741e-002
2.977602e+003,2.513948e-002
2.979530e+003,2.322152e-002
2.981459e+003,2.158713e-002
2.983387e+003,2.020591e-002
2.985316e+003,1.903465e-002
2.987244e+003,1.796725e-002
2.989173e+003,1.696961e-002
2.991101e+003,1.605088e-002
2.993030e+003,1.528442e-002
2.994958e+003,1.470536e-002
2.996887e+003,1.418551e-002
2.998815e+003,1.366872e-002
3.000744e+003,1.308736e-002
3.002672e+003,1.260820e-002
3.004601e+003,1.219612e-002
3.006529e+003,1.181436e-002
3.008458e+003,1.146273e-002
3.010386e+003,1.116848e-002
3.012315e+003,1.088482e-002
3.014243e+003,1.061406e-002
3.016172e+003,1.039021e-002
3.018100e+003,1.013427e-002
3.020029e+003,9.808812e-003
3.021957e+003,9.623285e-003
3.023886e+003,9.468377e-003
3.025814e+003,9.260014e-003
3.027743e+003,9.052973e-003
3.029671e+003,8.951195e-003
3.031600e+003,8.790281e-003
3.033528e+003,8.415680e-003
3.035457e+003,8.064102e-003
3.037385e+003,7.819407e-003
3.039314e+003,7.475305e-003
3.041242e+003,7.068500e-003
3.043171e+003,6.781425e-003
3.045099e+003,6.533924e-003
3.047028e+003,6.436050e-003
3.048956e+003,6.244458e-003
3.050885e+003,5.937412e-003
3.052813e+003,5.756956e-003
3.054742e+003,5.608931e-003
3.056670e+003,5.360667e-003
3.058599e+003,5.114742e-003
3.060527e+003,4.959147e-003
3.062456e+003,4.801802e-003
3.064384e+003,4.680451e-003
3.066313e+003,4.613061e-003
3.068241e+003,4.515875e-003
3.070170e+003,4.390758e-003
3.072098e+003,4.228570e-003
3.074027e+003,4.028331e-003
3.075955e+003,3.920421e-003
3.077884e+003,3.956333e-003
3.079812e+003,3.931727e-003
3.081741e+003,3.747948e-003
3.083669e+003,3.596745e-003
3.085598e+003,3.557462e-003
3.087526e+003,3.460933e-003
3.089455e+003,3.231406e-003
3.091383e+003,2.959438e-003
3.093312e+003,2.750814e-003
3.095240e+003,2.573460e-003
3.097169e+003,2.279893e-003
3.099097e+003,2.086367e-003
3.101026e+003,1.935117e-003
3.102954e+003,1.674205e-003
3.104883e+003,1.477458e-003
3.106811e+003,1.430631e-003
3.108740e+003,1.291756e-003
3.110668e+003,1.089759e-003
3.112597e+003,9.779148e-004
3.114525e+003,1.058206e-003
3.116454e+003,1.032412e-003
3.118382e+003,9.179749e-004
3.120311e+003,8.601174e-004
3.122239e+003,8.607693e-004
3.124168e+003,7.460117e-004
3.126096e+003,6.288774e-004
3.128025e+003,5.308688e-004
3.129953e+003,4.810616e-004
3.131882e+003,5.695820e-004
3.133810e+003,6.157346e-004
3.135739e+003,5.853102e-004
3.137667e+003,5.616061e-004
3.139596e+003,5.351864e-004
3.141524e+003,5.325973e-004
3.143453e+003,4.869662e-004
3.145381e+003,4.537664e-004
3.147310e+003,4.045777e-004
3.149238e+003,5.239211e-004
3.151167e+003,5.763173e-004
3.153095e+003,5.527884e-004
3.155024e+003,5.616359e-004
3.156952e+003,6.591082e-004
3.158881e+003,6.771088e-004
3.160809e+003,6.277114e-004
3.162738e+003,5.698092e-004
3.164666e+003,6.671883e-004
3.166594e+003,7.825829e-004
3.168523e+003,7.328987e-004
3.170452e+003,6.106496e-004
3.172380e+003,6.310642e-004
3.174309e+003,7.531084e-004
3.176237e+003,9.034798e-004
3.178166e+003,8.978769e-004
3.180094e+003,7.580258e-004
3.182022e+003,8.194335e-004
3.183951e+003,1.044344e-003
3.185880e+003,9.929836e-004
3.187808e+003,8.795708e-004
3.189737e+003,9.581260e-004
3.191665e+003,1.023561e-003
3.193594e+003,1.054503e-003
3.195522e+003,1.055397e-003
3.197450e+003,1.076549e-003
3.199379e+003,1.185592e-003
3.201308e+003,1.234360e-003
3.203236e+003,1.180712e-003
3.205165e+003,1.205932e-003
3.207093e+003,1.317840e-003
3.209021e+003,1.365259e-003
3.210950e+003,1.382485e-003
3.212878e+003,1.382455e-003
3.214807e+003,1.402896e-003
3.216736e+003,1.332689e-003
3.218664e+003,1.321260e-003
3.220593e+003,1.375668e-003
3.222521e+003,1.439203e-003
3.224449e+003,1.468018e-003
3.226378e+003,1.521062e-003
3.228307e+003,1.596075e-003
3.230235e+003,1.561061e-003
3.232164e+003,1.572169e-003
3.234092e+003,1.618862e-003
3.236021e+003,1.738336e-003
3.237949e+003,1.785181e-003
3.239877e+003,1.773804e-003
3.241806e+003,1.795396e-003
3.243735e+003,1.864467e-003
3.245663e+003,1.843654e-003
3.247592e+003,1.794986e-003
3.249520e+003,1.886107e-003
3.251448e+003,2.051439e-003
3.253377e+003,2.168708e-003
3.255305e+003,2.097331e-003
3.257234e+003,2.071861e-003
3.259163e+003,2.163984e-003
3.261091e+003,2.321493e-003
3.263020e+003,2.289612e-003
3.264948e+003,2.220642e-003
3.266876e+003,2.319779e-003
3.268805e+003,2.408620e-003
3.270733e+003,2.397332e-003
3.272662e+003,2.514705e-003
3.274591e+003,2.624135e-003
3.276519e+003,2.665740e-003
3.278448e+003,2.657812e-003
3.280376e+003,2.662692e-003
3.282304e+003,2.702016e-003
3.284233e+003,2.687559e-003
3.286161e+003,2.681971e-003
3.288090e+003,2.709080e-003
3.290019e+003,2.765428e-003
3.291947e+003,2.926938e-003
3.293875e+003,2.834830e-003
3.295804e+003,2.702381e-003
3.297732e+003,2.752848e-003
3.299661e+003,2.792969e-003
3.301589e+003,2.883967e-003
3.303518e+003,2.919104e-003
3.305447e+003,2.944872e-003
3.307375e+003,3.108371e-003
3.309303e+003,3.104765e-003
3.311232e+003,2.992466e-003
3.313160e+003,2.917081e-003
3.315089e+003,2.916072e-003
3.317018e+003,3.001738e-003
3.318946e+003,3.038559e-003
3.320875e+003,2.985101e-003
3.322803e+003,2.969522e-003
3.324731e+003,3.022112e-003
3.326660e+003,3.125649e-003
3.328588e+003,3.079750e-003
3.330517e+003,2.962627e-003
3.332446e+003,2.969485e-003
3.334374e+003,3.186438e-003
3.336302e+003,3.223300e-003
3.338231e+003,3.140196e-003
3.340159e+003,3.175460e-003
3.342088e+003,3.234718e-003
3.344016e+003,3.252413e-003
3.345945e+003,3.300413e-003
3.347874e+003,3.312871e-003
3.349802e+003,3.318209e-003
3.351730e+003,3.379092e-003
3.353659e+003,3.431525e-003
3.355587e+003,3.451090e-003
3.357516e+003,3.404900e-003
3.359444e+003,3.343903e-003
3.361373e+003,3.399532e-003
3.363302e+003,3.474269e-003
3.365230e+003,3.622632e-003
3.367158e+003,3.684755e-003
3.369087e+003,3.511820e-003
3.371015e+003,3.381826e-003
3.372944e+003,3.317416e-003
3.374872e+003,3.249694e-003
3.376801e+003,3.276762e-003
3.378729e+003,3.294699e-003
3.380658e+003,3.300935e-003
3.382586e+003,3.338508e-003
3.384515e+003,3.244799e-003
3.386443e+003,3.096860e-003
3.388372e+003,2.997924e-003
3.390300e+003,3.025498e-003
3.392229e+003,3.260233e-003
3.394157e+003,3.201477e-003
3.396086e+003,3.117487e-003
3.398014e+003,2.962429e-003
3.399943e+003,2.805695e-003
3.401871e+003,2.740368e-003
3.403800e+003,2.712782e-003
3.405728e+003,2.671499e-003
3.407657e+003,2.712667e-003
3.409585e+003,2.649929e-003
3.411514e+003,2.568174e-003
3.413442e+003,2.530444e-003
3.415371e+003,2.565630e-003
3.417299e+003,2.559617e-003
3.419228e+003,2.886590e-003
3.421156e+003,3.017437e-003
3.423085e+003,2.749838e-003
3.425013e+003,2.539530e-003
3.426942e+003,2.506789e-003
3.428870e+003,2.476238e-003
3.430799e+003,2.448004e-003
3.432727e+003,2.380181e-003
3.434656e+003,2.358213e-003
3.436584e+003,2.289571e-003
3.438513e+003,2.213057e-003
3.440441e+003,2.308894e-003
3.442370e+003,2.491131e-003
3.444298e+003,2.505161e-003
3.446227e+003,2.745405e-003
3.448155e+003,2.405226e-003
3.450084e+003,2.009384e-003
3.452012e+003,1.906492e-003
3.453941e+003,1.883872e-003
3.455869e+003,1.815148e-003
3.457798e+003,1.836292e-003
3.459726e+003,1.977589e-003
3.461655e+003,2.175424e-003
3.463583e+003,1.955062e-003
3.465512e+003,1.767982e-003
3.467440e+003,1.538649e-003
3.469369e+003,1.453046e-003
3.471297e+003,1.440264e-003
3.473226e+003,1.465913e-003
3.475154e+003,1.435969e-003
3.477083e+003,1.401346e-003
3.479011e+003,1.483873e-003
3.480940e+003,1.780383e-003
3.482868e+003,1.588672e-003
3.484797e+003,1.430575e-003
3.486725e+003,1.523800e-003
3.488654e+003,1.290288e-003
3.490582e+003,8.928627e-004
3.492511e+003,8.574165e-004
3.494439e+003,1.048531e-003
3.496368e+003,1.078885e-003
3.498296e+003,9.791106e-004
3.500225e+003,1.204312e-003
3.502153e+003,1.722045e-003
3.504082e+003,1.531750e-003
3.506010e+003,9.415112e-004
3.507939e+003,1.063216e-003
3.509867e+003,1.119655e-003
3.511796e+003,6.954186e-004
3.513724e+003,3.198013e-004
3.515653e+003,1.170747e-004
3.517581e+003,1.729392e-004
3.519510e+003,1.943111e-005
3.521438e+003,4.797392e-004
3.523367e+003,1.367662e-003
3.525295e+003,1.398530e-003
3.527224e+003,1.408882e-003
3.529152e+003,8.505806e-004
3.531081e+003,2.330951e-004
3.533009e+003,-8.124858e-005
3.534938e+003,3.325492e-004
3.536866e+003,3.330000e-004
3.538795e+003,-1.440644e-004
3.540723e+003,-1.041219e-004
3.542652e+003,7.524490e-004
3.544580e+003,1.706775e-003
3.546509e+003,1.363754e-003
3.548437e+003,1.207106e-004
3.550366e+003,-1.632422e-005
3.552294e+003,2.572276e-004
3.554223e+003,-2.112612e-004
3.556151e+003,-5.883425e-004
3.558080e+003,-2.983175e-004
3.560008e+003,5.960092e-005
3.561937e+003,3.855377e-004
3.563865e+003,1.431715e-003
3.565794e+003,3.358461e-003
3.567722e+003,2.564523e-003
3.569651e+003,2.968311e-005
3.571579e+003,-9.462349e-004
3.573508e+003,-7.404611e-004
3.575436e+003,-4.714094e-004
3.577365e+003,-4.865006e-004
3.579293e+003,-5.131140e-004
3.581222e+003,-5.813166e-004
3.583150e+003,-1.290441e-004
3.585079e+003,1.111656e-003
3.587007e+003,2.749208e-003
3.588936e+003,1.417570e-003
3.590864e+003,3.704168e-004
3.592793e+003,7.987246e-004
3.594721e+003,1.509964e-003
3.596650e+003,1.596425e-003
3.598578e+003,1.992855e-003
3.600507e+003,2.387352e-003
3.602435e+003,1.920585e-003
3.604364e+003,1.781218e-003
3.606292e+003,2.726771e-003
3.608221e+003,3.439374e-003
3.610149e+003,2.082124e-003
3.612078e+003,1.786374e-003
3.614006e+003,2.083275e-003
3.615935e+003,2.162211e-003
3.617863e+003,3.056362e-003
3.619792e+003,2.574187e-003
3.621720e+003,3.110729e-004
3.623649e+003,1.609325e-005
3.625577e+003,1.168177e-003
3.627506e+003,2.647165e-003
3.629434e+003,1.995839e-003
3.631363e+003,-6.251037e-006
3.633291e+003,-1.208931e-004
3.635220e+003,3.394112e-005
3.637148e+003,-4.307553e-005
3.639077e+003,-5.339198e-004
3.641005e+003,-4.360601e-004
3.642934e+003,6.641820e-005
3.644862e+003,1.797765e-003
3.646791e+003,4.980307e-003
3.648719e+003,5.674891e-003
3.650648e+003,2.856657e-003
3.652576e+003,5.403310e-004
3.654505e+003,4.819520e-004
3.656433e+003,5.353540e-004
3.658362e+003,-3.196374e-004
3.660290e+003,-9.117834e-004
3.662219e+003,-9.014495e-004
3.664147e+003,-6.780326e-004
3.666076e+003,-2.432391e-004
3.668004e+003,6.649308e-004
3.669933e+003,2.034046e-003
3.671861e+003,5.017854e-004
3.673790e+003,1.021776e-003
3.675718e+003,2.152797e-003
3.677647e+003,5.692914e-004
3.679575e+003,-7.016025e-004
3.681504e+003,-1.076687e-003
3.683432e+003,-8.798279e-004
3.685361e+003,-5.098954e-004
3.687289e+003,5.236380e-004
3.689218e+003,1.553614e-003
3.691146e+003,5.898327e-004
3.693075e+003,-7.828586e-004
3.695003e+003,-8.720458e-004
3.696932e+003,-9.218492e-004
3.698860e+003,-9.172633e-004
3.700789e+003,-4.200041e-004
3.702717e+003,-7.132925e-004
3.704646e+003,-1.113072e-003
3.706574e+003,-4.706644e-004
3.708503e+003,1.161922e-003
3.710431e+003,2.954707e-003
3.712360e+003,1.730151e-003
3.714288e+003,1.018047e-004
3.716217e+003,-5.024709e-004
3.718145e+003,-1.640618e-005
3.720074e+003,6.652959e-004
3.722002e+003,1.646172e-003
3.723931e+003,1.775578e-003
3.725859e+003,1.466356e-003
3.727788e+003,5.368553e-004
3.729716e+003,6.204247e-004
3.731645e+003,2.110969e-003
3.733573e+003,3.647111e-003
3.735502e+003,3.350899e-003
3.737430e+003,1.393922e-003
3.739359e+003,1.383975e-003
3.741287e+003,1.517396e-003
3.743216e+003,1.968738e-003
3.745144e+003,1.991939e-003
3.747073e+003,2.552215e-003
3.749001e+003,3.541950e-003
3.750930e+003,3.910575e-003
3.752858e+003,8.239746e-004
3.754787e+003,4.446134e-005
3.756715e+003,4.840307e-004
3.758644e+003,8.135289e-004
3.760572e+003,-4.784539e-004
3.762501e+003,-1.250625e-003
3.764429e+003,-1.787096e-004
3.766358e+003,3.868341e-004
3.768286e+003,4.560426e-004
3.770215e+003,1.457334e-004
3.772143e+003,-1.050528e-003
3.774072e+003,-1.113001e-003
3.776000e+003,-3.504232e-004
3.777929e+003,2.757162e-004
3.779857e+003,2.873167e-004
3.781786e+003,-3.831536e-004
3.783714e+003,9.423122e-005
3.785643e+003,4.224330e-004
3.787571e+003,-5.621389e-004
3.789500e+003,-8.608960e-004
3.791428e+003,-3.294423e-004
3.793357e+003,-3.573559e-004
3.795285e+003,8.546226e-004
3.797214e+003,2.035916e-003
3.799142e+003,1.933817e-003
3.801071e+003,2.950680e-003
3.802999e+003,1.867425e-003
3.804927e+003,9.080283e-004
3.806856e+003,1.022689e-003
3.808785e+003,1.503080e-004
3.810713e+003,8.724257e-005
3.812642e+003,7.029511e-004
3.814570e+003,2.212208e-003
3.816499e+003,2.378438e-003
3.818427e+003,1.924589e-003
3.820355e+003,2.966400e-003
3.822284e+003,2.631687e-003
3.824213e+003,1.314376e-003
3.826141e+003,1.476407e-003
3.828070e+003,1.357097e-003
3.829998e+003,1.087360e-003
3.831927e+003,1.540340e-003
3.833855e+003,2.216116e-003
3.835783e+003,2.344742e-003
3.837712e+003,3.177200e-003
3.839641e+003,4.094105e-003
3.841569e+003,2.979662e-003
3.843498e+003,1.954865e-003
3.845426e+003,2.482869e-004
3.847354e+003,2.314188e-004
3.849283e+003,2.027955e-003
3.851211e+003,4.330631e-003
3.853140e+003,5.496137e-003
3.855069e+003,2.386469e-003
3.856997e+003,1.085337e-003
3.858926e+003,1.146726e-003
3.860854e+003,2.093174e-003
3.862782e+003,2.261564e-003
3.864711e+003,2.312671e-003
3.866640e+003,1.062214e-003
3.868568e+003,3.161434e-003
3.870497e+003,3.949981e-003
3.872425e+003,2.315294e-003
3.874354e+003,1.366064e-003
3.876282e+003,9.519011e-004
3.878210e+003,9.697750e-004
3.880139e+003,2.547368e-003
3.882068e+003,1.800418e-003
3.883996e+003,1.147185e-003
3.885925e+003,1.525689e-003
3.887853e+003,1.220122e-003
3.889781e+003,1.515165e-003
3.891710e+003,2.307493e-003
3.893638e+003,1.328271e-003
3.895567e+003,6.624572e-004
3.897496e+003,1.833096e-003
3.899424e+003,3.073152e-003
3.901353e+003,3.204659e-003
3.903281e+003,3.398079e-003
3.905209e+003,2.456285e-003
3.907138e+003,9.447895e-004
3.909066e+003,6.258488e-005
3.910995e+003,-1.767650e-005
3.912924e+003,1.097620e-004
3.914852e+003,9.534806e-004
3.916781e+003,1.584090e-003
3.918709e+003,1.541030e-003
3.920637e+003,1.131769e-003
3.922566e+003,1.424372e-003
3.924494e+003,1.684885e-003
3.926423e+003,6.765127e-004
3.928352e+003,7.455945e-004
3.930280e+003,1.695715e-003
3.932208e+003,1.776192e-003
3.934137e+003,4.612319e-004
3.936065e+003,-1.385808e-005
3.937994e+003,3.028810e-004
3.939922e+003,4.776642e-004
3.941851e+003,7.986948e-004
3.943780e+003,5.296394e-004
3.945708e+003,3.821738e-004
3.947636e+003,1.151510e-003
3.949565e+003,9.810068e-004
3.951493e+003,5.392730e-005
3.953422e+003,-3.185719e-004
3.955351e+003,-1.346581e-004
3.957279e+003,-8.448958e-006
3.959208e+003,-2.425164e-006
3.961136e+003,2.773516e-004
3.963064e+003,2.042204e-004
3.964993e+003,-1.053624e-004
3.966921e+003,-7.926300e-005
3.968850e+003,1.290701e-004
3.970779e+003,1.236014e-004
3.972707e+003,1.831949e-004
3.974635e+003,3.320575e-004
3.976564e+003,1.483187e-004
3.978492e+003,-6.476045e-005
3.980421e+003,4.116446e-006
3.982349e+003,1.930818e-005
3.984278e+003,3.887340e-005
3.986207e+003,5.669519e-005
3.988135e+003,1.786500e-004
3.990063e+003,4.004128e-004
3.991992e+003,2.721883e-004
3.993920e+003,7.323548e-005
3.995849e+003,-6.990880e-005
3.997777e+003,-1.351014e-004
3.999706e+003,-9.389594e-005
4.001635e+003,0.000000e+000
