3.991992e+002,0.000000e+000
4.011277e+002,0.000000e+000
4.030562e+002,0.000000e+000
4.049846e+002,0.000000e+000
4.069131e+002,0.000000e+000
4.088416e+002,0.000000e+000
4.107701e+002,0.000000e+000
4.126986e+002,0.000000e+000
4.146271e+002,0.000000e+000
4.165556e+002,0.000000e+000
4.184841e+002,0.000000e+000
4.204126e+002,0.000000e+000
4.223411e+002,0.000000e+000
4.242697e+002,0.000000e+000
4.261982e+002,0.000000e+000
4.281266e+002,0.000000e+000
4.300551e+002,0.000000e+000
4.319836e+002,0.000000e+000
4.339121e+002,0.000000e+000
4.358406e+002,0.000000e+000
4.377691e+002,0.000000e+000
4.396976e+002,0.000000e+000
4.416261e+002,0.000000e+000
4.435546e+002,0.000000e+000
4.454831e+002,0.000000e+000
4.474116e+002,0.000000e+000
4.493401e+002,0.000000e+000
4.512686e+002,0.000000e+000
4.531971e+002,0.000000e+000
4.551256e+002,0.000000e+000
4.570541e+002,0.000000e+000
4.589826e+002,0.000000e+000
4.609111e+002,0.000000e+000
4.628396e+002,0.000000e+000
4.647681e+002,0.000000e+000
4.666966e+002,0.000000e+000
4.686251e+002,0.000000e+000
4.705536e+002,0.000000e+000
4.724821e+002,0.000000e+000
4.744106e+002,0.000000e+000
4.763391e+002,0.000000e+000
4.782676e+002,0.000000e+000
4.801961e+002,0.000000e+000
4.821246e+002,0.000000e+000
4.840531e+002,0.000000e+000
4.859816e+002,0.000000e+000
4.879101e+002,0.000000e+000
4.898386e+002,0.000000e+000
4.917671e+002,0.000000e+000
4.936956e+002,0.000000e+000
4.956241e+002,0.000000e+000
4.975526e+002,0.000000e+000
4.994811e+002,0.000000e+000
5.014096e+002,0.000000e+000
5.033381e+002,0.000000e+000
5.052666e+002,0.000000e+000
5.071951e+002,0.000000e+000
5.091236e+002,0.000000e+000
5.110521e+002,0.000000e+000
5.129806e+002,0.000000e+000
5.149091e+002,0.000000e+000
5.168376e+002,0.000000e+000
5.187661e+002,0.000000e+000
5.206946e+002,0.000000e+000
5.226230e+002,0.000000e+000
5.245516e+002,-6.062165e-005
5.264800e+002,-9.816140e-005
5.284086e+002,5.022064e-005
5.303370e+002,-8.141622e-006
5.322656e+002,-9.498745e-005
5.341940e+002,-9.954907e-005
5.361226e+002,-1.671780e-004
5.380510e+002,-9.124167e-005
5.399796e+002,-4.047900e-005
5.419081e+002,-1.785960e-004
5.438365e+002,-1.081917e-004
5.457650e+002,7.048994e-005
5.476935e+002,5.726889e-005
5.496221e+002,-4.788674e-005
5.515505e+002,-6.307848e-005
5.534790e+002,7.860176e-005
5.554075e+002,2.858527e-004
5.573361e+002,2.841465e-004
5.592645e+002,2.401322e-004
5.611931e+002,1.964439e-004
5.631215e+002,1.547858e-004
5.650500e+002,4.252978e-005
5.669785e+002,3.458187e-005
5.689070e+002,4.412420e-005
5.708355e+002,-1.708418e-005
5.727640e+002,-6.760657e-005
5.746925e+002,-2.291612e-005
5.766210e+002,-7.940084e-005
5.785495e+002,-6.757118e-005
5.804780e+002,-4.715472e-005
5.824065e+002,1.723878e-005
5.843350e+002,-3.356487e-006
5.862635e+002,-1.257081e-004
5.881920e+002,-2.565440e-004
5.901205e+002,-2.169944e-004
5.920490e+002,-9.491481e-005
5.939775e+002,2.827682e-005
5.959060e+002,-6.869435e-006
5.978345e+002,-4.190952e-007
5.997630e+002,4.328415e-005
6.016915e+002,1.777951e-004
6.036200e+002,2.140459e-004
6.055485e+002,2.023857e-004
6.074770e+002,1.755431e-004
6.094055e+002,2.371594e-004
6.113340e+002,2.126582e-004
6.132625e+002,1.982879e-004
6.151910e+002,1.767222e-004
6.171195e+002,1.682676e-004
6.190480e+002,1.705457e-004
6.209765e+002,3.440380e-004
6.229050e+002,4.665889e-004
6.248335e+002,4.929397e-004
6.267620e+002,4.353896e-004
6.286905e+002,4.975330e-004
6.306190e+002,5.925670e-004
6.325475e+002,6.344933e-004
6.344760e+002,6.509572e-004
6.364045e+002,6.926246e-004
6.383330e+002,7.395819e-004
6.402615e+002,7.774867e-004
6.421899e+002,7.390194e-004
6.441185e+002,8.218363e-004
6.460470e+002,9.046923e-004
6.479755e+002,8.821562e-004
6.499039e+002,8.568987e-004
6.518325e+002,8.981284e-004
6.537610e+002,9.048320e-004
6.556895e+002,1.043253e-003
6.576179e+002,1.085170e-003
6.595464e+002,1.104940e-003
6.614750e+002,1.113575e-003
6.634034e+002,1.226446e-003
6.653319e+002,1.228806e-003
6.672604e+002,1.200322e-003
6.691890e+002,1.103006e-003
6.711174e+002,1.237150e-003
6.730460e+002,1.353271e-003
6.749745e+002,1.462577e-003
6.769030e+002,1.551721e-003
6.788314e+002,1.733029e-003
6.807599e+002,1.790063e-003
6.826885e+002,2.008775e-003
6.846169e+002,2.177579e-003
6.865454e+002,2.338154e-003
6.884739e+002,2.501370e-003
6.904025e+002,2.795720e-003
6.923309e+002,3.129318e-003
6.942594e+002,3.530720e-003
6.961879e+002,3.941394e-003
6.981165e+002,4.719380e-003
7.000449e+002,5.713956e-003
7.019734e+002,6.958157e-003
7.039019e+002,8.495148e-003
7.058304e+002,1.073244e-002
7.077589e+002,1.374551e-002
7.096874e+002,1.846078e-002
7.116159e+002,2.612997e-002
7.135444e+002,4.068513e-002
7.154729e+002,6.601002e-002
7.174014e+002,9.839520e-002
7.193299e+002,1.098041e-001
7.212584e+002,8.129654e-002
7.231869e+002,5.379101e-002
7.251154e+002,4.393623e-002
7.270439e+002,4.781035e-002
7.289724e+002,6.251225e-002
7.309009e+002,6.000314e-002
7.328294e+002,3.439149e-002
7.347579e+002,1.719213e-002
7.366864e+002,1.116450e-002
7.386149e+002,8.678161e-003
7.405434e+002,7.261639e-003
7.424719e+002,6.395942e-003
7.444004e+002,5.677341e-003
7.463289e+002,5.246093e-003
7.482574e+002,4.884638e-003
7.501859e+002,4.576180e-003
7.521144e+002,4.200792e-003
7.540428e+002,3.921520e-003
7.559714e+002,3.662750e-003
7.578999e+002,3.520146e-003
7.598284e+002,3.338384e-003
7.617568e+002,3.169101e-003
7.636854e+002,3.045043e-003
7.656139e+002,2.953662e-003
7.675424e+002,2.822690e-003
7.694709e+002,2.734806e-003
7.713994e+002,2.635267e-003
7.733279e+002,2.538539e-003
7.752563e+002,2.431875e-003
7.771849e+002,2.394456e-003
7.791134e+002,2.412803e-003
7.810419e+002,2.448209e-003
7.829703e+002,2.473691e-003
7.848989e+002,2.525508e-003
7.868274e+002,2.458328e-003
7.887559e+002,2.446147e-003
7.906843e+002,2.517337e-003
7.926129e+002,2.485057e-003
7.945414e+002,2.439806e-003
7.964698e+002,2.502454e-003
7.983983e+002,2.545871e-003
8.003268e+002,2.586527e-003
8.022554e+002,2.627250e-003
8.041838e+002,2.598861e-003
8.061123e+002,2.589252e-003
8.080408e+002,2.580710e-003
8.099694e+002,2.583129e-003
8.118978e+002,2.574287e-003
8.138263e+002,2.587670e-003
8.157548e+002,2.525046e-003
8.176833e+002,2.417233e-003
8.196118e+002,2.317764e-003
8.215403e+002,2.127629e-003
8.234689e+002,1.907689e-003
8.253973e+002,1.721017e-003
8.273258e+002,1.497844e-003
8.292543e+002,1.405409e-003
8.311829e+002,1.352839e-003
8.331113e+002,1.274856e-003
8.350398e+002,1.193540e-003
8.369683e+002,1.224501e-003
8.388969e+002,1.268703e-003
8.408253e+002,1.280887e-003
8.427538e+002,1.316072e-003
8.446823e+002,1.328997e-003
8.466108e+002,1.269188e-003
8.485393e+002,1.253912e-003
8.504678e+002,1.321057e-003
8.523963e+002,1.336547e-003
8.543248e+002,1.294894e-003
8.562533e+002,1.336770e-003
8.581818e+002,1.375273e-003
8.601103e+002,1.395855e-003
8.620388e+002,1.482971e-003
8.639673e+002,1.643613e-003
8.658958e+002,1.752164e-003
8.678243e+002,1.764683e-003
8.697528e+002,1.779497e-003
8.716813e+002,1.825286e-003
8.736098e+002,1.859292e-003
8.755383e+002,1.910262e-003
8.774668e+002,1.892513e-003
8.793953e+002,1.887511e-003
8.813238e+002,1.873706e-003
8.832523e+002,1.946975e-003
8.851808e+002,2.029862e-003
8.871093e+002,2.071159e-003
8.890378e+002,2.034744e-003
8.909663e+002,2.049448e-003
8.928948e+002,1.965554e-003
8.948232e+002,1.829259e-003
8.967518e+002,1.699572e-003
8.986803e+002,1.680089e-003
9.006088e+002,1.697445e-003
9.025372e+002,1.892457e-003
9.044658e+002,2.214007e-003
9.063943e+002,2.605977e-003
9.083228e+002,2.790190e-003
9.102512e+002,2.582764e-003
9.121797e+002,2.186516e-003
9.141083e+002,1.872340e-003
9.160367e+002,1.566222e-003
9.179653e+002,1.441754e-003
9.198937e+002,1.370361e-003
9.218223e+002,1.368335e-003
9.237507e+002,1.338853e-003
9.256793e+002,1.359602e-003
9.276077e+002,1.452316e-003
9.295363e+002,1.465052e-003
9.314647e+002,1.512969e-003
9.333932e+002,1.645280e-003
9.353217e+002,1.525287e-003
9.372502e+002,1.491463e-003
9.391787e+002,1.728410e-003
9.411072e+002,1.588324e-003
9.430358e+002,1.415970e-003
9.449642e+002,1.747463e-003
9.468928e+002,1.860626e-003
9.488212e+002,1.649247e-003
9.507498e+002,1.700241e-003
9.526782e+002,1.897046e-003
9.546068e+002,1.943441e-003
9.565352e+002,2.066692e-003
9.584637e+002,2.192372e-003
9.603922e+002,2.322003e-003
9.623207e+002,2.392164e-003
9.642492e+002,2.466144e-003
9.661777e+002,2.537224e-003
9.681062e+002,2.549278e-003
9.700347e+002,2.502365e-003
9.719632e+002,2.475301e-003
9.738917e+002,2.490107e-003
9.758202e+002,2.522280e-003
9.777487e+002,2.497597e-003
9.796772e+002,2.539910e-003
9.816057e+002,2.552774e-003
9.835342e+002,2.604418e-003
9.854627e+002,2.668137e-003
9.873912e+002,2.850275e-003
9.893197e+002,3.070297e-003
9.912482e+002,3.251068e-003
9.931767e+002,3.349802e-003
9.951052e+002,3.502224e-003
9.970337e+002,3.693031e-003
9.989622e+002,3.862491e-003
1.000891e+003,4.016556e-003
1.002819e+003,4.291603e-003
1.004748e+003,4.579172e-003
1.006676e+003,4.835546e-003
1.008605e+003,5.047532e-003
1.010533e+003,5.337387e-003
1.012462e+003,5.646503e-003
1.014390e+003,5.902907e-003
1.016319e+003,6.087124e-003
1.018247e+003,6.353609e-003
1.020176e+003,6.559778e-003
1.022104e+003,6.757462e-003
1.024033e+003,6.919432e-003
1.025961e+003,7.092528e-003
1.027890e+003,7.213768e-003
1.029818e+003,7.323861e-003
1.031747e+003,7.393414e-003
1.033675e+003,7.417481e-003
1.035604e+003,7.350054e-003
1.037532e+003,7.330645e-003
1.039461e+003,7.240770e-003
1.041389e+003,7.183552e-003
1.043318e+003,7.137641e-003
1.045246e+003,7.122003e-003
1.047175e+003,7.149735e-003
1.049103e+003,7.344708e-003
1.051032e+003,7.530423e-003
1.052960e+003,7.597411e-003
1.054889e+003,7.651294e-003
1.056817e+003,7.775927e-003
1.058746e+003,7.927697e-003
1.060674e+003,8.092472e-003
1.062603e+003,8.174203e-003
1.064531e+003,8.275926e-003
1.066460e+003,8.310642e-003
1.068388e+003,8.358266e-003
1.070317e+003,8.445429e-003
1.072245e+003,8.678807e-003
1.074174e+003,8.856541e-003
1.076102e+003,9.027673e-003
1.078031e+003,9.146549e-003
1.079959e+003,9.224778e-003
1.081888e+003,9.162942e-003
1.083816e+003,9.127228e-003
1.085745e+003,9.046014e-003
1.087673e+003,8.967182e-003
1.089602e+003,8.771395e-003
1.091530e+003,8.581914e-003
1.093459e+003,8.349005e-003
1.095387e+003,8.135399e-003
1.097316e+003,7.928316e-003
1.099244e+003,7.794019e-003
1.101173e+003,7.648299e-003
1.103101e+003,7.496120e-003
1.105030e+003,7.237701e-003
1.106958e+003,7.062342e-003
1.108887e+003,6.888429e-003
1.110815e+003,6.740069e-003
1.112744e+003,6.577302e-003
1.114672e+003,6.452268e-003
1.116601e+003,6.326107e-003
1.118529e+003,6.290106e-003
1.120458e+003,6.195229e-003
1.122386e+003,6.107206e-003
1.124315e+003,6.010452e-003
1.126243e+003,5.983654e-003
1.128172e+003,5.915439e-003
1.130100e+003,5.944960e-003
1.132029e+003,5.982826e-003
1.133957e+003,6.009806e-003
1.135885e+003,6.003719e-003
1.137814e+003,6.070577e-003
1.139743e+003,6.121576e-003
1.141671e+003,6.272437e-003
1.143600e+003,6.428890e-003
1.145528e+003,6.656149e-003
1.147457e+003,6.878994e-003
1.149385e+003,7.187795e-003
1.151314e+003,7.457785e-003
1.153242e+003,7.732920e-003
1.155171e+003,7.883860e-003
1.157099e+003,7.972782e-003
1.159028e+003,7.919798e-003
1.160956e+003,7.785231e-003
1.162885e+003,7.548472e-003
1.164813e+003,7.311396e-003
1.166742e+003,6.981280e-003
1.168670e+003,6.639458e-003
1.170599e+003,6.297071e-003
1.172527e+003,6.055180e-003
1.174456e+003,5.837522e-003
1.176384e+003,5.680602e-003
1.178313e+003,5.394112e-003
1.180241e+003,5.120505e-003
1.182170e+003,4.894730e-003
1.184098e+003,4.812300e-003
1.186027e+003,4.749946e-003
1.187955e+003,4.763223e-003
1.189884e+003,4.744966e-003
1.191812e+003,4.784085e-003
1.193740e+003,4.799433e-003
1.195669e+003,4.898034e-003
1.197598e+003,4.958041e-003
1.199526e+003,5.102221e-003
1.201455e+003,5.286545e-003
1.203383e+003,5.546983e-003
1.205312e+003,5.776972e-003
1.207240e+003,6.093074e-003
1.209168e+003,6.377134e-003
1.211097e+003,6.710269e-003
1.213026e+003,6.891064e-003
1.214954e+003,7.081877e-003
1.216883e+003,7.296745e-003
1.218811e+003,7.544976e-003
1.220740e+003,7.722635e-003
1.222668e+003,7.919692e-003
1.224596e+003,8.079357e-003
1.226525e+003,8.273900e-003
1.228453e+003,8.407764e-003
1.230382e+003,8.601032e-003
1.232311e+003,8.754142e-003
1.234239e+003,8.910608e-003
1.236167e+003,8.961093e-003
1.238096e+003,9.044383e-003
1.240025e+003,9.059522e-003
1.241953e+003,9.085480e-003
1.243882e+003,9.009331e-003
1.245810e+003,8.944228e-003
1.247739e+003,8.767981e-003
1.249667e+003,8.595698e-003
1.251595e+003,8.379154e-003
1.253524e+003,8.236170e-003
1.255453e+003,8.099694e-003
1.257381e+003,8.054398e-003
1.259310e+003,7.940210e-003
1.261238e+003,7.829618e-003
1.263167e+003,7.627767e-003
1.265095e+003,7.457528e-003
1.267023e+003,7.260591e-003
1.268952e+003,7.196605e-003
1.270880e+003,7.134371e-003
1.272809e+003,7.101890e-003
1.274738e+003,7.016718e-003
1.276666e+003,7.057562e-003
1.278594e+003,7.082973e-003
1.280523e+003,7.191855e-003
1.282451e+003,7.261071e-003
1.284380e+003,7.409073e-003
1.286308e+003,7.576708e-003
1.288237e+003,7.850412e-003
1.290166e+003,8.092582e-003
1.292094e+003,8.453954e-003
1.294022e+003,8.851521e-003
1.295951e+003,9.309527e-003
1.297879e+003,9.623524e-003
1.299808e+003,9.925526e-003
1.301736e+003,1.007054e-002
1.303665e+003,1.011761e-002
1.305594e+003,1.006606e-002
1.307522e+003,1.003348e-002
1.309450e+003,9.748876e-003
1.311379e+003,9.460606e-003
1.313307e+003,9.048101e-003
1.315236e+003,8.640803e-003
1.317164e+003,8.204229e-003
1.319093e+003,7.814016e-003
1.321021e+003,7.324379e-003
1.322950e+003,7.051203e-003
1.324878e+003,6.778132e-003
1.326807e+003,6.678399e-003
1.328735e+003,6.608266e-003
1.330664e+003,6.711692e-003
1.332592e+003,6.873809e-003
1.334521e+003,7.266421e-003
1.336449e+003,7.832762e-003
1.338378e+003,8.748185e-003
1.340306e+003,9.370703e-003
1.342235e+003,9.668920e-003
1.344163e+003,1.000652e-002
1.346092e+003,1.061514e-002
1.348021e+003,1.128152e-002
1.349949e+003,1.200075e-002
1.351877e+003,1.233505e-002
1.353806e+003,1.242396e-002
1.355734e+003,1.224183e-002
1.357663e+003,1.232075e-002
1.359591e+003,1.271862e-002
1.361520e+003,1.367508e-002
1.363448e+003,1.472301e-002
1.365377e+003,1.567650e-002
1.367305e+003,1.641691e-002
1.369234e+003,1.642554e-002
1.371162e+003,1.544704e-002
1.373091e+003,1.450257e-002
1.375019e+003,1.401337e-002
1.376948e+003,1.390273e-002
1.378876e+003,1.232512e-002
1.380805e+003,9.815771e-003
1.382733e+003,7.917378e-003
1.384662e+003,7.120587e-003
1.386590e+003,6.707676e-003
1.388519e+003,6.420087e-003
1.390447e+003,6.085433e-003
1.392376e+003,6.171044e-003
1.394304e+003,6.173149e-003
1.396233e+003,6.236393e-003
1.398161e+003,6.136712e-003
1.400090e+003,6.156050e-003
1.402018e+003,6.015129e-003
1.403947e+003,6.286554e-003
1.405875e+003,6.282549e-003
1.407804e+003,6.480236e-003
1.409732e+003,6.609097e-003
1.411661e+003,6.963428e-003
1.413589e+003,7.081732e-003
1.415518e+003,7.604338e-003
1.417446e+003,8.052085e-003
1.419375e+003,8.778978e-003
1.421303e+003,8.939762e-003
1.423232e+003,9.959295e-003
1.425160e+003,1.120961e-002
1.427089e+003,1.306013e-002
1.429017e+003,1.547243e-002
1.430946e+003,1.880229e-002
1.432874e+003,2.147766e-002
1.434803e+003,2.426749e-002
1.436731e+003,2.700028e-002
1.438660e+003,2.920756e-002
1.440588e+003,3.050409e-002
1.442517e+003,3.235407e-002
1.444445e+003,3.372308e-002
1.446374e+003,3.595905e-002
1.448302e+003,3.900380e-002
1.450231e+003,4.389507e-002
1.452159e+003,5.137429e-002
1.454088e+003,6.128632e-002
1.456016e+003,7.157373e-002
1.457945e+003,9.543148e-002
1.459873e+003,1.372989e-001
1.461802e+003,1.782847e-001
1.463730e+003,1.771082e-001
1.465659e+003,1.389582e-001
1.467587e+003,1.282443e-001
1.469516e+003,1.277558e-001
1.471444e+003,1.460531e-001
1.473373e+003,1.282288e-001
1.475301e+003,6.870501e-002
1.477230e+003,2.992728e-002
1.479158e+003,1.880593e-002
1.481087e+003,1.366236e-002
1.483015e+003,1.127258e-002
1.484944e+003,9.479128e-003
1.486872e+003,9.109724e-003
1.488801e+003,8.035567e-003
1.490729e+003,7.559072e-003
1.492658e+003,6.337404e-003
1.494586e+003,6.481491e-003
1.496515e+003,5.928375e-003
1.498443e+003,5.880591e-003
1.500372e+003,5.102996e-003
1.502300e+003,5.096011e-003
1.504229e+003,4.932325e-003
1.506157e+003,6.155897e-003
1.508086e+003,5.109344e-003
1.510014e+003,4.854806e-003
1.511943e+003,4.154451e-003
1.513871e+003,4.276823e-003
1.515800e+003,4.387353e-003
1.517728e+003,4.462358e-003
1.519657e+003,4.184756e-003
1.521585e+003,4.636146e-003
1.523514e+003,3.885601e-003
1.525442e+003,4.179634e-003
1.527371e+003,3.772851e-003
1.529299e+003,3.654182e-003
1.531228e+003,3.654521e-003
1.533156e+003,4.097313e-003
1.535085e+003,3.493063e-003
1.537013e+003,3.780976e-003
1.538942e+003,4.196141e-003
1.540870e+003,4.755944e-003
1.542799e+003,4.060261e-003
1.544727e+003,3.817376e-003
1.546656e+003,3.157709e-003
1.548584e+003,3.327120e-003
1.550513e+003,3.187142e-003
1.552441e+003,3.322184e-003
1.554370e+003,3.396098e-003
1.556298e+003,3.743481e-003
1.558227e+003,4.064873e-003
1.560155e+003,3.228895e-003
1.562084e+003,2.771370e-003
1.564012e+003,2.936400e-003
1.565941e+003,2.807904e-003
1.567869e+003,3.092673e-003
1.569798e+003,3.023244e-003
1.571726e+003,2.815966e-003
1.573655e+003,2.924290e-003
1.575583e+003,3.364023e-003
1.577512e+003,2.970703e-003
1.579440e+003,2.891999e-003
1.581369e+003,2.823435e-003
1.583297e+003,2.911270e-003
1.585226e+003,2.935089e-003
1.587154e+003,3.049351e-003
1.589083e+003,2.985049e-003
1.591011e+003,3.046982e-003
1.592940e+003,3.080308e-003
1.594868e+003,3.152687e-003
1.596797e+003,2.936076e-003
1.598725e+003,3.044039e-003
1.600654e+003,3.106374e-003
1.602582e+003,3.128301e-003
1.604511e+003,3.013670e-003
1.606439e+003,3.138080e-003
1.608368e+003,3.143914e-003
1.610296e+003,3.175646e-003
1.612225e+003,3.102701e-003
1.614153e+003,3.411070e-003
1.616082e+003,3.694702e-003
1.618010e+003,3.543697e-003
1.619939e+003,3.423810e-003
1.621867e+003,3.736321e-003
1.623796e+003,3.628273e-003
1.625724e+003,3.594309e-003
1.627653e+003,3.675681e-003
1.629581e+003,3.687236e-003
1.631510e+003,3.706593e-003
1.633438e+003,4.130051e-003
1.635367e+003,4.615720e-003
1.637295e+003,4.412159e-003
1.639224e+003,4.153680e-003
1.641152e+003,4.125856e-003
1.643081e+003,4.061218e-003
1.645009e+003,4.552886e-003
1.646938e+003,4.720550e-003
1.648866e+003,4.121367e-003
1.650795e+003,4.213020e-003
1.652723e+003,5.095918e-003
1.654652e+003,3.922306e-003
1.656580e+003,3.593050e-003
1.658509e+003,3.365744e-003
1.660437e+003,3.467303e-003
1.662366e+003,3.497478e-003
1.664294e+003,3.188971e-003
1.666223e+003,3.141858e-003
1.668151e+003,3.469445e-003
1.670080e+003,3.152996e-003
1.672008e+003,2.898850e-003
1.673937e+003,2.788607e-003
1.675865e+003,2.506424e-003
1.677794e+003,2.359685e-003
1.679722e+003,2.540365e-003
1.681651e+003,2.611015e-003
1.683579e+003,3.025129e-003
1.685508e+003,2.100483e-003
1.687436e+003,2.117667e-003
1.689365e+003,1.948021e-003
1.691293e+003,1.708269e-003
1.693222e+003,1.768049e-003
1.695150e+003,2.099067e-003
1.697079e+003,1.899026e-003
1.699007e+003,2.213083e-003
1.700936e+003,1.672357e-003
1.702864e+003,1.511607e-003
1.704793e+003,1.597650e-003
1.706721e+003,1.459032e-003
1.708650e+003,1.266506e-003
1.710578e+003,1.363650e-003
1.712507e+003,1.523599e-003
1.714435e+003,2.044577e-003
1.716364e+003,2.332803e-003
1.718292e+003,2.001055e-003
1.720221e+003,1.502912e-003
1.722149e+003,1.589198e-003
1.724078e+003,1.529478e-003
1.726006e+003,1.540896e-003
1.727935e+003,1.664817e-003
1.729863e+003,1.974732e-003
1.731792e+003,2.220035e-003
1.733720e+003,2.520189e-003
1.735649e+003,1.818467e-003
1.737577e+003,1.923230e-003
1.739506e+003,1.870140e-003
1.741434e+003,1.762517e-003
1.743363e+003,1.834020e-003
1.745291e+003,1.795352e-003
1.747220e+003,1.716539e-003
1.749148e+003,1.822151e-003
1.751077e+003,1.319520e-003
1.753005e+003,7.821508e-004
1.754934e+003,5.830079e-004
1.756862e+003,5.158149e-004
1.758791e+003,3.353171e-004
1.760719e+003,4.485883e-004
1.762648e+003,7.626414e-005
1.764576e+003,-1.111962e-004
1.766505e+003,-6.080419e-005
1.768433e+003,4.258379e-005
1.770362e+003,1.100153e-004
1.772290e+003,1.629330e-004
1.774219e+003,-3.373548e-004
1.776147e+003,-4.361607e-004
1.778076e+003,-4.533678e-004
1.780004e+003,-2.829581e-004
1.781933e+003,-4.566573e-004
1.783861e+003,-4.385412e-004
1.785790e+003,-6.082430e-004
1.787718e+003,-5.662255e-004
1.789646e+003,-3.933869e-004
1.791575e+003,-3.213808e-005
1.793504e+003,-3.001727e-004
1.795432e+003,-4.145280e-004
1.797361e+003,-6.114990e-004
1.799289e+003,-5.113706e-004
1.801218e+003,-5.625226e-004
1.803146e+003,-6.818920e-004
1.805074e+003,-8.368418e-004
1.807003e+003,-8.000545e-004
1.808932e+003,-7.752962e-004
1.810860e+003,-6.583780e-004
1.812789e+003,-8.776635e-004
1.814717e+003,-1.063410e-003
1.816646e+003,-1.287710e-003
1.818574e+003,-9.544864e-004
1.820502e+003,-7.402711e-004
1.822431e+003,-5.482510e-004
1.824360e+003,-6.179288e-004
1.826288e+003,-6.853826e-004
1.828217e+003,-6.471723e-004
1.830145e+003,-6.284751e-004
1.832073e+003,-1.101069e-003
1.834002e+003,-1.128782e-003
1.835931e+003,-1.169223e-003
1.837859e+003,-1.042675e-003
1.839788e+003,-1.217168e-003
1.841716e+003,-9.733289e-004
1.843645e+003,-8.666627e-004
1.845573e+003,-1.083147e-003
1.847501e+003,-1.413159e-003
1.849430e+003,-1.420859e-003
1.851359e+003,-1.547344e-003
1.853287e+003,-1.322716e-003
1.855216e+003,-1.341004e-003
1.857144e+003,-1.351632e-003
1.859073e+003,-1.555547e-003
1.861001e+003,-1.470737e-003
1.862929e+003,-1.488432e-003
1.864858e+003,-1.366850e-003
1.866787e+003,-1.276329e-003
1.868715e+003,-9.547584e-004
1.870644e+003,-1.368284e-003
1.872572e+003,-1.409635e-003
1.874500e+003,-1.466956e-003
1.876429e+003,-1.268782e-003
1.878357e+003,-1.339782e-003
1.880286e+003,-1.342412e-003
1.882215e+003,-1.548018e-003
1.884143e+003,-1.322582e-003
1.886072e+003,-1.248185e-003
1.888000e+003,-6.944314e-004
1.889928e+003,-6.797984e-004
1.891857e+003,-5.711690e-004
1.893785e+003,-2.536178e-004
1.895714e+003,-1.289323e-004
1.897643e+003,-4.669242e-004
1.899571e+003,-3.107376e-004
1.901500e+003,-3.055111e-004
1.903428e+003,-3.002994e-004
1.905356e+003,-2.951026e-004
1.907285e+003,-2.899170e-004
1.909213e+003,-2.847500e-004
1.911142e+003,-2.795905e-004
1.913071e+003,-2.744421e-004
1.914999e+003,-2.693161e-004
1.916927e+003,-2.641939e-004
1.918856e+003,-2.590902e-004
1.920784e+003,-2.540015e-004
1.922713e+003,-2.489202e-004
1.924641e+003,-2.438612e-004
1.926570e+003,-2.388060e-004
1.928499e+003,-2.337657e-004
1.930427e+003,-2.287403e-004
1.932355e+003,-2.237335e-004
1.934284e+003,-2.187304e-004
1.936212e+003,-2.137460e-004
1.938141e+003,-2.087764e-004
1.940070e+003,-2.038106e-004
1.941998e+003,-1.988709e-004
1.943927e+003,-1.939423e-004
1.945855e+003,-1.890250e-004
1.947783e+003,-1.841150e-004
1.949712e+003,-1.792200e-004
1.951640e+003,-1.743436e-004
1.953569e+003,-1.694784e-004
1.955498e+003,-1.646243e-004
1.957426e+003,-1.597926e-004
1.959354e+003,-1.549609e-004
1.961283e+003,-1.501516e-004
1.963211e+003,-1.453497e-004
1.965140e+003,-1.405627e-004
1.967068e+003,-1.357943e-004
1.968997e+003,-1.310371e-004
1.970926e+003,-1.262873e-004
1.972854e+003,-1.215562e-004
1.974782e+003,-1.168400e-004
1.976711e+003,-1.121275e-004
1.978639e+003,-1.074374e-004
1.980568e+003,-1.027621e-004
1.982496e+003,-9.809434e-005
1.984425e+003,-9.343773e-005
1.986354e+003,-8.879974e-005
1.988282e+003,-8.417293e-005
1.990210e+003,-7.956102e-005
1.992139e+003,-7.496029e-005
1.994067e+003,-7.037818e-005
1.995996e+003,-6.580353e-005
1.997924e+003,-6.124377e-005
1.999853e+003,-5.669892e-005
2.001781e+003,-5.216151e-005
2.003710e+003,-4.764646e-005
2.005638e+003,-4.314259e-005
2.007567e+003,-3.864616e-005
2.009495e+003,-3.416091e-005
2.011424e+003,-2.970174e-005
2.013352e+003,-2.524257e-005
2.015281e+003,-2.080202e-005
2.017209e+003,-1.638010e-005
2.019138e+003,-1.196563e-005
2.021066e+003,-7.562339e-006
2.022995e+003,-3.181398e-006
2.024923e+003,1.192093e-006
2.026852e+003,5.550683e-006
2.028781e+003,9.905547e-006
2.030709e+003,1.423433e-005
2.032637e+003,1.854822e-005
2.034566e+003,2.286211e-005
2.036494e+003,2.715364e-005
2.038423e+003,3.144145e-005
2.040351e+003,3.570318e-005
2.042280e+003,3.996119e-005
2.044208e+003,4.419684e-005
2.046137e+003,4.842132e-005
2.048065e+003,5.263835e-005
2.049994e+003,5.683303e-005
2.051922e+003,6.102398e-005
2.053851e+003,6.520376e-005
2.055779e+003,6.936118e-005
2.057708e+003,7.351115e-005
2.059636e+003,7.764250e-005
2.061565e+003,8.175895e-005
2.063493e+003,8.586794e-005
2.065422e+003,8.996576e-005
2.067350e+003,9.404123e-005
2.069279e+003,9.811297e-005
2.071207e+003,1.021661e-004
2.073136e+003,1.062043e-004
2.075064e+003,1.102313e-004
2.076993e+003,1.142509e-004
2.078921e+003,1.182482e-004
2.080850e+003,1.222342e-004
2.082778e+003,1.262054e-004
2.084707e+003,1.301728e-004
2.086635e+003,1.341179e-004
2.088564e+003,1.380593e-004
2.090492e+003,1.419783e-004
2.092421e+003,1.458824e-004
2.094349e+003,1.497753e-004
2.096278e+003,1.536570e-004
2.098206e+003,1.575314e-004
2.100135e+003,1.613870e-004
2.102063e+003,1.652278e-004
2.103992e+003,1.690499e-004
2.105920e+003,1.728646e-004
2.107849e+003,1.766644e-004
2.109777e+003,1.804531e-004
2.111706e+003,1.842231e-004
2.113634e+003,1.880005e-004
2.115563e+003,1.917407e-004
2.117491e+003,1.954772e-004
2.119420e+003,1.991950e-004
2.121348e+003,2.029054e-004
2.123277e+003,2.065971e-004
2.125205e+003,2.102815e-004
2.127134e+003,2.139471e-004
2.129062e+003,2.176091e-004
2.130991e+003,2.212487e-004
2.132919e+003,2.248771e-004
2.134848e+003,2.284907e-004
2.136776e+003,2.320930e-004
2.138705e+003,2.356842e-004
2.140633e+003,2.392530e-004
2.142562e+003,2.428219e-004
2.144490e+003,2.463721e-004
2.146419e+003,2.499074e-004
2.148347e+003,2.534240e-004
2.150276e+003,2.569370e-004
2.152204e+003,2.604276e-004
2.154133e+003,2.639107e-004
2.156061e+003,2.673864e-004
2.157990e+003,2.708435e-004
2.159918e+003,2.742782e-004
2.161847e+003,2.777129e-004
2.163775e+003,2.811216e-004
2.165704e+003,2.845265e-004
2.167632e+003,2.879091e-004
2.169561e+003,2.912916e-004
2.171489e+003,2.946556e-004
2.173418e+003,2.980046e-004
2.175346e+003,3.013425e-004
2.177275e+003,3.046617e-004
2.179203e+003,3.079735e-004
2.181132e+003,3.112666e-004
2.183060e+003,3.145523e-004
2.184989e+003,3.178157e-004
2.186917e+003,3.210828e-004
2.188846e+003,3.243238e-004
2.190774e+003,3.275461e-004
2.192703e+003,3.307611e-004
2.194631e+003,3.339685e-004
2.196560e+003,3.371537e-004
2.198488e+003,3.403313e-004
2.200417e+003,3.435053e-004
2.202345e+003,3.466494e-004
2.204274e+003,3.497899e-004
2.206202e+003,3.529079e-004
2.208131e+003,3.560223e-004
2.210059e+003,3.591105e-004
2.211988e+003,3.621951e-004
2.213916e+003,3.652647e-004
2.215845e+003,3.683157e-004
2.217773e+003,3.713667e-004
2.219702e+003,3.743991e-004
2.221630e+003,3.774166e-004
2.223559e+003,3.804229e-004
2.225487e+003,3.834106e-004
2.227416e+003,3.863834e-004
2.229344e+003,3.893487e-004
2.231273e+003,3.923029e-004
2.233201e+003,3.952421e-004
2.235130e+003,3.981590e-004
2.237058e+003,4.010759e-004
2.238987e+003,4.039668e-004
2.240915e+003,4.068427e-004
2.242844e+003,4.097149e-004
2.244772e+003,4.125834e-004
2.246701e+003,4.154220e-004
2.248629e+003,4.182607e-004
2.250558e+003,4.210696e-004
2.252486e+003,4.238747e-004
2.254415e+003,4.266687e-004
2.256343e+003,4.294440e-004
2.258272e+003,4.322045e-004
2.260200e+003,4.349537e-004
2.262129e+003,4.376955e-004
2.264057e+003,4.404224e-004
2.265986e+003,4.431270e-004
2.267914e+003,4.458241e-004
2.269843e+003,4.485101e-004
2.271771e+003,4.511811e-004
2.273700e+003,4.538372e-004
2.275628e+003,4.564896e-004
2.277557e+003,4.591197e-004
2.279485e+003,4.617348e-004
2.281414e+003,4.643425e-004
2.283342e+003,4.669279e-004
2.285271e+003,4.695095e-004
2.287199e+003,4.720688e-004
2.289128e+003,4.746243e-004
2.291056e+003,4.771650e-004
2.292985e+003,4.796907e-004
2.294913e+003,4.821979e-004
2.296842e+003,4.846938e-004
2.298770e+003,4.871786e-004
2.300699e+003,4.896522e-004
2.302627e+003,4.921183e-004
2.304556e+003,4.945584e-004
2.306484e+003,4.969947e-004
2.308413e+003,4.994050e-004
2.310341e+003,5.018078e-004
2.312270e+003,5.042031e-004
2.314198e+003,5.065799e-004
2.316127e+003,5.089417e-004
2.318055e+003,5.112961e-004
2.319984e+003,5.136356e-004
2.321912e+003,5.159676e-004
2.323841e+003,5.182773e-004
2.325769e+003,5.205721e-004
2.327698e+003,5.228519e-004
2.329626e+003,5.251244e-004
2.331555e+003,5.273819e-004
2.333483e+003,5.296394e-004
2.335412e+003,5.318746e-004
2.337340e+003,5.340874e-004
2.339269e+003,5.362928e-004
2.341197e+003,5.384907e-004
2.343126e+003,5.406588e-004
2.345054e+003,5.428270e-004
2.346983e+003,5.449876e-004
2.348911e+003,5.471259e-004
2.350840e+003,5.492494e-004
2.352768e+003,5.513653e-004
2.354697e+003,5.534589e-004
2.356625e+003,5.555376e-004
2.358554e+003,5.576164e-004
2.360482e+003,5.596727e-004
2.362411e+003,5.617216e-004
2.364339e+003,5.637631e-004
2.366268e+003,5.657747e-004
2.368196e+003,5.677789e-004
2.370125e+003,5.697682e-004
2.372053e+003,5.717576e-004
2.373982e+003,5.737171e-004
2.375910e+003,5.756691e-004
2.377839e+003,5.776137e-004
2.379767e+003,5.795434e-004
2.381696e+003,5.814508e-004
2.383624e+003,5.833507e-004
2.385553e+003,5.852431e-004
2.387481e+003,5.871058e-004
2.389410e+003,5.889609e-004
2.391338e+003,5.908161e-004
2.393267e+003,5.926564e-004
2.395195e+003,5.944595e-004
2.397124e+003,5.962774e-004
2.399052e+003,5.980656e-004
2.400981e+003,5.381331e-004
2.402909e+003,5.063564e-004
2.404838e+003,6.001964e-004
2.406766e+003,7.479414e-004
2.408695e+003,8.747950e-004
2.410623e+003,9.120777e-004
2.412552e+003,1.000673e-003
2.414480e+003,1.091205e-003
2.416409e+003,1.076683e-003
2.418337e+003,9.925440e-004
2.420266e+003,1.082174e-003
2.422194e+003,8.831546e-004
2.424123e+003,7.160753e-004
2.426051e+003,8.241311e-004
2.427979e+003,8.640662e-004
2.429908e+003,7.985532e-004
2.431837e+003,8.454546e-004
2.433765e+003,8.229464e-004
2.435694e+003,9.511933e-004
2.437622e+003,1.030169e-003
2.439551e+003,1.006939e-003
2.441479e+003,9.458289e-004
2.443407e+003,9.641498e-004
2.445336e+003,1.023069e-003
2.447265e+003,1.077682e-003
2.449193e+003,1.019165e-003
2.451122e+003,1.119196e-003
2.453050e+003,1.262024e-003
2.454979e+003,1.274668e-003
2.456907e+003,1.114920e-003
2.458836e+003,1.132838e-003
2.460764e+003,1.055710e-003
2.462693e+003,1.085326e-003
2.464621e+003,1.048937e-003
2.466550e+003,1.051776e-003
2.468478e+003,1.135662e-003
2.470406e+003,1.350738e-003
2.472335e+003,1.524344e-003
2.474264e+003,1.595795e-003
2.476192e+003,1.536131e-003
2.478121e+003,1.497559e-003
2.480049e+003,1.469344e-003
2.481978e+003,1.593202e-003
2.483906e+003,1.605026e-003
2.485835e+003,1.643911e-003
2.487763e+003,1.701027e-003
2.489692e+003,1.647398e-003
2.491620e+003,1.453206e-003
2.493549e+003,1.519263e-003
2.495477e+003,1.766279e-003
2.497406e+003,1.933314e-003
2.499334e+003,2.048492e-003
2.501263e+003,1.995638e-003
2.503191e+003,1.844823e-003
2.505120e+003,1.872532e-003
2.507048e+003,1.931019e-003
2.508977e+003,2.024628e-003
2.510905e+003,2.083056e-003
2.512833e+003,2.179153e-003
2.514762e+003,2.183102e-003
2.516691e+003,2.279937e-003
2.518619e+003,2.430081e-003
2.520548e+003,2.535470e-003
2.522476e+003,2.633080e-003
2.524405e+003,2.885133e-003
2.526333e+003,2.904989e-003
2.528261e+003,2.824321e-003
2.530190e+003,2.909198e-003
2.532119e+003,3.013194e-003
2.534047e+003,2.990410e-003
2.535976e+003,2.881087e-003
2.537904e+003,2.840199e-003
2.539833e+003,2.924733e-003
2.541761e+003,2.949245e-003
2.543689e+003,3.156945e-003
2.545618e+003,3.515542e-003
2.547547e+003,3.777005e-003
2.549475e+003,3.798440e-003
2.551404e+003,3.865696e-003
2.553332e+003,3.894359e-003
2.555260e+003,3.994532e-003
2.557189e+003,4.019782e-003
2.559117e+003,4.124008e-003
2.561046e+003,4.231550e-003
2.562975e+003,4.223257e-003
2.564903e+003,4.301593e-003
2.566832e+003,4.459791e-003
2.568760e+003,4.610240e-003
2.570688e+003,4.774049e-003
2.572617e+003,4.936919e-003
2.574546e+003,5.096696e-003
2.576474e+003,5.225003e-003
2.578403e+003,5.503446e-003
2.580331e+003,5.606845e-003
2.582260e+003,5.501978e-003
2.584188e+003,5.709983e-003
2.586116e+003,6.091274e-003
2.588045e+003,6.470494e-003
2.589974e+003,6.720297e-003
2.591902e+003,6.850511e-003
2.593831e+003,7.003680e-003
2.595759e+003,7.139280e-003
2.597688e+003,7.362835e-003
2.599616e+003,7.655099e-003
2.601544e+003,7.805206e-003
2.603473e+003,7.879697e-003
2.605402e+003,8.061051e-003
2.607330e+003,8.381620e-003
2.609259e+003,8.825399e-003
2.611187e+003,9.145901e-003
2.613115e+003,9.419143e-003
2.615044e+003,9.714715e-003
2.616972e+003,9.956188e-003
2.618901e+003,1.031818e-002
2.620830e+003,1.068099e-002
2.622758e+003,1.099639e-002
2.624687e+003,1.144470e-002
2.626615e+003,1.190825e-002
2.628543e+003,1.231114e-002
2.630472e+003,1.266517e-002
2.632400e+003,1.296046e-002
2.634329e+003,1.321512e-002
2.636258e+003,1.338887e-002
2.638186e+003,1.345320e-002
2.640115e+003,1.344578e-002
2.642043e+003,1.336626e-002
2.643971e+003,1.338194e-002
2.645900e+003,1.345338e-002
2.647828e+003,1.352841e-002
2.649757e+003,1.365633e-002
2.651686e+003,1.382572e-002
2.653614e+003,1.404771e-002
2.655542e+003,1.421709e-002
2.657471e+003,1.427049e-002
2.659399e+003,1.433516e-002
2.661328e+003,1.434302e-002
2.663256e+003,1.421889e-002
2.665185e+003,1.403622e-002
2.667114e+003,1.387674e-002
2.669042e+003,1.372425e-002
2.670970e+003,1.355056e-002
2.672899e+003,1.339315e-002
2.674827e+003,1.331620e-002
2.676756e+003,1.323617e-002
2.678685e+003,1.314867e-002
2.680613e+003,1.304884e-002
2.682542e+003,1.292964e-002
2.684470e+003,1.277712e-002
2.686398e+003,1.261766e-002
2.688327e+003,1.253268e-002
2.690255e+003,1.249281e-002
2.692184e+003,1.240531e-002
2.694113e+003,1.232880e-002
2.696041e+003,1.227470e-002
2.697969e+003,1.229057e-002
2.699898e+003,1.242141e-002
2.701826e+003,1.260633e-002
2.703755e+003,1.275749e-002
2.705683e+003,1.289745e-002
2.707612e+003,1.311869e-002
2.709541e+003,1.335768e-002
2.711469e+003,1.352037e-002
2.713397e+003,1.370054e-002
2.715326e+003,1.384606e-002
2.717254e+003,1.400586e-002
2.719183e+003,1.424671e-002
2.721111e+003,1.445109e-002
2.723040e+003,1.464128e-002
2.724969e+003,1.496936e-002
2.726897e+003,1.531176e-002
2.728825e+003,1.558755e-002
2.730754e+003,1.582401e-002
2.732682e+003,1.599307e-002
2.734611e+003,1.623604e-002
2.736539e+003,1.642476e-002
2.738468e+003,1.654296e-002
2.740396e+003,1.668184e-002
2.742325e+003,1.677346e-002
2.744253e+003,1.681166e-002
2.746182e+003,1.678254e-002
2.748110e+003,1.675877e-002
2.750039e+003,1.687603e-002
2.751967e+003,1.708995e-002
2.753896e+003,1.736166e-002
2.755824e+003,1.767004e-002
2.757753e+003,1.800213e-002
2.759681e+003,1.838244e-002
2.761610e+003,1.881072e-002
2.763538e+003,1.921235e-002
2.765467e+003,1.967817e-002
2.767395e+003,2.017608e-002
2.769324e+003,2.068722e-002
2.771252e+003,2.129881e-002
2.773181e+003,2.201153e-002
2.775109e+003,2.280853e-002
2.777038e+003,2.367251e-002
2.778966e+003,2.458491e-002
2.780895e+003,2.565018e-002
2.782823e+003,2.688869e-002
2.784752e+003,2.818215e-002
2.786680e+003,2.954516e-002
2.788609e+003,3.104631e-002
2.790537e+003,3.257894e-002
2.792466e+003,3.411272e-002
2.794394e+003,3.575718e-002
2.796323e+003,3.751737e-002
2.798251e+003,3.928242e-002
2.800180e+003,4.116030e-002
2.802108e+003,4.323401e-002
2.804037e+003,4.541953e-002
2.805965e+003,4.778064e-002
2.807894e+003,5.034944e-002
2.809822e+003,5.322608e-002
2.811751e+003,5.656992e-002
2.813679e+003,6.037744e-002
2.815608e+003,6.478398e-002
2.817536e+003,6.984432e-002
2.819465e+003,7.573425e-002
2.821393e+003,8.272938e-002
2.823322e+003,9.127749e-002
2.825250e+003,1.018295e-001
2.827179e+003,1.151316e-001
2.829107e+003,1.321982e-001
2.831036e+003,1.546545e-001
2.832964e+003,1.849814e-001
2.834893e+003,2.274072e-001
2.836821e+003,2.876665e-001
2.838750e+003,3.749046e-001
2.840678e+003,5.037481e-001
2.842607e+003,6.910454e-001
2.844535e+003,9.401731e-001
2.846464e+003,1.180452e+000
2.848392e+003,1.209554e+000
2.850321e+003,9.875024e-001
2.852249e+003,7.331957e-001
2.854178e+003,5.490540e-001
2.856106e+003,4.219783e-001
2.858035e+003,3.313102e-001
2.859963e+003,2.665509e-001
2.861892e+003,2.214791e-001
2.863820e+003,1.915000e-001
2.865749e+003,1.732781e-001
2.867677e+003,1.641232e-001
2.869606e+003,1.613849e-001
2.871534e+003,1.627891e-001
2.873463e+003,1.680483e-001
2.875391e+003,1.782937e-001
2.877320e+003,1.942184e-001
2.879248e+003,2.153313e-001
2.881177e+003,2.404144e-001
2.883105e+003,2.686973e-001
2.885034e+003,2.996159e-001
2.886962e+003,3.324567e-001
2.888891e+003,3.665735e-001
2.890819e+003,4.011310e-001
2.892748e+003,4.353244e-001
2.894676e+003,4.690118e-001
2.896605e+003,5.028406e-001
2.898533e+003,5.384004e-001
2.900462e+003,5.783622e-001
2.902390e+003,6.266881e-001
2.904319e+003,6.896099e-001
2.906247e+003,7.753364e-001
2.908176e+003,8.930652e-001
2.910104e+003,1.049091e+000
2.912033e+003,1.230209e+000
2.913961e+003,1.372037e+000
2.915890e+003,1.379394e+000
2.917818e+003,1.245607e+000
2.919747e+003,1.060252e+000
2.921675e+003,8.870458e-001
2.923604e+003,7.424079e-001
2.925532e+003,6.252574e-001
2.927461e+003,5.292513e-001
2.929389e+003,4.483618e-001
2.931318e+003,3.792518e-001
2.933246e+003,3.199253e-001
2.935175e+003,2.690737e-001
2.937103e+003,2.258565e-001
2.939032e+003,1.893519e-001
2.940960e+003,1.590070e-001
2.942889e+003,1.343958e-001
2.944817e+003,1.151237e-001
2.946746e+003,1.007579e-001
2.948674e+003,9.073059e-002
2.950603e+003,8.397893e-002
2.952531e+003,7.891086e-002
2.954460e+003,7.414188e-002
2.956388e+003,6.914786e-002
2.958317e+003,6.380197e-002
2.960245e+003,5.820069e-002
2.962174e+003,5.243704e-002
2.964102e+003,4.674036e-002
2.966031e+003,4.132845e-002
2.967959e+003,3.648818e-002
2.969888e+003,3.227177e-002
2.971816e+003,2.865800e-002
2.973745e+003,2.566902e-002
2.975673e+003,2.320267e-002
2.977602e+003,2.111735e-002
2.979530e+003,1.941932e-002
2.981459e+003,1.797951e-002
2.983387e+003,1.676640e-002
2.985316e+003,1.571413e-002
2.987244e+003,1.476498e-002
2.989173e+003,1.393718e-002
2.991101e+003,1.319968e-002
2.993030e+003,1.256025e-002
2.994958e+003,1.203798e-002
2.996887e+003,1.156310e-002
2.998815e+003,1.112291e-002
3.000744e+003,1.075412e-002
3.002672e+003,1.040742e-002
3.004601e+003,1.006741e-002
3.006529e+003,9.761803e-003
3.008458e+003,9.441204e-003
3.010386e+003,9.174123e-003
3.012315e+003,9.053774e-003
3.014243e+003,8.894451e-003
3.016172e+003,8.639358e-003
3.018100e+003,8.423366e-003
3.020029e+003,8.271761e-003
3.021957e+003,8.127160e-003
3.023886e+003,7.938847e-003
3.025814e+003,7.863238e-003
3.027743e+003,7.760838e-003
3.029671e+003,7.653132e-003
3.031600e+003,7.455550e-003
3.033528e+003,7.153645e-003
3.035457e+003,6.926328e-003
3.037385e+003,6.730363e-003
3.039314e+003,6.501257e-003
3.041242e+003,6.295644e-003
3.043171e+003,6.022811e-003
3.045099e+003,5.721048e-003
3.047028e+003,5.552046e-003
3.048956e+003,5.373977e-003
3.050885e+003,5.191900e-003
3.052813e+003,5.068734e-003
3.054742e+003,4.999898e-003
3.056670e+003,4.927523e-003
3.058599e+003,4.812188e-003
3.060527e+003,4.698239e-003
3.062456e+003,4.563965e-003
3.064384e+003,4.495353e-003
3.066313e+003,4.432857e-003
3.068241e+003,4.331313e-003
3.070170e+003,4.260466e-003
3.072098e+003,4.217930e-003
3.074027e+003,4.165977e-003
3.075955e+003,4.167922e-003
3.077884e+003,4.192345e-003
3.079812e+003,4.198544e-003
3.081741e+003,4.063509e-003
3.083669e+003,3.913991e-003
3.085598e+003,3.805630e-003
3.087526e+003,3.686748e-003
3.089455e+003,3.562585e-003
3.091383e+003,3.399685e-003
3.093312e+003,3.224902e-003
3.095240e+003,3.025010e-003
3.097169e+003,2.849579e-003
3.099097e+003,2.678342e-003
3.101026e+003,2.525993e-003
3.102954e+003,2.439611e-003
3.104883e+003,2.316400e-003
3.106811e+003,2.189755e-003
3.108740e+003,2.110697e-003
3.110668e+003,2.171710e-003
3.112597e+003,2.147622e-003
3.114525e+003,2.081171e-003
3.116454e+003,2.032943e-003
3.118382e+003,2.028681e-003
3.120311e+003,1.940273e-003
3.122239e+003,1.966462e-003
3.124168e+003,2.086431e-003
3.126096e+003,2.112508e-003
3.128025e+003,2.039626e-003
3.129953e+003,2.020933e-003
3.131882e+003,2.073497e-003
3.133810e+003,2.053224e-003
3.135739e+003,2.129078e-003
3.137667e+003,2.268322e-003
3.139596e+003,2.332047e-003
3.141524e+003,2.383284e-003
3.143453e+003,2.464518e-003
3.145381e+003,2.547301e-003
3.147310e+003,2.620384e-003
3.149238e+003,2.711505e-003
3.151167e+003,2.746165e-003
3.153095e+003,2.724916e-003
3.155024e+003,2.797045e-003
3.156952e+003,2.845228e-003
3.158881e+003,2.880700e-003
3.160809e+003,2.964690e-003
3.162738e+003,3.051698e-003
3.164666e+003,3.142633e-003
3.166594e+003,3.179625e-003
3.168523e+003,3.272638e-003
3.170452e+003,3.442056e-003
3.172380e+003,3.475003e-003
3.174309e+003,3.516182e-003
3.176237e+003,3.681466e-003
3.178166e+003,3.820151e-003
3.180094e+003,3.877632e-003
3.182022e+003,3.956035e-003
3.183951e+003,4.065245e-003
3.185880e+003,4.136518e-003
3.187808e+003,4.210711e-003
3.189737e+003,4.288830e-003
3.191665e+003,4.347697e-003
3.193594e+003,4.449196e-003
3.195522e+003,4.495643e-003
3.197450e+003,4.548162e-003
3.199379e+003,4.572578e-003
3.201308e+003,4.592940e-003
3.203236e+003,4.702047e-003
3.205165e+003,4.806407e-003
3.207093e+003,4.991785e-003
3.209021e+003,5.167626e-003
3.210950e+003,5.155809e-003
3.212878e+003,5.178273e-003
3.214807e+003,5.295560e-003
3.216736e+003,5.402945e-003
3.218664e+003,5.541191e-003
3.220593e+003,5.539909e-003
3.222521e+003,5.563691e-003
3.224449e+003,5.643465e-003
3.226378e+003,5.771182e-003
3.228307e+003,5.941600e-003
3.230235e+003,6.049126e-003
3.232164e+003,6.036177e-003
3.234092e+003,6.104395e-003
3.236021e+003,6.289206e-003
3.237949e+003,6.313384e-003
3.239877e+003,6.373152e-003
3.241806e+003,6.631479e-003
3.243735e+003,6.745875e-003
3.245663e+003,6.790891e-003
3.247592e+003,6.856605e-003
3.249520e+003,6.878622e-003
3.251448e+003,6.958775e-003
3.253377e+003,7.147126e-003
3.255305e+003,7.362656e-003
3.257234e+003,7.535756e-003
3.259163e+003,7.552437e-003
3.261091e+003,7.621400e-003
3.263020e+003,7.798567e-003
3.264948e+003,7.908039e-003
3.266876e+003,8.007303e-003
3.268805e+003,8.165963e-003
3.270733e+003,8.290522e-003
3.272662e+003,8.348405e-003
3.274591e+003,8.489512e-003
3.276519e+003,8.556083e-003
3.278448e+003,8.622378e-003
3.280376e+003,8.731909e-003
3.282304e+003,8.900560e-003
3.284233e+003,8.981317e-003
3.286161e+003,9.043433e-003
3.288090e+003,9.156413e-003
3.290019e+003,9.316474e-003
3.291947e+003,9.346895e-003
3.293875e+003,9.352610e-003
3.295804e+003,9.503454e-003
3.297732e+003,9.534843e-003
3.299661e+003,9.548411e-003
3.301589e+003,9.687632e-003
3.303518e+003,9.808205e-003
3.305447e+003,9.909838e-003
3.307375e+003,1.003657e-002
3.309303e+003,1.007812e-002
3.311232e+003,1.000969e-002
3.313160e+003,9.935535e-003
3.315089e+003,9.988278e-003
3.317018e+003,1.017220e-002
3.318946e+003,1.028743e-002
3.320875e+003,1.033810e-002
3.322803e+003,1.037164e-002
3.324731e+003,1.051857e-002
3.326660e+003,1.061495e-002
3.328588e+003,1.064252e-002
3.330517e+003,1.078168e-002
3.332446e+003,1.092052e-002
3.334374e+003,1.110704e-002
3.336302e+003,1.126598e-002
3.338231e+003,1.124746e-002
3.340159e+003,1.123893e-002
3.342088e+003,1.126537e-002
3.344016e+003,1.126265e-002
3.345945e+003,1.136903e-002
3.347874e+003,1.152278e-002
3.349802e+003,1.154801e-002
3.351730e+003,1.156487e-002
3.353659e+003,1.156403e-002
3.355587e+003,1.163568e-002
3.357516e+003,1.175089e-002
3.359444e+003,1.184297e-002
3.361373e+003,1.189153e-002
3.363302e+003,1.189397e-002
3.365230e+003,1.190441e-002
3.367158e+003,1.195294e-002
3.369087e+003,1.203696e-002
3.371015e+003,1.207371e-002
3.372944e+003,1.191211e-002
3.374872e+003,1.185073e-002
3.376801e+003,1.190208e-002
3.378729e+003,1.189949e-002
3.380658e+003,1.202735e-002
3.382586e+003,1.206065e-002
3.384515e+003,1.204314e-002
3.386443e+003,1.193482e-002
3.388372e+003,1.184581e-002
3.390300e+003,1.190454e-002
3.392229e+003,1.194435e-002
3.394157e+003,1.185757e-002
3.396086e+003,1.199534e-002
3.398014e+003,1.189890e-002
3.399943e+003,1.170090e-002
3.401871e+003,1.175240e-002
3.403800e+003,1.178927e-002
3.405728e+003,1.185592e-002
3.407657e+003,1.175314e-002
3.409585e+003,1.155651e-002
3.411514e+003,1.155791e-002
3.413442e+003,1.155395e-002
3.415371e+003,1.150881e-002
3.417299e+003,1.144914e-002
3.419228e+003,1.142253e-002
3.421156e+003,1.137038e-002
3.423085e+003,1.132551e-002
3.425013e+003,1.119900e-002
3.426942e+003,1.110133e-002
3.428870e+003,1.111326e-002
3.430799e+003,1.107984e-002
3.432727e+003,1.098324e-002
3.434656e+003,1.085875e-002
3.436584e+003,1.078066e-002
3.438513e+003,1.082155e-002
3.440441e+003,1.082841e-002
3.442370e+003,1.067249e-002
3.444298e+003,1.055112e-002
3.446227e+003,1.052713e-002
3.448155e+003,1.019844e-002
3.450084e+003,1.007257e-002
3.452012e+003,9.994254e-003
3.453941e+003,9.809077e-003
3.455869e+003,9.723626e-003
3.457798e+003,9.628601e-003
3.459726e+003,9.554289e-003
3.461655e+003,9.495050e-003
3.463583e+003,9.284198e-003
3.465512e+003,9.216838e-003
3.467440e+003,9.194560e-003
3.469369e+003,9.069264e-003
3.471297e+003,8.863151e-003
3.473226e+003,8.810475e-003
3.475154e+003,8.656077e-003
3.477083e+003,8.454613e-003
3.479011e+003,8.555718e-003
3.480940e+003,8.632287e-003
3.482868e+003,8.410498e-003
3.484797e+003,8.187883e-003
3.486725e+003,8.095518e-003
3.488654e+003,7.950418e-003
3.490582e+003,7.751554e-003
3.492511e+003,7.583268e-003
3.494439e+003,7.529028e-003
3.496368e+003,7.359080e-003
3.498296e+003,7.065959e-003
3.500225e+003,7.155783e-003
3.502153e+003,7.366367e-003
3.504082e+003,7.089302e-003
3.506010e+003,6.651744e-003
3.507939e+003,6.716304e-003
3.509867e+003,6.671898e-003
3.511796e+003,6.426007e-003
3.513724e+003,6.198227e-003
3.515653e+003,6.022193e-003
3.517581e+003,5.924821e-003
3.519510e+003,5.815707e-003
3.521438e+003,5.838454e-003
3.523367e+003,5.853578e-003
3.525295e+003,5.753383e-003
3.527224e+003,5.649440e-003
3.529152e+003,5.200841e-003
3.531081e+003,4.763924e-003
3.533009e+003,4.591718e-003
3.534938e+003,4.780717e-003
3.536866e+003,4.494198e-003
3.538795e+003,4.094653e-003
3.540723e+003,3.985569e-003
3.542652e+003,4.312582e-003
3.544580e+003,4.692107e-003
3.546509e+003,4.184611e-003
3.548437e+003,3.571495e-003
3.550366e+003,3.635392e-003
3.552294e+003,3.662430e-003
3.554223e+003,3.238402e-003
3.556151e+003,3.036968e-003
3.558080e+003,3.090449e-003
3.560008e+003,3.128707e-003
3.561937e+003,2.851732e-003
3.563865e+003,3.081612e-003
3.565794e+003,3.890611e-003
3.567722e+003,3.053114e-003
3.569651e+003,2.225779e-003
3.571579e+003,2.062619e-003
3.573508e+003,1.861952e-003
3.575436e+003,1.736961e-003
3.577365e+003,1.671158e-003
3.579293e+003,1.595013e-003
3.581222e+003,1.429610e-003
3.583150e+003,1.537710e-003
3.585079e+003,2.185382e-003
3.587007e+003,2.376705e-003
3.588936e+003,1.488984e-003
3.590864e+003,1.573175e-003
3.592793e+003,1.885585e-003
3.594721e+003,1.915701e-003
3.596650e+003,2.096258e-003
3.598578e+003,2.444901e-003
3.600507e+003,2.660595e-003
3.602435e+003,2.482980e-003
3.604364e+003,2.607532e-003
3.606292e+003,3.196001e-003
3.608221e+003,2.908386e-003
3.610149e+003,2.384402e-003
3.612078e+003,2.508000e-003
3.614006e+003,1.803748e-003
3.615935e+003,1.359358e-003
3.617863e+003,1.616865e-003
3.619792e+003,1.078337e-003
3.621720e+003,2.892166e-004
3.623649e+003,2.329797e-005
3.625577e+003,4.601330e-004
3.627506e+003,1.715332e-003
3.629434e+003,6.819442e-004
3.631363e+003,2.539158e-005
3.633291e+003,3.675595e-004
3.635220e+003,-1.112819e-004
3.637148e+003,-3.089011e-005
3.639077e+003,2.928525e-004
3.641005e+003,5.093366e-004
3.642934e+003,3.793016e-004
3.644862e+003,6.786734e-004
3.646791e+003,1.796521e-003
3.648719e+003,1.857854e-003
3.650648e+003,1.671016e-004
3.652576e+003,-6.256774e-004
3.654505e+003,-1.783669e-004
3.656433e+003,-7.906184e-004
3.658362e+003,-1.262359e-003
3.660290e+003,-1.014441e-003
3.662219e+003,-1.019955e-003
3.664147e+003,-1.255579e-003
3.666076e+003,-9.736717e-004
3.668004e+003,3.206581e-004
3.669933e+003,2.631918e-004
3.671861e+003,-5.808845e-004
3.673790e+003,6.842762e-004
3.675718e+003,3.136694e-005
3.677647e+003,-1.193918e-003
3.679575e+003,-1.193427e-003
3.681504e+003,-1.425184e-003
3.683432e+003,-1.257509e-003
3.685361e+003,-8.935258e-004
3.687289e+003,-1.868308e-004
3.689218e+003,-6.736070e-005
3.691146e+003,-9.475574e-004
3.693075e+003,-1.330353e-003
3.695003e+003,-1.107596e-003
3.696932e+003,-1.317807e-003
3.698860e+003,-1.351826e-003
3.700789e+003,-7.733032e-004
3.702717e+003,-9.225309e-004
3.704646e+003,-1.083702e-003
3.706574e+003,-8.098334e-004
3.708503e+003,-2.927408e-004
3.710431e+003,1.957417e-004
3.712360e+003,-5.003810e-004
3.714288e+003,-1.086287e-003
3.716217e+003,-9.804219e-004
3.718145e+003,-7.928833e-004
3.720074e+003,-4.488155e-004
3.722002e+003,-3.495812e-005
3.723931e+003,-1.680255e-004
3.725859e+003,-2.541170e-004
3.727788e+003,-7.819757e-004
3.729716e+003,-3.242120e-004
3.731645e+003,3.419146e-004
3.733573e+003,1.117617e-003
3.735502e+003,1.844198e-003
3.737430e+003,2.542809e-004
3.739359e+003,-2.285391e-004
3.741287e+003,1.629815e-004
3.743216e+003,9.768829e-004
3.745144e+003,1.474842e-004
3.747073e+003,4.436672e-004
3.749001e+003,1.356378e-003
3.750930e+003,9.028390e-004
3.752858e+003,-5.888790e-004
3.754787e+003,-7.152185e-004
3.756715e+003,-2.354607e-004
3.758644e+003,-1.907423e-004
3.760572e+003,-7.462278e-004
3.762501e+003,-7.473156e-004
3.764429e+003,-3.455058e-004
3.766358e+003,-5.340055e-004
3.768286e+003,-2.406463e-004
3.770215e+003,-5.790815e-004
3.772143e+003,-9.697527e-004
3.774072e+003,-9.426400e-004
3.776000e+003,-7.653907e-004
3.777929e+003,-1.685545e-004
3.779857e+003,-5.525649e-004
3.781786e+003,-7.850826e-004
3.783714e+003,-1.767278e-005
3.785643e+003,-4.140437e-004
3.787571e+003,-7.587001e-004
3.789500e+003,-5.828515e-004
3.791428e+003,-5.548894e-004
3.793357e+003,-2.403706e-004
3.795285e+003,2.579167e-004
3.797214e+003,-1.008809e-004
3.799142e+003,5.611703e-004
3.801071e+003,1.018152e-003
3.802999e+003,-1.912117e-004
3.804927e+003,2.890900e-004
3.806856e+003,1.372993e-004
3.808785e+003,-3.455356e-004
3.810713e+003,-1.770929e-004
3.812642e+003,-1.440942e-005
3.814570e+003,9.262115e-004
3.816499e+003,4.988089e-004
3.818427e+003,8.065328e-004
3.820355e+003,1.820877e-003
3.822284e+003,1.983792e-004
3.824213e+003,2.715364e-004
3.826141e+003,5.414933e-004
3.828070e+003,-1.182407e-005
3.829998e+003,3.194064e-004
3.831927e+003,4.970878e-004
3.833855e+003,6.439537e-004
3.835783e+003,1.247972e-003
3.837712e+003,1.303323e-003
3.839641e+003,9.012595e-004
3.841569e+003,5.176514e-004
3.843498e+003,2.179071e-004
3.845426e+003,2.457947e-005
3.847354e+003,3.469884e-004
3.849283e+003,7.690936e-004
3.851211e+003,1.901478e-003
3.853140e+003,1.904771e-003
3.855069e+003,4.223138e-004
3.856997e+003,3.361553e-004
3.858926e+003,-3.352761e-005
3.860854e+003,5.512983e-004
3.862782e+003,1.512609e-003
3.864711e+003,1.078039e-003
3.866640e+003,6.740913e-004
3.868568e+003,1.723006e-003
3.870497e+003,9.189695e-004
3.872425e+003,1.043104e-003
3.874354e+003,9.101033e-004
3.876282e+003,2.619624e-004
3.878210e+003,9.886771e-004
3.880139e+003,1.269244e-003
3.882068e+003,6.582662e-004
3.883996e+003,1.147635e-003
3.885925e+003,4.412532e-004
3.887853e+003,1.241490e-004
3.889781e+003,9.680614e-004
3.891710e+003,8.225515e-004
3.893638e+003,5.056486e-004
3.895567e+003,6.520823e-004
3.897496e+003,1.106672e-003
3.899424e+003,1.391344e-003
3.901353e+003,1.232341e-003
3.903281e+003,1.302399e-003
3.905209e+003,8.561760e-004
3.907138e+003,4.104599e-004
3.909066e+003,4.334748e-004
3.910995e+003,5.583912e-004
3.912924e+003,6.632060e-004
3.914852e+003,1.217559e-003
3.916781e+003,1.501195e-003
3.918709e+003,1.150995e-003
3.920637e+003,7.090494e-004
3.922566e+003,9.076372e-004
3.924494e+003,1.126647e-003
3.926423e+003,5.701631e-004
3.928352e+003,7.326156e-004
3.930280e+003,1.013830e-003
3.932208e+003,7.393286e-004
3.934137e+003,2.540350e-004
3.936065e+003,2.916157e-004
3.937994e+003,2.133772e-004
3.939922e+003,3.150627e-004
3.941851e+003,7.080659e-004
3.943780e+003,4.036948e-004
3.945708e+003,2.670139e-004
3.947636e+003,5.838722e-004
3.949565e+003,4.993677e-004
3.951493e+003,9.445101e-005
3.953422e+003,-1.385957e-004
3.955351e+003,5.847216e-005
3.957279e+003,1.778975e-004
3.959208e+003,1.531839e-004
3.961136e+003,1.892373e-004
3.963064e+003,9.328127e-005
3.964993e+003,5.850941e-005
3.966921e+003,2.336353e-004
3.968850e+003,3.394336e-004
3.970779e+003,2.926067e-004
3.972707e+003,3.072843e-004
3.974635e+003,3.309771e-004
3.976564e+003,2.346113e-004
3.978492e+003,8.907169e-005
3.980421e+003,1.745000e-004
3.982349e+003,2.612695e-004
3.984278e+003,1.868233e-004
3.986207e+003,1.773387e-004
3.988135e+003,2.901107e-004
3.990063e+003,1.530573e-004
3.991992e+003,6.950647e-005
3.993920e+003,2.019256e-004
3.995849e+003,2.466440e-004
3.997777e+003,8.492917e-005
3.999706e+003,2.668798e-005
4.001635e+003,0.000000e+000
