3.991992e+002,0.000000e+000
4.011277e+002,0.000000e+000
4.030562e+002,0.000000e+000
4.049846e+002,0.000000e+000
4.069131e+002,0.000000e+000
4.088416e+002,0.000000e+000
4.107701e+002,0.000000e+000
4.126986e+002,0.000000e+000
4.146271e+002,0.000000e+000
4.165556e+002,0.000000e+000
4.184841e+002,0.000000e+000
4.204126e+002,0.000000e+000
4.223411e+002,0.000000e+000
4.242697e+002,0.000000e+000
4.261982e+002,0.000000e+000
4.281266e+002,0.000000e+000
4.300551e+002,0.000000e+000
4.319836e+002,0.000000e+000
4.339121e+002,0.000000e+000
4.358406e+002,0.000000e+000
4.377691e+002,0.000000e+000
4.396976e+002,0.000000e+000
4.416261e+002,0.000000e+000
4.435546e+002,0.000000e+000
4.454831e+002,0.000000e+000
4.474116e+002,0.000000e+000
4.493401e+002,0.000000e+000
4.512686e+002,0.000000e+000
4.531971e+002,0.000000e+000
4.551256e+002,0.000000e+000
4.570541e+002,0.000000e+000
4.589826e+002,0.000000e+000
4.609111e+002,0.000000e+000
4.628396e+002,0.000000e+000
4.647681e+002,0.000000e+000
4.666966e+002,0.000000e+000
4.686251e+002,0.000000e+000
4.705536e+002,0.000000e+000
4.724821e+002,0.000000e+000
4.744106e+002,0.000000e+000
4.763391e+002,0.000000e+000
4.782676e+002,0.000000e+000
4.801961e+002,0.000000e+000
4.821246e+002,0.000000e+000
4.840531e+002,0.000000e+000
4.859816e+002,0.000000e+000
4.879101e+002,0.000000e+000
4.898386e+002,0.000000e+000
4.917671e+002,0.000000e+000
4.936956e+002,0.000000e+000
4.956241e+002,0.000000e+000
4.975526e+002,0.000000e+000
4.994811e+002,0.000000e+000
5.014096e+002,0.000000e+000
5.033381e+002,0.000000e+000
5.052666e+002,0.000000e+000
5.071951e+002,0.000000e+000
5.091236e+002,0.000000e+000
5.110521e+002,0.000000e+000
5.129806e+002,0.000000e+000
5.149091e+002,0.000000e+000
5.168376e+002,0.000000e+000
5.187661e+002,0.000000e+000
5.206946e+002,0.000000e+000
5.226230e+002,0.000000e+000
5.245516e+002,9.038299e-005
5.264800e+002,1.551062e-004
5.284086e+002,2.202392e-005
5.303370e+002,-1.360811e-004
5.322656e+002,-5.401298e-005
5.341940e+002,1.211595e-004
5.361226e+002,2.314392e-004
5.380510e+002,1.110416e-004
5.399796e+002,-1.111627e-005
5.419081e+002,4.750490e-005
5.438365e+002,1.105741e-004
5.457650e+002,-3.791414e-005
5.476935e+002,-1.458433e-004
5.496221e+002,-1.736749e-004
5.515505e+002,-8.789822e-006
5.534790e+002,1.094714e-004
5.554075e+002,2.049375e-004
5.573361e+002,6.066822e-005
5.592645e+002,-7.672235e-006
5.611931e+002,-1.229141e-004
5.631215e+002,-1.315959e-004
5.650500e+002,-1.456719e-004
5.669785e+002,-5.782023e-005
5.689070e+002,2.803653e-005
5.708355e+002,-3.607757e-005
5.727640e+002,-1.049247e-004
5.746925e+002,1.049601e-005
5.766210e+002,4.888140e-005
5.785495e+002,-1.277886e-004
5.804780e+002,-3.536083e-004
5.824065e+002,-3.477689e-004
5.843350e+002,-2.132971e-004
5.862635e+002,-2.608448e-005
5.881920e+002,-1.415610e-007
5.901205e+002,-1.589991e-004
5.920490e+002,-2.276711e-004
5.939775e+002,-8.852035e-005
5.959060e+002,-1.043864e-004
5.978345e+002,-1.092721e-004
5.997630e+002,-5.619973e-005
6.016915e+002,2.048723e-005
6.036200e+002,1.140647e-004
6.055485e+002,1.476761e-004
6.074770e+002,-9.400770e-006
6.094055e+002,-2.776273e-005
6.113340e+002,-1.269206e-005
6.132625e+002,-1.296382e-004
6.151910e+002,-2.430007e-004
6.171195e+002,-2.566762e-004
6.190480e+002,-1.547243e-004
6.209765e+002,6.249174e-006
6.229050e+002,4.114211e-005
6.248335e+002,1.425669e-004
6.267620e+002,1.475848e-004
6.286905e+002,2.169572e-004
6.306190e+002,2.710912e-004
6.325475e+002,2.725329e-004
6.344760e+002,3.323741e-004
6.364045e+002,5.300250e-004
6.383330e+002,4.642326e-004
6.402615e+002,4.223865e-004
6.421899e+002,4.445966e-004
6.441185e+002,5.519185e-004
6.460470e+002,5.286559e-004
6.479755e+002,4.942119e-004
6.499039e+002,4.599616e-004
6.518325e+002,5.224198e-004
6.537610e+002,6.401949e-004
6.556895e+002,7.496495e-004
6.576179e+002,7.498115e-004
6.595464e+002,7.710904e-004
6.614750e+002,6.403830e-004
6.634034e+002,6.924272e-004
6.653319e+002,8.293577e-004
6.672604e+002,9.565204e-004
6.691890e+002,1.010895e-003
6.711174e+002,1.189994e-003
6.730460e+002,1.258669e-003
6.749745e+002,1.371572e-003
6.769030e+002,1.441315e-003
6.788314e+002,1.590440e-003
6.807599e+002,1.753023e-003
6.826885e+002,1.986224e-003
6.846169e+002,2.148107e-003
6.865454e+002,2.414346e-003
6.884739e+002,2.623379e-003
6.904025e+002,2.992447e-003
6.923309e+002,3.303057e-003
6.942594e+002,3.775686e-003
6.961879e+002,4.395261e-003
6.981165e+002,5.167037e-003
7.000449e+002,6.034343e-003
7.019734e+002,7.359689e-003
7.039019e+002,9.036342e-003
7.058304e+002,1.139795e-002
7.077589e+002,1.452189e-002
7.096874e+002,1.935758e-002
7.116159e+002,2.723338e-002
7.135444e+002,4.230683e-002
7.154729e+002,6.858878e-002
7.174014e+002,1.032926e-001
7.193299e+002,1.171649e-001
7.212584e+002,8.721182e-002
7.231869e+002,5.785548e-002
7.251154e+002,4.743692e-002
7.270439e+002,5.173671e-002
7.289724e+002,6.794235e-002
7.309009e+002,6.552584e-002
7.328294e+002,3.784949e-002
7.347579e+002,1.923728e-002
7.366864e+002,1.264052e-002
7.386149e+002,9.941718e-003
7.405434e+002,8.306002e-003
7.424719e+002,7.256567e-003
7.444004e+002,6.446060e-003
7.463289e+002,5.897809e-003
7.482574e+002,5.481407e-003
7.501859e+002,5.132494e-003
7.521144e+002,4.681576e-003
7.540428e+002,4.389385e-003
7.559714e+002,4.041299e-003
7.578999e+002,3.761349e-003
7.598284e+002,3.613096e-003
7.617568e+002,3.439449e-003
7.636854e+002,3.121728e-003
7.656139e+002,2.975879e-003
7.675424e+002,2.918525e-003
7.694709e+002,2.824435e-003
7.713994e+002,2.662430e-003
7.733279e+002,2.499150e-003
7.752563e+002,2.426509e-003
7.771849e+002,2.391532e-003
7.791134e+002,2.353664e-003
7.810419e+002,2.307286e-003
7.829703e+002,2.320407e-003
7.848989e+002,2.378654e-003
7.868274e+002,2.383355e-003
7.887559e+002,2.327710e-003
7.906843e+002,2.300359e-003
7.926129e+002,2.358459e-003
7.945414e+002,2.399957e-003
7.964698e+002,2.436854e-003
7.983983e+002,2.517125e-003
8.003268e+002,2.549378e-003
8.022554e+002,2.507905e-003
8.041838e+002,2.532331e-003
8.061123e+002,2.553495e-003
8.080408e+002,2.405802e-003
8.099694e+002,2.214843e-003
8.118978e+002,2.077579e-003
8.138263e+002,2.003917e-003
8.157548e+002,1.934705e-003
8.176833e+002,1.911465e-003
8.196118e+002,1.861092e-003
8.215403e+002,1.787296e-003
8.234689e+002,1.693219e-003
8.253973e+002,1.613019e-003
8.273258e+002,1.534134e-003
8.292543e+002,1.513740e-003
8.311829e+002,1.516717e-003
8.331113e+002,1.496712e-003
8.350398e+002,1.484714e-003
8.369683e+002,1.504991e-003
8.388969e+002,1.542659e-003
8.408253e+002,1.609776e-003
8.427538e+002,1.581034e-003
8.446823e+002,1.594935e-003
8.466108e+002,1.589505e-003
8.485393e+002,1.611024e-003
8.504678e+002,1.664385e-003
8.523963e+002,1.641246e-003
8.543248e+002,1.634099e-003
8.562533e+002,1.705617e-003
8.581818e+002,1.756022e-003
8.601103e+002,1.816193e-003
8.620388e+002,1.784140e-003
8.639673e+002,1.762141e-003
8.658958e+002,1.735810e-003
8.678243e+002,1.780247e-003
8.697528e+002,1.844397e-003
8.716813e+002,1.938289e-003
8.736098e+002,1.987159e-003
8.755383e+002,2.016651e-003
8.774668e+002,1.984309e-003
8.793953e+002,1.959017e-003
8.813238e+002,1.950525e-003
8.832523e+002,2.075523e-003
8.851808e+002,2.183663e-003
8.871093e+002,2.315408e-003
8.890378e+002,2.421536e-003
8.909663e+002,2.392495e-003
8.928948e+002,2.218852e-003
8.948232e+002,2.084520e-003
8.967518e+002,2.043916e-003
8.986803e+002,2.121242e-003
9.006088e+002,2.170570e-003
9.025372e+002,2.346557e-003
9.044658e+002,2.618454e-003
9.063943e+002,3.044216e-003
9.083228e+002,3.289782e-003
9.102512e+002,3.110398e-003
9.121797e+002,2.700958e-003
9.141083e+002,2.369281e-003
9.160367e+002,2.089793e-003
9.179653e+002,1.993472e-003
9.198937e+002,1.957800e-003
9.218223e+002,1.923859e-003
9.237507e+002,1.852080e-003
9.256793e+002,1.831189e-003
9.276077e+002,1.878684e-003
9.295363e+002,1.948522e-003
9.314647e+002,1.937658e-003
9.333932e+002,1.950286e-003
9.353217e+002,1.918880e-003
9.372502e+002,1.932573e-003
9.391787e+002,1.961704e-003
9.411072e+002,2.012100e-003
9.430358e+002,1.999889e-003
9.449642e+002,2.000747e-003
9.468928e+002,2.022214e-003
9.488212e+002,2.061272e-003
9.507498e+002,2.131699e-003
9.526782e+002,2.239723e-003
9.546068e+002,2.275730e-003
9.565352e+002,2.312321e-003
9.584637e+002,2.341531e-003
9.603922e+002,2.479786e-003
9.623207e+002,2.570124e-003
9.642492e+002,2.677057e-003
9.661777e+002,2.729800e-003
9.681062e+002,2.725799e-003
9.700347e+002,2.711419e-003
9.719632e+002,2.709653e-003
9.738917e+002,2.679557e-003
9.758202e+002,2.711218e-003
9.777487e+002,2.725527e-003
9.796772e+002,2.799569e-003
9.816057e+002,2.882268e-003
9.835342e+002,2.975194e-003
9.854627e+002,3.112784e-003
9.873912e+002,3.332695e-003
9.893197e+002,3.450556e-003
9.912482e+002,3.516076e-003
9.931767e+002,3.514873e-003
9.951052e+002,3.581002e-003
9.970337e+002,3.610590e-003
9.989622e+002,3.633726e-003
1.000891e+003,3.708215e-003
1.002819e+003,3.877737e-003
1.004748e+003,3.992070e-003
1.006676e+003,4.157154e-003
1.008605e+003,4.338972e-003
1.010533e+003,4.546700e-003
1.012462e+003,4.738469e-003
1.014390e+003,4.928906e-003
1.016319e+003,5.075207e-003
1.018247e+003,5.265465e-003
1.020176e+003,5.347479e-003
1.022104e+003,5.423592e-003
1.024033e+003,5.467936e-003
1.025961e+003,5.525837e-003
1.027890e+003,5.587244e-003
1.029818e+003,5.723098e-003
1.031747e+003,5.751941e-003
1.033675e+003,5.821802e-003
1.035604e+003,5.837072e-003
1.037532e+003,5.891509e-003
1.039461e+003,5.916122e-003
1.041389e+003,5.935457e-003
1.043318e+003,5.940985e-003
1.045246e+003,6.078428e-003
1.047175e+003,6.218737e-003
1.049103e+003,6.360175e-003
1.051032e+003,6.374812e-003
1.052960e+003,6.353512e-003
1.054889e+003,6.312922e-003
1.056817e+003,6.371258e-003
1.058746e+003,6.489400e-003
1.060674e+003,6.690253e-003
1.062603e+003,6.757816e-003
1.064531e+003,6.769247e-003
1.066460e+003,6.784761e-003
1.068388e+003,6.869581e-003
1.070317e+003,6.962689e-003
1.072245e+003,7.175863e-003
1.074174e+003,7.424334e-003
1.076102e+003,7.770497e-003
1.078031e+003,8.048655e-003
1.079959e+003,8.253731e-003
1.081888e+003,8.382194e-003
1.083816e+003,8.575380e-003
1.085745e+003,8.711578e-003
1.087673e+003,8.896552e-003
1.089602e+003,8.967157e-003
1.091530e+003,9.047993e-003
1.093459e+003,9.088354e-003
1.095387e+003,9.051180e-003
1.097316e+003,8.972051e-003
1.099244e+003,8.960050e-003
1.101173e+003,8.777456e-003
1.103101e+003,8.613609e-003
1.105030e+003,8.432435e-003
1.106958e+003,8.312780e-003
1.108887e+003,8.222790e-003
1.110815e+003,8.250561e-003
1.112744e+003,8.270159e-003
1.114672e+003,8.361185e-003
1.116601e+003,8.383062e-003
1.118529e+003,8.420572e-003
1.120458e+003,8.339325e-003
1.122386e+003,8.196691e-003
1.124315e+003,7.919567e-003
1.126243e+003,7.719275e-003
1.128172e+003,7.617611e-003
1.130100e+003,7.741325e-003
1.132029e+003,7.991981e-003
1.133957e+003,8.367494e-003
1.135885e+003,8.792788e-003
1.137814e+003,9.282321e-003
1.139743e+003,9.658433e-003
1.141671e+003,1.001170e-002
1.143600e+003,1.026529e-002
1.145528e+003,1.051535e-002
1.147457e+003,1.077611e-002
1.149385e+003,1.120031e-002
1.151314e+003,1.166760e-002
1.153242e+003,1.215775e-002
1.155171e+003,1.253420e-002
1.157099e+003,1.287440e-002
1.159028e+003,1.316769e-002
1.160956e+003,1.339979e-002
1.162885e+003,1.338275e-002
1.164813e+003,1.324429e-002
1.166742e+003,1.298380e-002
1.168670e+003,1.266154e-002
1.170599e+003,1.224992e-002
1.172527e+003,1.189118e-002
1.174456e+003,1.152782e-002
1.176384e+003,1.121658e-002
1.178313e+003,1.075673e-002
1.180241e+003,1.030553e-002
1.182170e+003,9.920683e-003
1.184098e+003,9.694427e-003
1.186027e+003,9.468243e-003
1.187955e+003,9.296659e-003
1.189884e+003,9.101324e-003
1.191812e+003,9.003926e-003
1.193740e+003,8.924395e-003
1.195669e+003,8.852296e-003
1.197598e+003,8.754667e-003
1.199526e+003,8.764148e-003
1.201455e+003,8.727573e-003
1.203383e+003,8.794807e-003
1.205312e+003,8.922171e-003
1.207240e+003,9.106316e-003
1.209168e+003,9.232417e-003
1.211097e+003,9.417035e-003
1.213026e+003,9.543579e-003
1.214954e+003,9.676132e-003
1.216883e+003,9.811085e-003
1.218811e+003,1.004047e-002
1.220740e+003,1.018421e-002
1.222668e+003,1.039719e-002
1.224596e+003,1.061768e-002
1.226525e+003,1.086891e-002
1.228453e+003,1.108323e-002
1.230382e+003,1.133292e-002
1.232311e+003,1.146427e-002
1.234239e+003,1.159726e-002
1.236167e+003,1.166292e-002
1.238096e+003,1.168346e-002
1.240025e+003,1.159744e-002
1.241953e+003,1.149822e-002
1.243882e+003,1.129491e-002
1.245810e+003,1.108479e-002
1.247739e+003,1.077147e-002
1.249667e+003,1.055635e-002
1.251595e+003,1.033192e-002
1.253524e+003,1.027440e-002
1.255453e+003,1.029678e-002
1.257381e+003,1.038319e-002
1.259310e+003,1.038439e-002
1.261238e+003,1.036100e-002
1.263167e+003,1.014622e-002
1.265095e+003,9.858973e-003
1.267023e+003,9.524629e-003
1.268952e+003,9.380180e-003
1.270880e+003,9.255327e-003
1.272809e+003,9.219702e-003
1.274738e+003,9.147659e-003
1.276666e+003,9.203978e-003
1.278594e+003,9.293731e-003
1.280523e+003,9.404887e-003
1.282451e+003,9.402197e-003
1.284380e+003,9.473879e-003
1.286308e+003,9.538382e-003
1.288237e+003,9.772293e-003
1.290166e+003,9.945977e-003
1.292094e+003,1.027049e-002
1.294022e+003,1.065668e-002
1.295951e+003,1.115498e-002
1.297879e+003,1.148468e-002
1.299808e+003,1.177499e-002
1.301736e+003,1.185438e-002
1.303665e+003,1.192071e-002
1.305594e+003,1.181161e-002
1.307522e+003,1.170577e-002
1.309450e+003,1.141059e-002
1.311379e+003,1.110880e-002
1.313307e+003,1.065509e-002
1.315236e+003,1.021590e-002
1.317164e+003,9.770717e-003
1.319093e+003,9.404879e-003
1.321021e+003,8.826774e-003
1.322950e+003,8.409545e-003
1.324878e+003,8.062534e-003
1.326807e+003,7.906314e-003
1.328735e+003,7.766780e-003
1.330664e+003,7.836688e-003
1.332592e+003,8.028783e-003
1.334521e+003,8.493941e-003
1.336449e+003,9.121936e-003
1.338378e+003,1.019344e-002
1.340306e+003,1.096580e-002
1.342235e+003,1.127028e-002
1.344163e+003,1.158988e-002
1.346092e+003,1.228703e-002
1.348021e+003,1.305809e-002
1.349949e+003,1.386170e-002
1.351877e+003,1.418713e-002
1.353806e+003,1.424789e-002
1.355734e+003,1.403944e-002
1.357663e+003,1.414909e-002
1.359591e+003,1.451738e-002
1.361520e+003,1.548610e-002
1.363448e+003,1.667325e-002
1.365377e+003,1.767922e-002
1.367305e+003,1.845356e-002
1.369234e+003,1.850934e-002
1.371162e+003,1.738989e-002
1.373091e+003,1.646529e-002
1.375019e+003,1.620989e-002
1.376948e+003,1.617293e-002
1.378876e+003,1.448029e-002
1.380805e+003,1.158876e-002
1.382733e+003,9.254832e-003
1.384662e+003,8.257840e-003
1.386590e+003,7.862888e-003
1.388519e+003,7.516991e-003
1.390447e+003,6.943051e-003
1.392376e+003,6.848421e-003
1.394304e+003,6.982312e-003
1.396233e+003,7.137373e-003
1.398161e+003,6.964285e-003
1.400090e+003,7.009339e-003
1.402018e+003,6.699920e-003
1.403947e+003,6.957009e-003
1.405875e+003,6.974194e-003
1.407804e+003,7.030476e-003
1.409732e+003,7.135250e-003
1.411661e+003,7.626727e-003
1.413589e+003,7.843491e-003
1.415518e+003,8.514814e-003
1.417446e+003,9.090718e-003
1.419375e+003,1.004034e-002
1.421303e+003,1.000169e-002
1.423232e+003,1.088241e-002
1.425160e+003,1.219229e-002
1.427089e+003,1.418748e-002
1.429017e+003,1.685033e-002
1.430946e+003,2.080077e-002
1.432874e+003,2.387362e-002
1.434803e+003,2.692709e-002
1.436731e+003,3.028810e-002
1.438660e+003,3.278752e-002
1.440588e+003,3.399361e-002
1.442517e+003,3.607133e-002
1.444445e+003,3.761663e-002
1.446374e+003,4.015129e-002
1.448302e+003,4.379653e-002
1.450231e+003,4.920521e-002
1.452159e+003,5.752090e-002
1.454088e+003,6.856903e-002
1.456016e+003,8.012577e-002
1.457945e+003,1.074425e-001
1.459873e+003,1.559259e-001
1.461802e+003,2.040172e-001
1.463730e+003,2.007825e-001
1.465659e+003,1.530517e-001
1.467587e+003,1.386167e-001
1.469516e+003,1.358516e-001
1.471444e+003,1.543977e-001
1.473373e+003,1.373391e-001
1.475301e+003,7.471491e-002
1.477230e+003,3.340832e-002
1.479158e+003,2.144167e-002
1.481087e+003,1.592953e-002
1.483015e+003,1.327755e-002
1.484944e+003,1.120951e-002
1.486872e+003,1.089107e-002
1.488801e+003,9.878900e-003
1.490729e+003,9.512931e-003
1.492658e+003,7.889710e-003
1.494586e+003,7.825907e-003
1.496515e+003,7.459883e-003
1.498443e+003,7.454045e-003
1.500372e+003,6.554376e-003
1.502300e+003,6.455645e-003
1.504229e+003,6.030247e-003
1.506157e+003,7.767107e-003
1.508086e+003,7.266071e-003
1.510014e+003,6.374825e-003
1.511943e+003,5.560007e-003
1.513871e+003,5.697269e-003
1.515800e+003,5.902849e-003
1.517728e+003,6.331574e-003
1.519657e+003,5.830005e-003
1.521585e+003,6.673478e-003
1.523514e+003,5.796988e-003
1.525442e+003,5.728893e-003
1.527371e+003,5.335454e-003
1.529299e+003,5.278274e-003
1.531228e+003,5.015414e-003
1.533156e+003,5.794879e-003
1.535085e+003,5.322773e-003
1.537013e+003,5.235966e-003
1.538942e+003,6.069150e-003
1.540870e+003,7.487025e-003
1.542799e+003,5.852349e-003
1.544727e+003,5.706653e-003
1.546656e+003,4.855163e-003
1.548584e+003,4.930008e-003
1.550513e+003,4.972819e-003
1.552441e+003,4.976507e-003
1.554370e+003,4.965831e-003
1.556298e+003,5.293339e-003
1.558227e+003,6.061725e-003
1.560155e+003,5.825974e-003
1.562084e+003,4.333615e-003
1.564012e+003,4.220892e-003
1.565941e+003,4.093498e-003
1.567869e+003,4.280340e-003
1.569798e+003,4.447229e-003
1.571726e+003,4.128847e-003
1.573655e+003,3.849912e-003
1.575583e+003,4.575435e-003
1.577512e+003,4.387494e-003
1.579440e+003,3.910035e-003
1.581369e+003,3.699735e-003
1.583297e+003,3.781617e-003
1.585226e+003,3.712114e-003
1.587154e+003,3.793150e-003
1.589083e+003,3.753129e-003
1.591011e+003,3.836446e-003
1.592940e+003,3.807217e-003
1.594868e+003,3.916096e-003
1.596797e+003,3.758505e-003
1.598725e+003,3.707655e-003
1.600654e+003,3.604893e-003
1.602582e+003,3.706932e-003
1.604511e+003,3.646791e-003
1.606439e+003,3.783859e-003
1.608368e+003,3.814526e-003
1.610296e+003,3.869079e-003
1.612225e+003,3.734585e-003
1.614153e+003,3.828183e-003
1.616082e+003,4.348177e-003
1.618010e+003,4.514270e-003
1.619939e+003,4.010234e-003
1.621867e+003,4.221722e-003
1.623796e+003,4.493538e-003
1.625724e+003,4.461803e-003
1.627653e+003,4.594278e-003
1.629581e+003,4.635312e-003
1.631510e+003,4.502226e-003
1.633438e+003,4.729301e-003
1.635367e+003,5.606506e-003
1.637295e+003,5.922001e-003
1.639224e+003,5.381543e-003
1.641152e+003,5.305853e-003
1.643081e+003,5.340859e-003
1.645009e+003,5.861066e-003
1.646938e+003,6.784264e-003
1.648866e+003,6.047454e-003
1.650795e+003,5.476367e-003
1.652723e+003,6.911363e-003
1.654652e+003,6.448455e-003
1.656580e+003,5.384631e-003
1.658509e+003,5.024925e-003
1.660437e+003,5.073693e-003
1.662366e+003,5.069803e-003
1.664294e+003,4.873656e-003
1.666223e+003,4.533496e-003
1.668151e+003,4.775561e-003
1.670080e+003,5.030859e-003
1.672008e+003,4.464891e-003
1.673937e+003,4.197475e-003
1.675865e+003,4.331164e-003
1.677794e+003,3.849987e-003
1.679722e+003,4.026737e-003
1.681651e+003,4.034232e-003
1.683579e+003,4.497439e-003
1.685508e+003,4.319720e-003
1.687436e+003,3.845789e-003
1.689365e+003,3.565215e-003
1.691293e+003,3.442172e-003
1.693222e+003,3.227025e-003
1.695150e+003,4.048351e-003
1.697079e+003,4.495610e-003
1.699007e+003,4.328251e-003
1.700936e+003,4.302975e-003
1.702864e+003,4.051268e-003
1.704793e+003,4.133426e-003
1.706721e+003,4.366204e-003
1.708650e+003,4.089165e-003
1.710578e+003,4.220378e-003
1.712507e+003,4.530873e-003
1.714435e+003,5.256392e-003
1.716364e+003,5.719699e-003
1.718292e+003,5.987983e-003
1.720221e+003,5.505733e-003
1.722149e+003,5.521767e-003
1.724078e+003,5.931724e-003
1.726006e+003,6.394684e-003
1.727935e+003,6.971706e-003
1.729863e+003,8.253802e-003
1.731792e+003,9.284683e-003
1.733720e+003,1.145126e-002
1.735649e+003,1.317013e-002
1.737577e+003,1.413789e-002
1.739506e+003,1.660832e-002
1.741434e+003,1.915193e-002
1.743363e+003,2.097321e-002
1.745291e+003,2.225396e-002
1.747220e+003,2.268577e-002
1.749148e+003,2.180018e-002
1.751077e+003,1.914011e-002
1.753005e+003,1.562077e-002
1.754934e+003,1.272477e-002
1.756862e+003,9.772457e-003
1.758791e+003,7.304467e-003
1.760719e+003,5.802106e-003
1.762648e+003,4.339576e-003
1.764576e+003,3.142636e-003
1.766505e+003,2.590325e-003
1.768433e+003,2.536144e-003
1.770362e+003,2.264880e-003
1.772290e+003,2.263535e-003
1.774219e+003,1.749218e-003
1.776147e+003,1.325149e-003
1.778076e+003,1.012038e-003
1.780004e+003,1.083061e-003
1.781933e+003,9.129234e-004
1.783861e+003,9.331033e-004
1.785790e+003,8.046441e-004
1.787718e+003,6.602779e-004
1.789646e+003,6.511733e-004
1.791575e+003,1.074605e-003
1.793504e+003,8.293688e-004
1.795432e+003,5.708784e-004
1.797361e+003,2.745390e-004
1.799289e+003,3.381781e-004
1.801218e+003,3.953576e-004
1.803146e+003,2.970211e-004
1.805074e+003,1.322478e-005
1.807003e+003,-2.514943e-005
1.808932e+003,-1.894236e-004
1.810860e+003,-4.429743e-005
1.812789e+003,-2.472028e-004
1.814717e+003,-4.881509e-004
1.816646e+003,-6.123632e-004
1.818574e+003,-2.910942e-004
1.820502e+003,-2.519637e-004
1.822431e+003,-1.879111e-004
1.824360e+003,-1.537390e-004
1.826288e+003,-1.001433e-004
1.828217e+003,-2.190545e-004
1.830145e+003,-1.685806e-004
1.832073e+003,-5.768910e-004
1.834002e+003,-6.764978e-004
1.835931e+003,-8.268431e-004
1.837859e+003,-8.381493e-004
1.839788e+003,-9.214282e-004
1.841716e+003,-7.744990e-004
1.843645e+003,-6.945431e-004
1.845573e+003,-5.094707e-004
1.847501e+003,-8.066222e-004
1.849430e+003,-8.574724e-004
1.851359e+003,-9.316392e-004
1.853287e+003,-8.306801e-004
1.855216e+003,-1.077101e-003
1.857144e+003,-1.071937e-003
1.859073e+003,-1.115557e-003
1.861001e+003,-8.906201e-004
1.862929e+003,-9.996817e-004
1.864858e+003,-9.657517e-004
1.866787e+003,-1.130629e-003
1.868715e+003,-7.151514e-004
1.870644e+003,-9.115860e-004
1.872572e+003,-1.078341e-003
1.874500e+003,-1.352698e-003
1.876429e+003,-1.267422e-003
1.878357e+003,-1.207549e-003
1.880286e+003,-9.824559e-004
1.882215e+003,-1.025829e-003
1.884143e+003,-6.188303e-004
1.886072e+003,-7.096305e-004
1.888000e+003,-5.101822e-004
1.889928e+003,-1.740679e-004
1.891857e+003,1.383871e-004
1.893785e+003,4.086271e-005
1.895714e+003,2.114363e-004
1.897643e+003,-8.082762e-005
1.899571e+003,-1.719892e-004
1.901500e+003,-1.693405e-004
1.903428e+003,-1.666993e-004
1.905356e+003,-1.640692e-004
1.907285e+003,-1.614541e-004
1.909213e+003,-1.588389e-004
1.911142e+003,-1.562387e-004
1.913071e+003,-1.536496e-004
1.914999e+003,-1.510642e-004
1.916927e+003,-1.484901e-004
1.918856e+003,-1.459233e-004
1.920784e+003,-1.433678e-004
1.922713e+003,-1.408234e-004
1.924641e+003,-1.382865e-004
1.926570e+003,-1.357533e-004
1.928499e+003,-1.332387e-004
1.930427e+003,-1.307279e-004
1.932355e+003,-1.282245e-004
1.934284e+003,-1.257323e-004
1.936212e+003,-1.232550e-004
1.938141e+003,-1.207776e-004
1.940070e+003,-1.183115e-004
1.941998e+003,-1.158603e-004
1.943927e+003,-1.134165e-004
1.945855e+003,-1.109801e-004
1.947783e+003,-1.085512e-004
1.949712e+003,-1.061298e-004
1.951640e+003,-1.037270e-004
1.953569e+003,-1.013279e-004
1.955498e+003,-9.893253e-005
1.957426e+003,-9.655207e-005
1.959354e+003,-9.418651e-005
1.961283e+003,-9.181723e-005
1.963211e+003,-8.946657e-005
1.965140e+003,-8.712336e-005
1.967068e+003,-8.478761e-005
1.968997e+003,-8.246303e-005
1.970926e+003,-8.014590e-005
1.972854e+003,-7.783249e-005
1.974782e+003,-7.554144e-005
1.976711e+003,-7.325038e-005
1.978639e+003,-7.096678e-005
1.980568e+003,-6.869808e-005
1.982496e+003,-6.644428e-005
1.984425e+003,-6.418303e-005
1.986354e+003,-6.194040e-005
1.988282e+003,-5.970895e-005
1.990210e+003,-5.748495e-005
1.992139e+003,-5.526468e-005
1.994067e+003,-5.306304e-005
1.995996e+003,-5.086139e-005
1.997924e+003,-4.867837e-005
1.999853e+003,-4.649535e-005
2.001781e+003,-4.432723e-005
2.003710e+003,-4.216656e-005
2.005638e+003,-4.002079e-005
2.007567e+003,-3.787875e-005
2.009495e+003,-3.574416e-005
2.011424e+003,-3.362074e-005
2.013352e+003,-3.150851e-005
2.015281e+003,-2.939627e-005
2.017209e+003,-2.730638e-005
2.019138e+003,-2.522022e-005
2.021066e+003,-2.313778e-005
2.022995e+003,-2.107024e-005
2.024923e+003,-1.901388e-005
2.026852e+003,-1.696497e-005
2.028781e+003,-1.491979e-005
2.030709e+003,-1.288950e-005
2.032637e+003,-1.087040e-005
2.034566e+003,-8.858740e-006
2.036494e+003,-6.850809e-006
2.038423e+003,-4.857779e-006
2.040351e+003,-2.875924e-006
2.042280e+003,-8.940697e-007
2.044208e+003,1.069158e-006
2.046137e+003,3.028661e-006
2.048065e+003,4.980713e-006
2.049994e+003,6.917864e-006
2.051922e+003,8.843839e-006
2.053851e+003,1.076981e-005
2.055779e+003,1.268089e-005
2.057708e+003,1.458451e-005
2.059636e+003,1.647323e-005
2.061565e+003,1.835823e-005
2.063493e+003,2.023578e-005
2.065422e+003,2.209842e-005
2.067350e+003,2.395362e-005
2.069279e+003,2.580509e-005
2.071207e+003,2.764165e-005
2.073136e+003,2.947822e-005
2.075064e+003,3.129244e-005
2.076993e+003,3.309920e-005
2.078921e+003,3.490224e-005
2.080850e+003,3.669411e-005
2.082778e+003,3.847480e-005
2.084707e+003,4.025549e-005
2.086635e+003,4.202127e-005
2.088564e+003,4.377216e-005
2.090492e+003,4.551932e-005
2.092421e+003,4.725158e-005
2.094349e+003,4.898012e-005
2.096278e+003,5.069748e-005
2.098206e+003,5.241856e-005
2.100135e+003,5.411357e-005
2.102063e+003,5.580485e-005
2.103992e+003,5.748123e-005
2.105920e+003,5.915388e-005
2.107849e+003,6.081536e-005
2.109777e+003,6.247312e-005
2.111706e+003,6.411597e-005
2.113634e+003,6.575882e-005
2.115563e+003,6.737933e-005
2.117491e+003,6.899983e-005
2.119420e+003,7.060543e-005
2.121348e+003,7.220358e-005
2.123277e+003,7.379428e-005
2.125205e+003,7.537380e-005
2.127134e+003,7.694215e-005
2.129062e+003,7.851049e-005
2.130991e+003,8.006394e-005
2.132919e+003,8.160621e-005
2.134848e+003,8.314103e-005
2.136776e+003,8.466840e-005
2.138705e+003,8.617714e-005
2.140633e+003,8.768961e-005
2.142562e+003,8.918718e-005
2.144490e+003,9.067729e-005
2.146419e+003,9.215623e-005
2.148347e+003,9.362772e-005
2.150276e+003,9.508431e-005
2.152204e+003,9.654090e-005
2.154133e+003,9.798259e-005
2.156061e+003,9.942055e-005
2.157990e+003,1.008436e-004
2.159918e+003,1.022555e-004
2.161847e+003,1.036599e-004
2.163775e+003,1.050569e-004
2.165704e+003,1.064390e-004
2.167632e+003,1.078211e-004
2.169561e+003,1.091845e-004
2.171489e+003,1.105480e-004
2.173418e+003,1.119003e-004
2.175346e+003,1.132414e-004
2.177275e+003,1.145750e-004
2.179203e+003,1.159012e-004
2.181132e+003,1.172125e-004
2.183060e+003,1.185164e-004
2.184989e+003,1.198053e-004
2.186917e+003,1.211017e-004
2.188846e+003,1.223721e-004
2.190774e+003,1.236387e-004
2.192703e+003,1.248978e-004
2.194631e+003,1.261458e-004
2.196560e+003,1.273863e-004
2.198488e+003,1.286194e-004
2.200417e+003,1.298413e-004
2.202345e+003,1.310557e-004
2.204274e+003,1.322627e-004
2.206202e+003,1.334548e-004
2.208131e+003,1.346357e-004
2.210059e+003,1.358092e-004
2.211988e+003,1.369789e-004
2.213916e+003,1.381338e-004
2.215845e+003,1.392812e-004
2.217773e+003,1.404211e-004
2.219702e+003,1.415536e-004
2.221630e+003,1.426749e-004
2.223559e+003,1.437850e-004
2.225487e+003,1.448840e-004
2.227416e+003,1.459792e-004
2.229344e+003,1.470596e-004
2.231273e+003,1.481436e-004
2.233201e+003,1.492053e-004
2.235130e+003,1.502596e-004
2.237058e+003,1.513064e-004
2.238987e+003,1.523457e-004
2.240915e+003,1.533702e-004
2.242844e+003,1.543909e-004
2.244772e+003,1.554042e-004
2.246701e+003,1.564026e-004
2.248629e+003,1.573972e-004
2.250558e+003,1.583807e-004
2.252486e+003,1.593493e-004
2.254415e+003,1.603179e-004
2.256343e+003,1.612678e-004
2.258272e+003,1.622103e-004
2.260200e+003,1.631416e-004
2.262129e+003,1.640804e-004
2.264057e+003,1.650006e-004
2.265986e+003,1.659095e-004
2.267914e+003,1.667999e-004
2.269843e+003,1.676939e-004
2.271771e+003,1.685694e-004
2.273700e+003,1.694448e-004
2.275628e+003,1.703165e-004
2.277557e+003,1.711696e-004
2.279485e+003,1.720153e-004
2.281414e+003,1.728460e-004
2.283342e+003,1.736656e-004
2.285271e+003,1.744851e-004
2.287199e+003,1.752898e-004
2.289128e+003,1.761019e-004
2.291056e+003,1.768842e-004
2.292985e+003,1.776628e-004
2.294913e+003,1.784340e-004
2.296842e+003,1.791939e-004
2.298770e+003,1.799464e-004
2.300699e+003,1.806915e-004
2.302627e+003,1.814291e-004
2.304556e+003,1.821592e-004
2.306484e+003,1.828671e-004
2.308413e+003,1.835711e-004
2.310341e+003,1.842678e-004
2.312270e+003,1.849569e-004
2.314198e+003,1.856349e-004
2.316127e+003,1.863018e-004
2.318055e+003,1.869611e-004
2.319984e+003,1.876205e-004
2.321912e+003,1.882575e-004
2.323841e+003,1.888983e-004
2.325769e+003,1.895167e-004
2.327698e+003,1.901276e-004
2.329626e+003,1.907274e-004
2.331555e+003,1.913235e-004
2.333483e+003,1.919195e-004
2.335412e+003,1.924932e-004
2.337340e+003,1.930669e-004
2.339269e+003,1.936257e-004
2.341197e+003,1.941696e-004
2.343126e+003,1.947060e-004
2.345054e+003,1.952425e-004
2.346983e+003,1.957715e-004
2.348911e+003,1.962855e-004
2.350840e+003,1.967847e-004
2.352768e+003,1.972765e-004
2.354697e+003,1.977682e-004
2.356625e+003,1.982376e-004
2.358554e+003,1.986995e-004
2.360482e+003,1.991689e-004
2.362411e+003,1.996085e-004
2.364339e+003,2.000555e-004
2.366268e+003,2.004877e-004
2.368196e+003,2.009049e-004
2.370125e+003,2.013147e-004
2.372053e+003,2.017245e-004
2.373982e+003,2.021119e-004
2.375910e+003,2.024993e-004
2.377839e+003,2.028719e-004
2.379767e+003,2.032444e-004
2.381696e+003,2.035946e-004
2.383624e+003,2.039522e-004
2.385553e+003,2.042800e-004
2.387481e+003,2.046153e-004
2.389410e+003,2.049282e-004
2.391338e+003,2.052560e-004
2.393267e+003,2.055541e-004
2.395195e+003,2.058372e-004
2.397124e+003,2.061203e-004
2.399052e+003,2.063960e-004
2.400981e+003,1.955926e-004
2.402909e+003,1.556352e-004
2.404838e+003,2.540648e-004
2.406766e+003,5.588979e-004
2.408695e+003,7.029548e-004
2.410623e+003,5.642697e-004
2.412552e+003,6.288886e-004
2.414480e+003,7.068068e-004
2.416409e+003,8.316636e-004
2.418337e+003,8.789897e-004
2.420266e+003,8.439198e-004
2.422194e+003,7.570907e-004
2.424123e+003,7.345751e-004
2.426051e+003,5.929098e-004
2.427979e+003,5.079806e-004
2.429908e+003,4.857257e-004
2.431837e+003,5.846024e-004
2.433765e+003,5.839244e-004
2.435694e+003,5.667135e-004
2.437622e+003,6.247982e-004
2.439551e+003,6.698072e-004
2.441479e+003,7.158220e-004
2.443407e+003,8.729398e-004
2.445336e+003,8.201376e-004
2.447265e+003,7.266030e-004
2.449193e+003,6.855205e-004
2.451122e+003,8.378103e-004
2.453050e+003,8.120686e-004
2.454979e+003,9.422675e-004
2.456907e+003,1.036860e-003
2.458836e+003,1.004763e-003
2.460764e+003,9.160042e-004
2.462693e+003,7.933825e-004
2.464621e+003,6.164238e-004
2.466550e+003,6.426200e-004
2.468478e+003,7.167161e-004
2.470406e+003,9.086132e-004
2.472335e+003,9.904653e-004
2.474264e+003,1.029745e-003
2.476192e+003,1.214765e-003
2.478121e+003,1.298718e-003
2.480049e+003,1.193650e-003
2.481978e+003,1.236171e-003
2.483906e+003,1.229502e-003
2.485835e+003,1.288697e-003
2.487763e+003,1.366071e-003
2.489692e+003,1.317538e-003
2.491620e+003,1.226105e-003
2.493549e+003,1.222081e-003
2.495477e+003,1.264215e-003
2.497406e+003,1.440562e-003
2.499334e+003,1.480438e-003
2.501263e+003,1.478970e-003
2.503191e+003,1.648754e-003
2.505120e+003,1.895599e-003
2.507048e+003,1.856081e-003
2.508977e+003,1.827933e-003
2.510905e+003,1.877137e-003
2.512833e+003,1.943201e-003
2.514762e+003,1.904182e-003
2.516691e+003,1.908652e-003
2.518619e+003,2.132311e-003
2.520548e+003,2.549797e-003
2.522476e+003,2.807304e-003
2.524405e+003,2.740718e-003
2.526333e+003,2.570838e-003
2.528261e+003,2.726622e-003
2.530190e+003,2.895169e-003
2.532119e+003,2.833165e-003
2.534047e+003,2.752952e-003
2.535976e+003,2.773091e-003
2.537904e+003,2.833717e-003
2.539833e+003,2.927646e-003
2.541761e+003,3.176004e-003
2.543689e+003,3.407806e-003
2.545618e+003,3.645480e-003
2.547547e+003,3.842361e-003
2.549475e+003,3.870174e-003
2.551404e+003,3.813244e-003
2.553332e+003,3.928579e-003
2.555260e+003,4.063360e-003
2.557189e+003,4.129387e-003
2.559117e+003,4.335269e-003
2.561046e+003,4.540563e-003
2.562975e+003,4.703842e-003
2.564903e+003,4.819132e-003
2.566832e+003,4.914872e-003
2.568760e+003,5.031869e-003
2.570688e+003,5.311966e-003
2.572617e+003,5.455598e-003
2.574546e+003,5.379923e-003
2.576474e+003,5.530760e-003
2.578403e+003,5.866043e-003
2.580331e+003,6.126642e-003
2.582260e+003,6.419353e-003
2.584188e+003,6.530918e-003
2.586116e+003,6.716214e-003
2.588045e+003,6.919794e-003
2.589974e+003,7.145666e-003
2.591902e+003,7.305577e-003
2.593831e+003,7.546768e-003
2.595759e+003,7.791944e-003
2.597688e+003,7.971019e-003
2.599616e+003,8.108549e-003
2.601544e+003,8.339889e-003
2.603473e+003,8.617938e-003
2.605402e+003,8.830652e-003
2.607330e+003,9.183809e-003
2.609259e+003,9.521328e-003
2.611187e+003,9.617552e-003
2.613115e+003,9.931177e-003
2.615044e+003,1.047387e-002
2.616972e+003,1.098592e-002
2.618901e+003,1.126327e-002
2.620830e+003,1.147739e-002
2.622758e+003,1.176146e-002
2.624687e+003,1.222399e-002
2.626615e+003,1.267127e-002
2.628543e+003,1.317373e-002
2.630472e+003,1.364869e-002
2.632400e+003,1.402331e-002
2.634329e+003,1.422778e-002
2.636258e+003,1.426550e-002
2.638186e+003,1.419491e-002
2.640115e+003,1.412884e-002
2.642043e+003,1.409454e-002
2.643971e+003,1.413538e-002
2.645900e+003,1.422641e-002
2.647828e+003,1.429119e-002
2.649757e+003,1.436581e-002
2.651686e+003,1.452506e-002
2.653614e+003,1.471080e-002
2.655542e+003,1.481761e-002
2.657471e+003,1.484207e-002
2.659399e+003,1.484025e-002
2.661328e+003,1.477774e-002
2.663256e+003,1.462498e-002
2.665185e+003,1.443480e-002
2.667114e+003,1.426330e-002
2.669042e+003,1.405898e-002
2.670970e+003,1.389392e-002
2.672899e+003,1.371817e-002
2.674827e+003,1.357716e-002
2.676756e+003,1.342060e-002
2.678685e+003,1.323172e-002
2.680613e+003,1.306571e-002
2.682542e+003,1.295359e-002
2.684470e+003,1.283835e-002
2.686398e+003,1.266682e-002
2.688327e+003,1.246371e-002
2.690255e+003,1.231193e-002
2.692184e+003,1.219695e-002
2.694113e+003,1.214928e-002
2.696041e+003,1.212517e-002
2.697969e+003,1.212177e-002
2.699898e+003,1.217327e-002
2.701826e+003,1.225457e-002
2.703755e+003,1.245201e-002
2.705683e+003,1.261316e-002
2.707612e+003,1.275035e-002
2.709541e+003,1.297736e-002
2.711469e+003,1.314092e-002
2.713397e+003,1.328854e-002
2.715326e+003,1.344393e-002
2.717254e+003,1.359051e-002
2.719183e+003,1.374362e-002
2.721111e+003,1.396511e-002
2.723040e+003,1.418859e-002
2.724969e+003,1.449294e-002
2.726897e+003,1.481035e-002
2.728825e+003,1.511852e-002
2.730754e+003,1.534513e-002
2.732682e+003,1.558078e-002
2.734611e+003,1.575874e-002
2.736539e+003,1.587622e-002
2.738468e+003,1.608174e-002
2.740396e+003,1.625142e-002
2.742325e+003,1.618427e-002
2.744253e+003,1.604402e-002
2.746182e+003,1.599576e-002
2.748110e+003,1.602273e-002
2.750039e+003,1.615490e-002
2.751967e+003,1.631108e-002
2.753896e+003,1.652880e-002
2.755824e+003,1.687901e-002
2.757753e+003,1.730351e-002
2.759681e+003,1.770571e-002
2.761610e+003,1.807091e-002
2.763538e+003,1.849619e-002
2.765467e+003,1.893336e-002
2.767395e+003,1.942585e-002
2.769324e+003,2.001958e-002
2.771252e+003,2.065346e-002
2.773181e+003,2.132387e-002
2.775109e+003,2.212314e-002
2.777038e+003,2.303232e-002
2.778966e+003,2.402278e-002
2.780895e+003,2.514236e-002
2.782823e+003,2.634293e-002
2.784752e+003,2.761208e-002
2.786680e+003,2.901757e-002
2.788609e+003,3.054143e-002
2.790537e+003,3.216900e-002
2.792466e+003,3.397278e-002
2.794394e+003,3.578807e-002
2.796323e+003,3.759202e-002
2.798251e+003,3.953303e-002
2.800180e+003,4.156896e-002
2.802108e+003,4.366944e-002
2.804037e+003,4.596756e-002
2.805965e+003,4.841997e-002
2.807894e+003,5.113519e-002
2.809822e+003,5.424102e-002
2.811751e+003,5.776227e-002
2.813679e+003,6.168310e-002
2.815608e+003,6.624635e-002
2.817536e+003,7.159542e-002
2.819465e+003,7.797378e-002
2.821393e+003,8.559383e-002
2.823322e+003,9.484559e-002
2.825250e+003,1.062777e-001
2.827179e+003,1.208016e-001
2.829107e+003,1.394579e-001
2.831036e+003,1.642529e-001
2.832964e+003,1.982095e-001
2.834893e+003,2.460999e-001
2.836821e+003,3.145733e-001
2.838750e+003,4.146744e-001
2.840678e+003,5.648017e-001
2.842607e+003,7.887497e-001
2.844535e+003,1.099658e+000
2.846464e+003,1.418787e+000
2.848392e+003,1.459556e+000
2.850321e+003,1.161906e+000
2.852249e+003,8.461414e-001
2.854178e+003,6.318638e-001
2.856106e+003,4.881167e-001
2.858035e+003,3.855961e-001
2.859963e+003,3.116545e-001
2.861892e+003,2.595349e-001
2.863820e+003,2.243468e-001
2.865749e+003,2.025166e-001
2.867677e+003,1.912436e-001
2.869606e+003,1.874845e-001
2.871534e+003,1.884042e-001
2.873463e+003,1.934904e-001
2.875391e+003,2.040918e-001
2.877320e+003,2.212924e-001
2.879248e+003,2.449512e-001
2.881177e+003,2.737823e-001
2.883105e+003,3.064384e-001
2.885034e+003,3.422059e-001
2.886962e+003,3.805397e-001
2.888891e+003,4.205324e-001
2.890819e+003,4.610790e-001
2.892748e+003,5.014579e-001
2.894676e+003,5.414446e-001
2.896605e+003,5.818152e-001
2.898533e+003,6.241977e-001
2.900462e+003,6.716173e-001
2.902390e+003,7.290730e-001
2.904319e+003,8.040235e-001
2.906247e+003,9.062397e-001
2.908176e+003,1.046812e+000
2.910104e+003,1.232762e+000
2.912033e+003,1.447007e+000
2.913961e+003,1.611152e+000
2.915890e+003,1.611655e+000
2.917818e+003,1.443927e+000
2.919747e+003,1.218614e+000
2.921675e+003,1.012852e+000
2.923604e+003,8.452583e-001
2.925532e+003,7.126058e-001
2.927461e+003,6.055490e-001
2.929389e+003,5.158496e-001
2.931318e+003,4.390358e-001
2.933246e+003,3.729551e-001
2.935175e+003,3.161584e-001
2.937103e+003,2.676949e-001
2.939032e+003,2.266939e-001
2.940960e+003,1.923872e-001
2.942889e+003,1.644071e-001
2.944817e+003,1.424597e-001
2.946746e+003,1.262421e-001
2.948674e+003,1.151987e-001
2.950603e+003,1.077747e-001
2.952531e+003,1.021715e-001
2.954460e+003,9.695359e-002
2.956388e+003,9.130985e-002
2.958317e+003,8.496913e-002
2.960245e+003,7.808433e-002
2.962174e+003,7.091621e-002
2.964102e+003,6.368508e-002
2.966031e+003,5.673961e-002
2.967959e+003,5.052802e-002
2.969888e+003,4.509904e-002
2.971816e+003,4.050346e-002
2.973745e+003,3.654353e-002
2.975673e+003,3.323698e-002
2.977602e+003,3.057795e-002
2.979530e+003,2.830638e-002
2.981459e+003,2.631357e-002
2.983387e+003,2.460121e-002
2.985316e+003,2.316988e-002
2.987244e+003,2.199819e-002
2.989173e+003,2.096754e-002
2.991101e+003,2.010299e-002
2.993030e+003,1.949126e-002
2.994958e+003,1.904594e-002
2.996887e+003,1.862219e-002
2.998815e+003,1.846990e-002
3.000744e+003,1.832506e-002
3.002672e+003,1.807614e-002
3.004601e+003,1.770875e-002
3.006529e+003,1.717318e-002
3.008458e+003,1.663723e-002
3.010386e+003,1.608973e-002
3.012315e+003,1.545516e-002
3.014243e+003,1.478718e-002
3.016172e+003,1.411524e-002
3.018100e+003,1.356111e-002
3.020029e+003,1.311068e-002
3.021957e+003,1.268111e-002
3.023886e+003,1.228086e-002
3.025814e+003,1.193999e-002
3.027743e+003,1.161300e-002
3.029671e+003,1.137579e-002
3.031600e+003,1.114272e-002
3.033528e+003,1.082459e-002
3.035457e+003,1.040388e-002
3.037385e+003,9.913318e-003
3.039314e+003,9.504288e-003
3.041242e+003,9.230793e-003
3.043171e+003,8.903690e-003
3.045099e+003,8.556895e-003
3.047028e+003,8.307211e-003
3.048956e+003,8.118302e-003
3.050885e+003,7.942915e-003
3.052813e+003,7.808588e-003
3.054742e+003,7.600173e-003
3.056670e+003,7.338278e-003
3.058599e+003,7.164076e-003
3.060527e+003,7.097468e-003
3.062456e+003,6.917931e-003
3.064384e+003,6.725237e-003
3.066313e+003,6.574176e-003
3.068241e+003,6.459594e-003
3.070170e+003,6.363593e-003
3.072098e+003,6.303191e-003
3.074027e+003,6.156079e-003
3.075955e+003,6.005958e-003
3.077884e+003,5.930275e-003
3.079812e+003,5.858511e-003
3.081741e+003,5.698644e-003
3.083669e+003,5.482875e-003
3.085598e+003,5.201258e-003
3.087526e+003,5.001582e-003
3.089455e+003,4.806936e-003
3.091383e+003,4.631661e-003
3.093312e+003,4.493855e-003
3.095240e+003,4.218042e-003
3.097169e+003,3.832109e-003
3.099097e+003,3.569923e-003
3.101026e+003,3.398716e-003
3.102954e+003,3.174409e-003
3.104883e+003,2.902739e-003
3.106811e+003,2.715491e-003
3.108740e+003,2.554730e-003
3.110668e+003,2.505727e-003
3.112597e+003,2.465017e-003
3.114525e+003,2.433173e-003
3.116454e+003,2.305001e-003
3.118382e+003,2.266072e-003
3.120311e+003,2.195433e-003
3.122239e+003,2.058625e-003
3.124168e+003,2.049938e-003
3.126096e+003,2.126969e-003
3.128025e+003,2.081148e-003
3.129953e+003,1.907632e-003
3.131882e+003,1.875117e-003
3.133810e+003,1.878664e-003
3.135739e+003,1.762666e-003
3.137667e+003,1.741305e-003
3.139596e+003,1.806661e-003
3.141524e+003,1.791067e-003
3.143453e+003,1.750343e-003
3.145381e+003,1.715340e-003
3.147310e+003,1.717441e-003
3.149238e+003,1.740463e-003
3.151167e+003,1.859933e-003
3.153095e+003,1.912810e-003
3.155024e+003,1.762159e-003
3.156952e+003,1.731262e-003
3.158881e+003,1.653656e-003
3.160809e+003,1.615934e-003
3.162738e+003,1.655377e-003
3.164666e+003,1.740381e-003
3.166594e+003,1.779169e-003
3.168523e+003,1.795389e-003
3.170452e+003,1.763880e-003
3.172380e+003,1.841411e-003
3.174309e+003,1.746848e-003
3.176237e+003,1.614124e-003
3.178166e+003,1.676172e-003
3.180094e+003,1.764961e-003
3.182022e+003,1.772426e-003
3.183951e+003,1.747496e-003
3.185880e+003,1.740649e-003
3.187808e+003,1.792721e-003
3.189737e+003,1.819149e-003
3.191665e+003,1.827106e-003
3.193594e+003,1.732804e-003
3.195522e+003,1.684934e-003
3.197450e+003,1.762979e-003
3.199379e+003,1.796670e-003
3.201308e+003,1.797363e-003
3.203236e+003,1.781762e-003
3.205165e+003,1.769535e-003
3.207093e+003,1.849659e-003
3.209021e+003,1.822703e-003
3.210950e+003,1.675211e-003
3.212878e+003,1.766630e-003
3.214807e+003,1.911812e-003
3.216736e+003,1.841031e-003
3.218664e+003,1.853794e-003
3.220593e+003,1.896709e-003
3.222521e+003,1.900271e-003
3.224449e+003,1.797751e-003
3.226378e+003,1.745835e-003
3.228307e+003,1.787521e-003
3.230235e+003,1.817368e-003
3.232164e+003,1.875482e-003
3.234092e+003,1.975037e-003
3.236021e+003,1.948774e-003
3.237949e+003,1.903482e-003
3.239877e+003,1.977012e-003
3.241806e+003,1.889735e-003
3.243735e+003,1.817718e-003
3.245663e+003,1.978830e-003
3.247592e+003,2.009615e-003
3.249520e+003,1.955554e-003
3.251448e+003,1.980148e-003
3.253377e+003,2.105057e-003
3.255305e+003,2.257846e-003
3.257234e+003,2.293825e-003
3.259163e+003,2.230532e-003
3.261091e+003,2.308950e-003
3.263020e+003,2.391629e-003
3.264948e+003,2.414137e-003
3.266876e+003,2.489798e-003
3.268805e+003,2.476670e-003
3.270733e+003,2.465494e-003
3.272662e+003,2.540626e-003
3.274591e+003,2.581917e-003
3.276519e+003,2.672948e-003
3.278448e+003,2.680048e-003
3.280376e+003,2.689689e-003
3.282304e+003,2.708741e-003
3.284233e+003,2.729103e-003
3.286161e+003,2.731688e-003
3.288090e+003,2.774730e-003
3.290019e+003,2.815157e-003
3.291947e+003,2.876230e-003
3.293875e+003,2.819948e-003
3.295804e+003,2.789699e-003
3.297732e+003,2.833702e-003
3.299661e+003,2.823845e-003
3.301589e+003,2.813742e-003
3.303518e+003,2.895571e-003
3.305447e+003,2.905108e-003
3.307375e+003,2.926499e-003
3.309303e+003,2.935015e-003
3.311232e+003,2.865642e-003
3.313160e+003,2.774753e-003
3.315089e+003,2.653733e-003
3.317018e+003,2.584204e-003
3.318946e+003,2.667055e-003
3.320875e+003,2.753638e-003
3.322803e+003,2.810240e-003
3.324731e+003,2.826095e-003
3.326660e+003,2.837375e-003
3.328588e+003,2.876453e-003
3.330517e+003,2.830282e-003
3.332446e+003,2.764955e-003
3.334374e+003,2.858408e-003
3.336302e+003,2.843864e-003
3.338231e+003,2.760246e-003
3.340159e+003,2.775759e-003
3.342088e+003,2.731338e-003
3.344016e+003,2.618410e-003
3.345945e+003,2.574444e-003
3.347874e+003,2.686240e-003
3.349802e+003,2.719969e-003
3.351730e+003,2.611481e-003
3.353659e+003,2.564311e-003
3.355587e+003,2.621040e-003
3.357516e+003,2.685070e-003
3.359444e+003,2.746679e-003
3.361373e+003,2.818823e-003
3.363302e+003,2.795517e-003
3.365230e+003,2.679333e-003
3.367158e+003,2.609223e-003
3.369087e+003,2.547756e-003
3.371015e+003,2.496667e-003
3.372944e+003,2.425261e-003
3.374872e+003,2.424307e-003
3.376801e+003,2.521381e-003
3.378729e+003,2.469078e-003
3.380658e+003,2.439924e-003
3.382586e+003,2.343968e-003
3.384515e+003,2.340898e-003
3.386443e+003,2.371602e-003
3.388372e+003,2.307072e-003
3.390300e+003,2.253734e-003
3.392229e+003,2.314046e-003
3.394157e+003,2.232321e-003
3.396086e+003,2.156019e-003
3.398014e+003,2.080224e-003
3.399943e+003,2.019636e-003
3.401871e+003,2.063237e-003
3.403800e+003,2.107970e-003
3.405728e+003,2.122283e-003
3.407657e+003,2.252407e-003
3.409585e+003,2.233893e-003
3.411514e+003,2.105355e-003
3.413442e+003,2.063312e-003
3.415371e+003,2.012171e-003
3.417299e+003,1.901895e-003
3.419228e+003,2.132393e-003
3.421156e+003,2.325796e-003
3.423085e+003,2.183400e-003
3.425013e+003,1.964182e-003
3.426942e+003,1.864336e-003
3.428870e+003,1.797341e-003
3.430799e+003,1.921788e-003
3.432727e+003,2.060935e-003
3.434656e+003,1.990154e-003
3.436584e+003,1.888312e-003
3.438513e+003,1.939394e-003
3.440441e+003,1.908310e-003
3.442370e+003,1.953505e-003
3.444298e+003,1.825579e-003
3.446227e+003,2.053775e-003
3.448155e+003,1.990013e-003
3.450084e+003,1.547210e-003
3.452012e+003,1.485154e-003
3.453941e+003,1.671731e-003
3.455869e+003,1.670010e-003
3.457798e+003,1.634568e-003
3.459726e+003,1.639307e-003
3.461655e+003,1.680024e-003
3.463583e+003,1.562111e-003
3.465512e+003,1.420192e-003
3.467440e+003,1.386315e-003
3.469369e+003,1.264982e-003
3.471297e+003,1.128063e-003
3.473226e+003,1.182593e-003
3.475154e+003,1.342922e-003
3.477083e+003,1.264051e-003
3.479011e+003,1.166523e-003
3.480940e+003,1.343228e-003
3.482868e+003,1.257546e-003
3.484797e+003,9.468123e-004
3.486725e+003,1.058109e-003
3.488654e+003,1.098141e-003
3.490582e+003,8.540303e-004
3.492511e+003,8.257329e-004
3.494439e+003,9.715110e-004
3.496368e+003,9.560958e-004
3.498296e+003,8.428693e-004
3.500225e+003,7.944629e-004
3.502153e+003,9.884238e-004
3.504082e+003,1.035862e-003
3.506010e+003,6.795079e-004
3.507939e+003,7.268190e-004
3.509867e+003,8.179694e-004
3.511796e+003,6.141439e-004
3.513724e+003,5.163699e-004
3.515653e+003,4.127994e-004
3.517581e+003,4.393160e-004
3.519510e+003,3.918856e-004
3.521438e+003,5.404651e-004
3.523367e+003,9.994581e-004
3.525295e+003,8.010268e-004
3.527224e+003,6.325245e-004
3.529152e+003,6.013885e-004
3.531081e+003,3.379434e-004
3.533009e+003,-1.394749e-005
3.534938e+003,1.149401e-004
3.536866e+003,1.657605e-004
3.538795e+003,-1.562834e-004
3.540723e+003,-3.046170e-004
3.542652e+003,1.106188e-004
3.544580e+003,4.258603e-004
3.546509e+003,4.148632e-004
3.548437e+003,-1.027435e-005
3.550366e+003,-2.778098e-004
3.552294e+003,-1.341552e-004
3.554223e+003,-2.712756e-004
3.556151e+003,-3.851503e-004
3.558080e+003,-1.762733e-004
3.560008e+003,-9.714812e-005
3.561937e+003,-9.743869e-005
3.563865e+003,2.017394e-004
3.565794e+003,1.267441e-003
3.567722e+003,1.548000e-003
3.569651e+003,1.963004e-004
3.571579e+003,-6.002262e-004
3.573508e+003,-7.670671e-004
3.575436e+003,-7.238165e-004
3.577365e+003,-4.088283e-004
3.579293e+003,-1.585409e-004
3.581222e+003,-4.078895e-004
3.583150e+003,-5.014837e-004
3.585079e+003,-2.074465e-004
3.587007e+003,1.154542e-003
3.588936e+003,1.181290e-003
3.590864e+003,8.920580e-005
3.592793e+003,3.656000e-005
3.594721e+003,7.297173e-004
3.596650e+003,1.070365e-003
3.598578e+003,1.500502e-003
3.600507e+003,2.051689e-003
3.602435e+003,1.932219e-003
3.604364e+003,1.580305e-003
3.606292e+003,1.700982e-003
3.608221e+003,2.604030e-003
3.610149e+003,2.142951e-003
3.612078e+003,1.856752e-003
3.614006e+003,1.910359e-003
3.615935e+003,1.087755e-003
3.617863e+003,1.415558e-003
3.619792e+003,2.274580e-003
3.621720e+003,9.882152e-004
3.623649e+003,2.166852e-004
3.625577e+003,1.964942e-004
3.627506e+003,1.152575e-003
3.629434e+003,2.722211e-003
3.631363e+003,1.096681e-003
3.633291e+003,2.771094e-004
3.635220e+003,9.328127e-005
3.637148e+003,1.243502e-004
3.639077e+003,4.622266e-004
3.641005e+003,9.367988e-004
3.642934e+003,8.721873e-004
3.644862e+003,9.198412e-004
3.646791e+003,2.177484e-003
3.648719e+003,3.796592e-003
3.650648e+003,3.404945e-003
3.652576e+003,6.205142e-004
3.654505e+003,-5.477294e-004
3.656433e+003,-1.125410e-004
3.658362e+003,-1.332387e-004
3.660290e+003,-5.724430e-004
3.662219e+003,-6.456599e-004
3.664147e+003,-5.679727e-004
3.666076e+003,-5.109161e-004
3.668004e+003,3.259629e-005
3.669933e+003,1.905188e-003
3.671861e+003,7.919222e-004
3.673790e+003,1.636297e-004
3.675718e+003,1.612999e-003
3.677647e+003,5.189404e-004
3.679575e+003,-1.352206e-004
3.681504e+003,-1.498610e-004
3.683432e+003,-3.812760e-004
3.685361e+003,-5.374104e-004
3.687289e+003,-4.318357e-005
3.689218e+003,1.069255e-003
3.691146e+003,1.116246e-003
3.693075e+003,2.112463e-004
3.695003e+003,-2.080873e-004
3.696932e+003,-3.423244e-004
3.698860e+003,-6.308407e-004
3.700789e+003,-3.382564e-005
3.702717e+003,1.695454e-004
3.704646e+003,-6.291866e-004
3.706574e+003,-6.477460e-004
3.708503e+003,-1.822039e-004
3.710431e+003,8.113608e-004
3.712360e+003,1.095474e-003
3.714288e+003,-1.562461e-004
3.716217e+003,-9.808615e-004
3.718145e+003,-8.039325e-004
3.720074e+003,-3.721640e-004
3.722002e+003,6.308407e-005
3.723931e+003,-1.930445e-005
3.725859e+003,-5.084276e-005
3.727788e+003,-5.282685e-004
3.729716e+003,-9.633899e-004
3.731645e+003,-1.688227e-004
3.733573e+003,8.214638e-004
3.735502e+003,1.797810e-003
3.737430e+003,1.043223e-003
3.739359e+003,2.624393e-004
3.741287e+003,-2.560690e-004
3.743216e+003,8.896589e-004
3.745144e+003,2.715617e-003
3.747073e+003,1.542814e-003
3.749001e+003,1.584098e-003
3.750930e+003,3.034092e-003
3.752858e+003,1.687489e-003
3.754787e+003,5.907565e-004
3.756715e+003,2.077967e-004
3.758644e+003,6.575957e-004
3.760572e+003,8.224025e-004
3.762501e+003,-4.971027e-005
3.764429e+003,1.269355e-004
3.766358e+003,1.983643e-004
3.768286e+003,1.144633e-004
3.770215e+003,9.947345e-004
3.772143e+003,7.943809e-005
3.774072e+003,-7.656589e-004
3.776000e+003,-6.157383e-004
3.777929e+003,-1.927167e-004
3.779857e+003,3.732517e-004
3.781786e+003,-1.982450e-004
3.783714e+003,-4.408136e-004
3.785643e+003,-2.045929e-004
3.787571e+003,-7.591322e-004
3.789500e+003,-9.866431e-004
3.791428e+003,-5.185977e-004
3.793357e+003,-9.285882e-004
3.795285e+003,-1.749545e-004
3.797214e+003,6.926656e-004
3.799142e+003,-1.689866e-004
3.801071e+003,1.466580e-003
3.802999e+003,1.132987e-003
3.804927e+003,-4.827678e-004
3.806856e+003,5.202293e-004
3.808785e+003,1.540408e-004
3.810713e+003,-1.556203e-004
3.812642e+003,-1.110062e-004
3.814570e+003,3.246143e-004
3.816499e+003,1.469284e-003
3.818427e+003,6.381422e-004
3.820355e+003,1.101598e-003
3.822284e+003,1.849733e-003
3.824213e+003,3.366023e-004
3.826141e+003,5.777478e-004
3.828070e+003,6.177649e-004
3.829998e+003,-5.027652e-005
3.831927e+003,7.445738e-004
3.833855e+003,1.084745e-003
3.835783e+003,7.679984e-004
3.837712e+003,1.672499e-003
3.839641e+003,1.698002e-003
3.841569e+003,8.481666e-004
3.843498e+003,9.849742e-004
3.845426e+003,5.256087e-004
3.847354e+003,9.132922e-005
3.849283e+003,4.225895e-004
3.851211e+003,9.634197e-004
3.853140e+003,3.916502e-003
3.855069e+003,3.233969e-003
3.856997e+003,1.036800e-003
3.858926e+003,2.729520e-004
3.860854e+003,1.075499e-003
3.862782e+003,1.763359e-003
3.864711e+003,2.853401e-003
3.866640e+003,1.285404e-003
3.868568e+003,1.296356e-003
3.870497e+003,2.784945e-003
3.872425e+003,1.878306e-003
3.874354e+003,1.890659e-003
3.876282e+003,1.241006e-003
3.878210e+003,2.041832e-004
3.880139e+003,1.790248e-003
3.882068e+003,1.878530e-003
3.883996e+003,1.259819e-003
3.885925e+003,1.975596e-003
3.887853e+003,7.832199e-004
3.889781e+003,3.500208e-004
3.891710e+003,1.981117e-003
3.893638e+003,1.474783e-003
3.895567e+003,7.340461e-004
3.897496e+003,1.002342e-003
3.899424e+003,1.778461e-003
3.901353e+003,2.394132e-003
3.903281e+003,2.900638e-003
3.905209e+003,2.261080e-003
3.907138e+003,9.049848e-004
3.909066e+003,2.135634e-004
3.910995e+003,4.059747e-004
3.912924e+003,4.952699e-004
3.914852e+003,7.871613e-004
3.916781e+003,1.371853e-003
3.918709e+003,1.361579e-003
3.920637e+003,9.487346e-004
3.922566e+003,9.730458e-004
3.924494e+003,1.359686e-003
3.926423e+003,8.859411e-004
3.928352e+003,5.246550e-004
3.930280e+003,7.868484e-004
3.932208e+003,1.123346e-003
3.934137e+003,7.233024e-004
3.936065e+003,2.028868e-004
3.937994e+003,7.154793e-005
3.939922e+003,6.611645e-005
3.941851e+003,6.453022e-004
3.943780e+003,7.828102e-004
3.945708e+003,2.329126e-004
3.947636e+003,3.990754e-004
3.949565e+003,5.120710e-004
3.951493e+003,1.638606e-004
3.953422e+003,-1.918525e-005
3.955351e+003,-5.138665e-005
3.957279e+003,1.490116e-007
3.959208e+003,1.485944e-004
3.961136e+003,2.550334e-004
3.963064e+003,4.550815e-005
3.964993e+003,-2.229139e-004
3.966921e+003,-1.327768e-004
3.968850e+003,-2.861023e-006
3.970779e+003,-2.235174e-006
3.972707e+003,1.374334e-004
3.974635e+003,2.703667e-004
3.976564e+003,1.410842e-004
3.978492e+003,-1.077056e-004
3.980421e+003,-1.456887e-004
3.982349e+003,-1.520291e-004
3.984278e+003,-1.178309e-004
3.986207e+003,-1.135767e-004
3.988135e+003,-1.733527e-004
3.990063e+003,-1.233146e-004
3.991992e+003,-1.830161e-004
3.993920e+003,-2.032369e-004
3.995849e+003,-1.421273e-004
3.997777e+003,-2.823174e-004
3.999706e+003,-4.311353e-004
4.001635e+003,0.000000e+000
