3.991992e+002,0.000000e+000
4.011277e+002,0.000000e+000
4.030562e+002,0.000000e+000
4.049846e+002,0.000000e+000
4.069131e+002,0.000000e+000
4.088416e+002,0.000000e+000
4.107701e+002,0.000000e+000
4.126986e+002,0.000000e+000
4.146271e+002,0.000000e+000
4.165556e+002,0.000000e+000
4.184841e+002,0.000000e+000
4.204126e+002,0.000000e+000
4.223411e+002,0.000000e+000
4.242697e+002,0.000000e+000
4.261982e+002,0.000000e+000
4.281266e+002,0.000000e+000
4.300551e+002,0.000000e+000
4.319836e+002,0.000000e+000
4.339121e+002,0.000000e+000
4.358406e+002,0.000000e+000
4.377691e+002,0.000000e+000
4.396976e+002,0.000000e+000
4.416261e+002,0.000000e+000
4.435546e+002,0.000000e+000
4.454831e+002,0.000000e+000
4.474116e+002,0.000000e+000
4.493401e+002,0.000000e+000
4.512686e+002,0.000000e+000
4.531971e+002,0.000000e+000
4.551256e+002,0.000000e+000
4.570541e+002,0.000000e+000
4.589826e+002,0.000000e+000
4.609111e+002,0.000000e+000
4.628396e+002,0.000000e+000
4.647681e+002,0.000000e+000
4.666966e+002,0.000000e+000
4.686251e+002,0.000000e+000
4.705536e+002,0.000000e+000
4.724821e+002,0.000000e+000
4.744106e+002,0.000000e+000
4.763391e+002,0.000000e+000
4.782676e+002,0.000000e+000
4.801961e+002,0.000000e+000
4.821246e+002,0.000000e+000
4.840531e+002,0.000000e+000
4.859816e+002,0.000000e+000
4.879101e+002,0.000000e+000
4.898386e+002,0.000000e+000
4.917671e+002,0.000000e+000
4.936956e+002,0.000000e+000
4.956241e+002,0.000000e+000
4.975526e+002,0.000000e+000
4.994811e+002,0.000000e+000
5.014096e+002,0.000000e+000
5.033381e+002,0.000000e+000
5.052666e+002,0.000000e+000
5.071951e+002,0.000000e+000
5.091236e+002,0.000000e+000
5.110521e+002,0.000000e+000
5.129806e+002,0.000000e+000
5.149091e+002,0.000000e+000
5.168376e+002,0.000000e+000
5.187661e+002,0.000000e+000
5.206946e+002,0.000000e+000
5.226230e+002,0.000000e+000
5.245516e+002,1.604855e-005
5.264800e+002,-1.673978e-004
5.284086e+002,-1.709759e-004
5.303370e+002,-2.235901e-004
5.322656e+002,-1.820233e-004
5.341940e+002,-1.424160e-004
5.361226e+002,-6.642379e-005
5.380510e+002,7.882714e-006
5.399796e+002,4.529208e-005
5.419081e+002,-1.130234e-004
5.438365e+002,-1.539513e-004
5.457650e+002,-1.693144e-005
5.476935e+002,-3.157742e-005
5.496221e+002,-1.280326e-004
5.515505e+002,-6.956607e-005
5.534790e+002,8.793548e-005
5.554075e+002,2.216529e-004
5.573361e+002,1.048185e-004
5.592645e+002,1.599826e-005
5.611931e+002,-3.116950e-005
5.631215e+002,-6.351061e-005
5.650500e+002,-1.029298e-004
5.669785e+002,6.795675e-005
5.689070e+002,1.718216e-004
5.708355e+002,1.048092e-004
5.727640e+002,-3.314763e-005
5.746925e+002,-2.237782e-005
5.766210e+002,-5.985051e-005
5.785495e+002,-9.890646e-005
5.804780e+002,-1.514461e-004
5.824065e+002,-1.225378e-004
5.843350e+002,-5.108863e-005
5.862635e+002,1.184084e-005
5.881920e+002,-1.526251e-005
5.901205e+002,4.679710e-005
5.920490e+002,1.815148e-005
5.939775e+002,-4.563481e-005
5.959060e+002,-3.423542e-005
5.978345e+002,9.795465e-005
5.997630e+002,1.859907e-004
6.016915e+002,2.264157e-004
6.036200e+002,2.149716e-004
6.055485e+002,3.219917e-004
6.074770e+002,3.472380e-004
6.094055e+002,2.686679e-004
6.113340e+002,1.968108e-004
6.132625e+002,1.815800e-004
6.151910e+002,8.893013e-005
6.171195e+002,1.214314e-004
6.190480e+002,2.955459e-004
6.209765e+002,4.020724e-004
6.229050e+002,3.258083e-004
6.248335e+002,5.109869e-004
6.267620e+002,6.236620e-004
6.286905e+002,6.390363e-004
6.306190e+002,6.121621e-004
6.325475e+002,6.741527e-004
6.344760e+002,6.654300e-004
6.364045e+002,6.786678e-004
6.383330e+002,6.211381e-004
6.402615e+002,7.459652e-004
6.421899e+002,8.387156e-004
6.441185e+002,8.745603e-004
6.460470e+002,8.556899e-004
6.479755e+002,9.703916e-004
6.499039e+002,1.030719e-003
6.518325e+002,1.053331e-003
6.537610e+002,9.977687e-004
6.556895e+002,9.925403e-004
6.576179e+002,1.097640e-003
6.595464e+002,1.214659e-003
6.614750e+002,1.204837e-003
6.634034e+002,1.285415e-003
6.653319e+002,1.365896e-003
6.672604e+002,1.453271e-003
6.691890e+002,1.474570e-003
6.711174e+002,1.604464e-003
6.730460e+002,1.632079e-003
6.749745e+002,1.757570e-003
6.769030e+002,1.852576e-003
6.788314e+002,2.003158e-003
6.807599e+002,2.206445e-003
6.826885e+002,2.455367e-003
6.846169e+002,2.572257e-003
6.865454e+002,2.790762e-003
6.884739e+002,2.911111e-003
6.904025e+002,3.161060e-003
6.923309e+002,3.503928e-003
6.942594e+002,4.021352e-003
6.961879e+002,4.601678e-003
6.981165e+002,5.426014e-003
7.000449e+002,6.333604e-003
7.019734e+002,7.598624e-003
7.039019e+002,9.174718e-003
7.058304e+002,1.150961e-002
7.077589e+002,1.469850e-002
7.096874e+002,1.952864e-002
7.116159e+002,2.716135e-002
7.135444e+002,4.157589e-002
7.154729e+002,6.737936e-002
7.174014e+002,1.031163e-001
7.193299e+002,1.178931e-001
7.212584e+002,8.742507e-002
7.231869e+002,5.768145e-002
7.251154e+002,4.720230e-002
7.270439e+002,5.143277e-002
7.289724e+002,6.747700e-002
7.309009e+002,6.522629e-002
7.328294e+002,3.782766e-002
7.347579e+002,1.932375e-002
7.366864e+002,1.279869e-002
7.386149e+002,1.013966e-002
7.405434e+002,8.515149e-003
7.424719e+002,7.481446e-003
7.444004e+002,6.669546e-003
7.463289e+002,6.069873e-003
7.482574e+002,5.566074e-003
7.501859e+002,5.229956e-003
7.521144e+002,4.887970e-003
7.540428e+002,4.591318e-003
7.559714e+002,4.308734e-003
7.578999e+002,4.091226e-003
7.598284e+002,3.844880e-003
7.617568e+002,3.657570e-003
7.636854e+002,3.470922e-003
7.656139e+002,3.374068e-003
7.675424e+002,3.251703e-003
7.694709e+002,3.115801e-003
7.713994e+002,3.005793e-003
7.733279e+002,2.877934e-003
7.752563e+002,2.767134e-003
7.771849e+002,2.683073e-003
7.791134e+002,2.595577e-003
7.810419e+002,2.593430e-003
7.829703e+002,2.610400e-003
7.848989e+002,2.594570e-003
7.868274e+002,2.572343e-003
7.887559e+002,2.569966e-003
7.906843e+002,2.534023e-003
7.926129e+002,2.504313e-003
7.945414e+002,2.459455e-003
7.964698e+002,2.496855e-003
7.983983e+002,2.536567e-003
8.003268e+002,2.598099e-003
8.022554e+002,2.578566e-003
8.041838e+002,2.481446e-003
8.061123e+002,2.464650e-003
8.080408e+002,2.402270e-003
8.099694e+002,2.276015e-003
8.118978e+002,2.234215e-003
8.138263e+002,2.188604e-003
8.157548e+002,2.099264e-003
8.176833e+002,1.991255e-003
8.196118e+002,1.835603e-003
8.215403e+002,1.783621e-003
8.234689e+002,1.800191e-003
8.253973e+002,1.781741e-003
8.273258e+002,1.702921e-003
8.292543e+002,1.627961e-003
8.311829e+002,1.628201e-003
8.331113e+002,1.645241e-003
8.350398e+002,1.607759e-003
8.369683e+002,1.624694e-003
8.388969e+002,1.690974e-003
8.408253e+002,1.724930e-003
8.427538e+002,1.705345e-003
8.446823e+002,1.719551e-003
8.466108e+002,1.782000e-003
8.485393e+002,1.903214e-003
8.504678e+002,1.853522e-003
8.523963e+002,1.756852e-003
8.543248e+002,1.728464e-003
8.562533e+002,1.816208e-003
8.581818e+002,1.881035e-003
8.601103e+002,1.850568e-003
8.620388e+002,1.864294e-003
8.639673e+002,1.934633e-003
8.658958e+002,1.920078e-003
8.678243e+002,1.973348e-003
8.697528e+002,2.014831e-003
8.716813e+002,2.029849e-003
8.736098e+002,2.032038e-003
8.755383e+002,2.110271e-003
8.774668e+002,2.150737e-003
8.793953e+002,2.199531e-003
8.813238e+002,2.183668e-003
8.832523e+002,2.250694e-003
8.851808e+002,2.353264e-003
8.871093e+002,2.465397e-003
8.890378e+002,2.492204e-003
8.909663e+002,2.460210e-003
8.928948e+002,2.416860e-003
8.948232e+002,2.312317e-003
8.967518e+002,2.181303e-003
8.986803e+002,2.223291e-003
9.006088e+002,2.313467e-003
9.025372e+002,2.473421e-003
9.044658e+002,2.756061e-003
9.063943e+002,3.199546e-003
9.083228e+002,3.454804e-003
9.102512e+002,3.260994e-003
9.121797e+002,2.811247e-003
9.141083e+002,2.480373e-003
9.160367e+002,2.246954e-003
9.179653e+002,2.164135e-003
9.198937e+002,2.107920e-003
9.218223e+002,2.118478e-003
9.237507e+002,2.102977e-003
9.256793e+002,2.095602e-003
9.276077e+002,2.082186e-003
9.295363e+002,2.007594e-003
9.314647e+002,1.972474e-003
9.333932e+002,2.035685e-003
9.353217e+002,2.135441e-003
9.372502e+002,2.173202e-003
9.391787e+002,2.137601e-003
9.411072e+002,2.127180e-003
9.430358e+002,2.158664e-003
9.449642e+002,2.152357e-003
9.468928e+002,2.075868e-003
9.488212e+002,2.184207e-003
9.507498e+002,2.272811e-003
9.526782e+002,2.325658e-003
9.546068e+002,2.396751e-003
9.565352e+002,2.523612e-003
9.584637e+002,2.629161e-003
9.603922e+002,2.765773e-003
9.623207e+002,2.855834e-003
9.642492e+002,2.929132e-003
9.661777e+002,2.942611e-003
9.681062e+002,2.963655e-003
9.700347e+002,2.969753e-003
9.719632e+002,3.008272e-003
9.738917e+002,3.002593e-003
9.758202e+002,3.058793e-003
9.777487e+002,3.113613e-003
9.796772e+002,3.201934e-003
9.816057e+002,3.323451e-003
9.835342e+002,3.483620e-003
9.854627e+002,3.667442e-003
9.873912e+002,3.898220e-003
9.893197e+002,4.092366e-003
9.912482e+002,4.221383e-003
9.931767e+002,4.303854e-003
9.951052e+002,4.426587e-003
9.970337e+002,4.488517e-003
9.989622e+002,4.566602e-003
1.000891e+003,4.692543e-003
1.002819e+003,4.836988e-003
1.004748e+003,4.971886e-003
1.006676e+003,5.183669e-003
1.008605e+003,5.332313e-003
1.010533e+003,5.554151e-003
1.012462e+003,5.853444e-003
1.014390e+003,6.202653e-003
1.016319e+003,6.447533e-003
1.018247e+003,6.698377e-003
1.020176e+003,6.869292e-003
1.022104e+003,7.027859e-003
1.024033e+003,7.149005e-003
1.025961e+003,7.271452e-003
1.027890e+003,7.332942e-003
1.029818e+003,7.412774e-003
1.031747e+003,7.478401e-003
1.033675e+003,7.577663e-003
1.035604e+003,7.651905e-003
1.037532e+003,7.727966e-003
1.039461e+003,7.727219e-003
1.041389e+003,7.777240e-003
1.043318e+003,7.826047e-003
1.045246e+003,7.929595e-003
1.047175e+003,7.995438e-003
1.049103e+003,8.179694e-003
1.051032e+003,8.256258e-003
1.052960e+003,8.244095e-003
1.054889e+003,8.195531e-003
1.056817e+003,8.270245e-003
1.058746e+003,8.365929e-003
1.060674e+003,8.457143e-003
1.062603e+003,8.492086e-003
1.064531e+003,8.518683e-003
1.066460e+003,8.450005e-003
1.068388e+003,8.449186e-003
1.070317e+003,8.586004e-003
1.072245e+003,8.852515e-003
1.074174e+003,9.087933e-003
1.076102e+003,9.399235e-003
1.078031e+003,9.642866e-003
1.079959e+003,9.790568e-003
1.081888e+003,9.775082e-003
1.083816e+003,9.810776e-003
1.085745e+003,9.838738e-003
1.087673e+003,9.877197e-003
1.089602e+003,9.878030e-003
1.091530e+003,9.900516e-003
1.093459e+003,9.849293e-003
1.095387e+003,9.861460e-003
1.097316e+003,9.779640e-003
1.099244e+003,9.724233e-003
1.101173e+003,9.593097e-003
1.103101e+003,9.464940e-003
1.105030e+003,9.313392e-003
1.106958e+003,9.182967e-003
1.108887e+003,9.067247e-003
1.110815e+003,9.134805e-003
1.112744e+003,9.199793e-003
1.114672e+003,9.227498e-003
1.116601e+003,9.231960e-003
1.118529e+003,9.297878e-003
1.120458e+003,9.215662e-003
1.122386e+003,9.000296e-003
1.124315e+003,8.745708e-003
1.126243e+003,8.640835e-003
1.128172e+003,8.564064e-003
1.130100e+003,8.641351e-003
1.132029e+003,8.863831e-003
1.133957e+003,9.223627e-003
1.135885e+003,9.560013e-003
1.137814e+003,9.926530e-003
1.139743e+003,1.028613e-002
1.141671e+003,1.063131e-002
1.143600e+003,1.088305e-002
1.145528e+003,1.122027e-002
1.147457e+003,1.157235e-002
1.149385e+003,1.201076e-002
1.151314e+003,1.247377e-002
1.153242e+003,1.301752e-002
1.155171e+003,1.345901e-002
1.157099e+003,1.381512e-002
1.159028e+003,1.402366e-002
1.160956e+003,1.413440e-002
1.162885e+003,1.407642e-002
1.164813e+003,1.387233e-002
1.166742e+003,1.351809e-002
1.168670e+003,1.311521e-002
1.170599e+003,1.260740e-002
1.172527e+003,1.217665e-002
1.174456e+003,1.179028e-002
1.176384e+003,1.142371e-002
1.178313e+003,1.092336e-002
1.180241e+003,1.047586e-002
1.182170e+003,1.013714e-002
1.184098e+003,9.946350e-003
1.186027e+003,9.787297e-003
1.187955e+003,9.694558e-003
1.189884e+003,9.551290e-003
1.191812e+003,9.508090e-003
1.193740e+003,9.461699e-003
1.195669e+003,9.480946e-003
1.197598e+003,9.520845e-003
1.199526e+003,9.592460e-003
1.201455e+003,9.662123e-003
1.203383e+003,9.845024e-003
1.205312e+003,1.001811e-002
1.207240e+003,1.027809e-002
1.209168e+003,1.046072e-002
1.211097e+003,1.065734e-002
1.213026e+003,1.081271e-002
1.214954e+003,1.101980e-002
1.216883e+003,1.120653e-002
1.218811e+003,1.142742e-002
1.220740e+003,1.166468e-002
1.222668e+003,1.202284e-002
1.224596e+003,1.232054e-002
1.226525e+003,1.259230e-002
1.228453e+003,1.282962e-002
1.230382e+003,1.317198e-002
1.232311e+003,1.344334e-002
1.234239e+003,1.363773e-002
1.236167e+003,1.367445e-002
1.238096e+003,1.369700e-002
1.240025e+003,1.361847e-002
1.241953e+003,1.349181e-002
1.243882e+003,1.321602e-002
1.245810e+003,1.293283e-002
1.247739e+003,1.260035e-002
1.249667e+003,1.235840e-002
1.251595e+003,1.208925e-002
1.253524e+003,1.190994e-002
1.255453e+003,1.175234e-002
1.257381e+003,1.165982e-002
1.259310e+003,1.152954e-002
1.261238e+003,1.140489e-002
1.263167e+003,1.117423e-002
1.265095e+003,1.097013e-002
1.267023e+003,1.069909e-002
1.268952e+003,1.057215e-002
1.270880e+003,1.048137e-002
1.272809e+003,1.045184e-002
1.274738e+003,1.043081e-002
1.276666e+003,1.051934e-002
1.278594e+003,1.054217e-002
1.280523e+003,1.059828e-002
1.282451e+003,1.061234e-002
1.284380e+003,1.072143e-002
1.286308e+003,1.078585e-002
1.288237e+003,1.096534e-002
1.290166e+003,1.118236e-002
1.292094e+003,1.155219e-002
1.294022e+003,1.194314e-002
1.295951e+003,1.239202e-002
1.297879e+003,1.271725e-002
1.299808e+003,1.303557e-002
1.301736e+003,1.313795e-002
1.303665e+003,1.316807e-002
1.305594e+003,1.305801e-002
1.307522e+003,1.294493e-002
1.309450e+003,1.271224e-002
1.311379e+003,1.241125e-002
1.313307e+003,1.196000e-002
1.315236e+003,1.159591e-002
1.317164e+003,1.116349e-002
1.319093e+003,1.071206e-002
1.321021e+003,1.014325e-002
1.322950e+003,9.756491e-003
1.324878e+003,9.447552e-003
1.326807e+003,9.314030e-003
1.328735e+003,9.152163e-003
1.330664e+003,9.210523e-003
1.332592e+003,9.399310e-003
1.334521e+003,9.834580e-003
1.336449e+003,1.040924e-002
1.338378e+003,1.129669e-002
1.340306e+003,1.200499e-002
1.342235e+003,1.249252e-002
1.344163e+003,1.292439e-002
1.346092e+003,1.358344e-002
1.348021e+003,1.431959e-002
1.349949e+003,1.510940e-002
1.351877e+003,1.544244e-002
1.353806e+003,1.551966e-002
1.355734e+003,1.536107e-002
1.357663e+003,1.548744e-002
1.359591e+003,1.588341e-002
1.361520e+003,1.677707e-002
1.363448e+003,1.796740e-002
1.365377e+003,1.908785e-002
1.367305e+003,1.985584e-002
1.369234e+003,1.990623e-002
1.371162e+003,1.885834e-002
1.373091e+003,1.783273e-002
1.375019e+003,1.756444e-002
1.376948e+003,1.765573e-002
1.378876e+003,1.596291e-002
1.380805e+003,1.309685e-002
1.382733e+003,1.084674e-002
1.384662e+003,9.826194e-003
1.386590e+003,9.248979e-003
1.388519e+003,8.978829e-003
1.390447e+003,8.651845e-003
1.392376e+003,8.650724e-003
1.394304e+003,8.555822e-003
1.396233e+003,8.658700e-003
1.398161e+003,8.548405e-003
1.400090e+003,8.741718e-003
1.402018e+003,8.655075e-003
1.403947e+003,8.853976e-003
1.405875e+003,8.795310e-003
1.407804e+003,8.991703e-003
1.409732e+003,9.171113e-003
1.411661e+003,9.697817e-003
1.413589e+003,9.947728e-003
1.415518e+003,1.044810e-002
1.417446e+003,1.068659e-002
1.419375e+003,1.149284e-002
1.421303e+003,1.173218e-002
1.423232e+003,1.270165e-002
1.425160e+003,1.409830e-002
1.427089e+003,1.605979e-002
1.429017e+003,1.862222e-002
1.430946e+003,2.245946e-002
1.432874e+003,2.557396e-002
1.434803e+003,2.855634e-002
1.436731e+003,3.168394e-002
1.438660e+003,3.439924e-002
1.440588e+003,3.581992e-002
1.442517e+003,3.786882e-002
1.444445e+003,3.941312e-002
1.446374e+003,4.178796e-002
1.448302e+003,4.520600e-002
1.450231e+003,5.069351e-002
1.452159e+003,5.903832e-002
1.454088e+003,6.996544e-002
1.456016e+003,8.114970e-002
1.457945e+003,1.088204e-001
1.459873e+003,1.585522e-001
1.461802e+003,2.062931e-001
1.463730e+003,2.018578e-001
1.465659e+003,1.532073e-001
1.467587e+003,1.386066e-001
1.469516e+003,1.351529e-001
1.471444e+003,1.522468e-001
1.473373e+003,1.358809e-001
1.475301e+003,7.488915e-002
1.477230e+003,3.437981e-002
1.479158e+003,2.269579e-002
1.481087e+003,1.713646e-002
1.483015e+003,1.457965e-002
1.484944e+003,1.252965e-002
1.486872e+003,1.194563e-002
1.488801e+003,1.050722e-002
1.490729e+003,1.020650e-002
1.492658e+003,9.174820e-003
1.494586e+003,9.284385e-003
1.496515e+003,8.684982e-003
1.498443e+003,8.748557e-003
1.500372e+003,8.109290e-003
1.502300e+003,8.224513e-003
1.504229e+003,7.856805e-003
1.506157e+003,8.680806e-003
1.508086e+003,8.077800e-003
1.510014e+003,8.236941e-003
1.511943e+003,7.947735e-003
1.513871e+003,8.311857e-003
1.515800e+003,8.232534e-003
1.517728e+003,8.587640e-003
1.519657e+003,8.143682e-003
1.521585e+003,8.583587e-003
1.523514e+003,8.148931e-003
1.525442e+003,8.448385e-003
1.527371e+003,8.339960e-003
1.529299e+003,8.529402e-003
1.531228e+003,8.414779e-003
1.533156e+003,8.881751e-003
1.535085e+003,8.829564e-003
1.537013e+003,9.073973e-003
1.538942e+003,9.168677e-003
1.540870e+003,9.848028e-003
1.542799e+003,9.178739e-003
1.544727e+003,9.196047e-003
1.546656e+003,8.734565e-003
1.548584e+003,8.748129e-003
1.550513e+003,8.522548e-003
1.552441e+003,8.394923e-003
1.554370e+003,8.102193e-003
1.556298e+003,8.163873e-003
1.558227e+003,7.866010e-003
1.560155e+003,7.634882e-003
1.562084e+003,6.975066e-003
1.564012e+003,6.956019e-003
1.565941e+003,6.804854e-003
1.567869e+003,6.860256e-003
1.569798e+003,6.748654e-003
1.571726e+003,6.683752e-003
1.573655e+003,6.547201e-003
1.575583e+003,6.829020e-003
1.577512e+003,6.594352e-003
1.579440e+003,6.448604e-003
1.581369e+003,6.301373e-003
1.583297e+003,6.359722e-003
1.585226e+003,6.300695e-003
1.587154e+003,6.394852e-003
1.589083e+003,6.303195e-003
1.591011e+003,6.371818e-003
1.592940e+003,6.328505e-003
1.594868e+003,6.431762e-003
1.596797e+003,6.344359e-003
1.598725e+003,6.362963e-003
1.600654e+003,6.357763e-003
1.602582e+003,6.539039e-003
1.604511e+003,6.499816e-003
1.606439e+003,6.645463e-003
1.608368e+003,6.747261e-003
1.610296e+003,6.897289e-003
1.612225e+003,6.983347e-003
1.614153e+003,7.271759e-003
1.616082e+003,7.523734e-003
1.618010e+003,7.996209e-003
1.619939e+003,8.070212e-003
1.621867e+003,8.392304e-003
1.623796e+003,8.741561e-003
1.625724e+003,8.968722e-003
1.627653e+003,9.175569e-003
1.629581e+003,9.525377e-003
1.631510e+003,9.656835e-003
1.633438e+003,9.946398e-003
1.635367e+003,1.036336e-002
1.637295e+003,1.082686e-002
1.639224e+003,1.078986e-002
1.641152e+003,1.107219e-002
1.643081e+003,1.118267e-002
1.645009e+003,1.135353e-002
1.646938e+003,1.149402e-002
1.648866e+003,1.150531e-002
1.650795e+003,1.131641e-002
1.652723e+003,1.178821e-002
1.654652e+003,1.134843e-002
1.656580e+003,1.100973e-002
1.658509e+003,1.069019e-002
1.660437e+003,1.047881e-002
1.662366e+003,1.007990e-002
1.664294e+003,9.683803e-003
1.666223e+003,9.274501e-003
1.668151e+003,9.202998e-003
1.670080e+003,8.793522e-003
1.672008e+003,8.493073e-003
1.673937e+003,8.130386e-003
1.675865e+003,7.956121e-003
1.677794e+003,7.584162e-003
1.679722e+003,7.542446e-003
1.681651e+003,7.231206e-003
1.683579e+003,7.114470e-003
1.685508e+003,6.482311e-003
1.687436e+003,6.258830e-003
1.689365e+003,6.002609e-003
1.691293e+003,5.814757e-003
1.693222e+003,5.502436e-003
1.695150e+003,5.584661e-003
1.697079e+003,5.462345e-003
1.699007e+003,5.258702e-003
1.700936e+003,4.951421e-003
1.702864e+003,4.915651e-003
1.704793e+003,4.809476e-003
1.706721e+003,4.918456e-003
1.708650e+003,4.792258e-003
1.710578e+003,5.037364e-003
1.712507e+003,5.206812e-003
1.714435e+003,5.541828e-003
1.716364e+003,5.811933e-003
1.718292e+003,6.196473e-003
1.720221e+003,6.021380e-003
1.722149e+003,6.135494e-003
1.724078e+003,6.339565e-003
1.726006e+003,6.688375e-003
1.727935e+003,7.155258e-003
1.729863e+003,8.062109e-003
1.731792e+003,8.649368e-003
1.733720e+003,9.977568e-003
1.735649e+003,1.133052e-002
1.737577e+003,1.230298e-002
1.739506e+003,1.425150e-002
1.741434e+003,1.618224e-002
1.743363e+003,1.776487e-002
1.745291e+003,1.909579e-002
1.747220e+003,1.946070e-002
1.749148e+003,1.880798e-002
1.751077e+003,1.670379e-002
1.753005e+003,1.406115e-002
1.754934e+003,1.175620e-002
1.756862e+003,9.201452e-003
1.758791e+003,7.048961e-003
1.760719e+003,5.721860e-003
1.762648e+003,4.299410e-003
1.764576e+003,3.339935e-003
1.766505e+003,2.779294e-003
1.768433e+003,2.501585e-003
1.770362e+003,2.133001e-003
1.772290e+003,2.118256e-003
1.774219e+003,1.756400e-003
1.776147e+003,1.638710e-003
1.778076e+003,1.557074e-003
1.780004e+003,1.629643e-003
1.781933e+003,1.450360e-003
1.783861e+003,1.428768e-003
1.785790e+003,1.300145e-003
1.787718e+003,1.240700e-003
1.789646e+003,1.151938e-003
1.791575e+003,1.228496e-003
1.793504e+003,1.107562e-003
1.795432e+003,1.164384e-003
1.797361e+003,1.103263e-003
1.799289e+003,1.077380e-003
1.801218e+003,8.626953e-004
1.803146e+003,8.731410e-004
1.805074e+003,7.423237e-004
1.807003e+003,7.136725e-004
1.808932e+003,6.010048e-004
1.810860e+003,6.728694e-004
1.812789e+003,5.253479e-004
1.814717e+003,2.869777e-004
1.816646e+003,4.656985e-005
1.818574e+003,3.283918e-004
1.820502e+003,3.644675e-004
1.822431e+003,4.499145e-004
1.824360e+003,3.021248e-004
1.826288e+003,2.221391e-004
1.828217e+003,-3.900379e-006
1.830145e+003,2.670996e-004
1.832073e+003,-3.838912e-005
1.834002e+003,-6.750599e-005
1.835931e+003,-1.829043e-004
1.837859e+003,-2.328157e-004
1.839788e+003,-4.216395e-004
1.841716e+003,-3.035404e-004
1.843645e+003,-4.346110e-004
1.845573e+003,-3.458709e-004
1.847501e+003,-2.888180e-004
1.849430e+003,-2.069511e-004
1.851359e+003,-5.253144e-004
1.853287e+003,-4.088171e-004
1.855216e+003,-3.227703e-004
1.857144e+003,-6.026775e-005
1.859073e+003,-9.343401e-005
1.861001e+003,-1.183264e-004
1.862929e+003,-3.560260e-004
1.864858e+003,-7.525831e-005
1.866787e+003,-7.563829e-005
1.868715e+003,8.237734e-005
1.870644e+003,-2.273060e-004
1.872572e+003,-1.754947e-004
1.874500e+003,-2.842024e-004
1.876429e+003,-2.416372e-004
1.878357e+003,-4.910454e-004
1.880286e+003,-4.143007e-004
1.882215e+003,-5.137026e-004
1.884143e+003,-3.599785e-004
1.886072e+003,-4.087202e-004
1.888000e+003,-1.644753e-004
1.889928e+003,-2.391227e-004
1.891857e+003,-5.296990e-005
1.893785e+003,-1.185946e-004
1.895714e+003,8.095056e-006
1.897643e+003,-2.122745e-004
1.899571e+003,-2.089590e-004
1.901500e+003,-2.031997e-004
1.903428e+003,-1.974516e-004
1.905356e+003,-1.917146e-004
1.907285e+003,-1.859888e-004
1.909213e+003,-1.802817e-004
1.911142e+003,-1.745746e-004
1.913071e+003,-1.688860e-004
1.914999e+003,-1.632124e-004
1.916927e+003,-1.575425e-004
1.918856e+003,-1.518913e-004
1.920784e+003,-1.462512e-004
1.922713e+003,-1.406223e-004
1.924641e+003,-1.350082e-004
1.926570e+003,-1.293980e-004
1.928499e+003,-1.238026e-004
1.930427e+003,-1.182221e-004
1.932355e+003,-1.126565e-004
1.934284e+003,-1.070946e-004
1.936212e+003,-1.015477e-004
1.938141e+003,-9.601563e-005
1.940070e+003,-9.049103e-005
1.941998e+003,-8.497760e-005
1.943927e+003,-7.947534e-005
1.945855e+003,-7.399172e-005
1.947783e+003,-6.851554e-005
1.949712e+003,-6.305054e-005
1.951640e+003,-5.760044e-005
1.953569e+003,-5.216151e-005
1.955498e+003,-4.673004e-005
1.957426e+003,-4.131347e-005
1.959354e+003,-3.591180e-005
1.961283e+003,-3.052130e-005
1.963211e+003,-2.513826e-005
1.965140e+003,-1.977012e-005
1.967068e+003,-1.440942e-005
1.968997e+003,-9.067357e-006
1.970926e+003,-3.732741e-006
1.972854e+003,1.586974e-006
1.974782e+003,6.895512e-006
1.976711e+003,1.219660e-005
1.978639e+003,1.748279e-005
1.980568e+003,2.276152e-005
1.982496e+003,2.802163e-005
1.984425e+003,3.327429e-005
1.986354e+003,3.851578e-005
1.988282e+003,4.373491e-005
1.990210e+003,4.895031e-005
1.992139e+003,5.416200e-005
1.994067e+003,5.935133e-005
1.995996e+003,6.452575e-005
1.997924e+003,6.969273e-005
1.999853e+003,7.485598e-005
2.001781e+003,7.999316e-005
2.003710e+003,8.512288e-005
2.005638e+003,9.024516e-005
2.007567e+003,9.535998e-005
2.009495e+003,1.004525e-004
2.011424e+003,1.055337e-004
2.013352e+003,1.106188e-004
2.015281e+003,1.156740e-004
2.017209e+003,1.207218e-004
2.019138e+003,1.257621e-004
2.021066e+003,1.307912e-004
2.022995e+003,1.358017e-004
2.024923e+003,1.408048e-004
2.026852e+003,1.457930e-004
2.028781e+003,1.507699e-004
2.030709e+003,1.557432e-004
2.032637e+003,1.606941e-004
2.034566e+003,1.656339e-004
2.036494e+003,1.705699e-004
2.038423e+003,1.754873e-004
2.040351e+003,1.803935e-004
2.042280e+003,1.852885e-004
2.044208e+003,1.901686e-004
2.046137e+003,1.950487e-004
2.048065e+003,1.999028e-004
2.049994e+003,2.047494e-004
2.051922e+003,2.095923e-004
2.053851e+003,2.144203e-004
2.055779e+003,2.192371e-004
2.057708e+003,2.240352e-004
2.059636e+003,2.288185e-004
2.061565e+003,2.335943e-004
2.063493e+003,2.383627e-004
2.065422e+003,2.431162e-004
2.067350e+003,2.478547e-004
2.069279e+003,2.525933e-004
2.071207e+003,2.573058e-004
2.073136e+003,2.620146e-004
2.075064e+003,2.667084e-004
2.076993e+003,2.713874e-004
2.078921e+003,2.760589e-004
2.080850e+003,2.807155e-004
2.082778e+003,2.853647e-004
2.084707e+003,2.900027e-004
2.086635e+003,2.946295e-004
2.088564e+003,2.992414e-004
2.090492e+003,3.038384e-004
2.092421e+003,3.084242e-004
2.094349e+003,3.129989e-004
2.096278e+003,3.175624e-004
2.098206e+003,3.221221e-004
2.100135e+003,3.266595e-004
2.102063e+003,3.311895e-004
2.103992e+003,3.357045e-004
2.105920e+003,3.402084e-004
2.107849e+003,3.447011e-004
2.109777e+003,3.491789e-004
2.111706e+003,3.536493e-004
2.113634e+003,3.581122e-004
2.115563e+003,3.625602e-004
2.117491e+003,3.669895e-004
2.119420e+003,3.714152e-004
2.121348e+003,3.758222e-004
2.123277e+003,3.802218e-004
2.125205e+003,3.846064e-004
2.127134e+003,3.889799e-004
2.129062e+003,3.933497e-004
2.130991e+003,3.977008e-004
2.132919e+003,4.020371e-004
2.134848e+003,4.063621e-004
2.136776e+003,4.106797e-004
2.138705e+003,4.149824e-004
2.140633e+003,4.192702e-004
2.142562e+003,4.235581e-004
2.144490e+003,4.278272e-004
2.146419e+003,4.320815e-004
2.148347e+003,4.363246e-004
2.150276e+003,4.405566e-004
2.152204e+003,4.447848e-004
2.154133e+003,4.489869e-004
2.156061e+003,4.531965e-004
2.157990e+003,4.573800e-004
2.159918e+003,4.615486e-004
2.161847e+003,4.657134e-004
2.163775e+003,4.698560e-004
2.165704e+003,4.739948e-004
2.167632e+003,4.781187e-004
2.169561e+003,4.822314e-004
2.171489e+003,4.863329e-004
2.173418e+003,4.904345e-004
2.175346e+003,4.945137e-004
2.177275e+003,4.985742e-004
2.179203e+003,5.026311e-004
2.181132e+003,5.066767e-004
2.183060e+003,5.107038e-004
2.184989e+003,5.147308e-004
2.186917e+003,5.187392e-004
2.188846e+003,5.227365e-004
2.190774e+003,5.267188e-004
2.192703e+003,5.306862e-004
2.194631e+003,5.346462e-004
2.196560e+003,5.386025e-004
2.198488e+003,5.425364e-004
2.200417e+003,5.464666e-004
2.202345e+003,5.503818e-004
2.204274e+003,5.542822e-004
2.206202e+003,5.581714e-004
2.208131e+003,5.620457e-004
2.210059e+003,5.659126e-004
2.211988e+003,5.697645e-004
2.213916e+003,5.735978e-004
2.215845e+003,5.774312e-004
2.217773e+003,5.812570e-004
2.219702e+003,5.850568e-004
2.221630e+003,5.888604e-004
2.223559e+003,5.926415e-004
2.225487e+003,5.964153e-004
2.227416e+003,6.001741e-004
2.229344e+003,6.039180e-004
2.231273e+003,6.076619e-004
2.233201e+003,6.113835e-004
2.235130e+003,6.150901e-004
2.237058e+003,6.187931e-004
2.238987e+003,6.224811e-004
2.240915e+003,6.261580e-004
2.242844e+003,6.298162e-004
2.244772e+003,6.334782e-004
2.246701e+003,6.371178e-004
2.248629e+003,6.407462e-004
2.250558e+003,6.443635e-004
2.252486e+003,6.479658e-004
2.254415e+003,6.515644e-004
2.256343e+003,6.551407e-004
2.258272e+003,6.587133e-004
2.260200e+003,6.622709e-004
2.262129e+003,6.658249e-004
2.264057e+003,6.693564e-004
2.265986e+003,6.728768e-004
2.267914e+003,6.763861e-004
2.269843e+003,6.798804e-004
2.271771e+003,6.833710e-004
2.273700e+003,6.868467e-004
2.275628e+003,6.903149e-004
2.277557e+003,6.937645e-004
2.279485e+003,6.972067e-004
2.281414e+003,7.006340e-004
2.283342e+003,7.040463e-004
2.285271e+003,7.074513e-004
2.287199e+003,7.108413e-004
2.289128e+003,7.142276e-004
2.291056e+003,7.175989e-004
2.292985e+003,7.209517e-004
2.294913e+003,7.243007e-004
2.296842e+003,7.276349e-004
2.298770e+003,7.309504e-004
2.300699e+003,7.342622e-004
2.302627e+003,7.375665e-004
2.304556e+003,7.408485e-004
2.306484e+003,7.441267e-004
2.308413e+003,7.473826e-004
2.310341e+003,7.506348e-004
2.312270e+003,7.538684e-004
2.314198e+003,7.570982e-004
2.316127e+003,7.603094e-004
2.318055e+003,7.635169e-004
2.319984e+003,7.667094e-004
2.321912e+003,7.698908e-004
2.323841e+003,7.730573e-004
2.325769e+003,7.762127e-004
2.327698e+003,7.793605e-004
2.329626e+003,7.824935e-004
2.331555e+003,7.856078e-004
2.333483e+003,7.887185e-004
2.335412e+003,7.918179e-004
2.337340e+003,7.949024e-004
2.339269e+003,7.979758e-004
2.341197e+003,8.010343e-004
2.343126e+003,8.040816e-004
2.345054e+003,8.071177e-004
2.346983e+003,8.101501e-004
2.348911e+003,8.131638e-004
2.350840e+003,8.161664e-004
2.352768e+003,8.191578e-004
2.354697e+003,8.221343e-004
2.356625e+003,8.250959e-004
2.358554e+003,8.280501e-004
2.360482e+003,8.309968e-004
2.362411e+003,8.339211e-004
2.364339e+003,8.368529e-004
2.366268e+003,8.397587e-004
2.368196e+003,8.426495e-004
2.370125e+003,8.455329e-004
2.372053e+003,8.484051e-004
2.373982e+003,8.512661e-004
2.375910e+003,8.541122e-004
2.377839e+003,8.569546e-004
2.379767e+003,8.597784e-004
2.381696e+003,8.625872e-004
2.383624e+003,8.653849e-004
2.385553e+003,8.681752e-004
2.387481e+003,8.709542e-004
2.389410e+003,8.737184e-004
2.391338e+003,8.764751e-004
2.393267e+003,8.792207e-004
2.395195e+003,8.819401e-004
2.397124e+003,8.846670e-004
2.399052e+003,8.873679e-004
2.400981e+003,1.050126e-003
2.402909e+003,1.074094e-003
2.404838e+003,1.057714e-003
2.406766e+003,1.219731e-003
2.408695e+003,1.537148e-003
2.410623e+003,1.623213e-003
2.412552e+003,1.686607e-003
2.414480e+003,1.622237e-003
2.416409e+003,1.705587e-003
2.418337e+003,1.787275e-003
2.420266e+003,1.746878e-003
2.422194e+003,1.612958e-003
2.424123e+003,1.728971e-003
2.426051e+003,1.657620e-003
2.427979e+003,1.552206e-003
2.429908e+003,1.380034e-003
2.431837e+003,1.466438e-003
2.433765e+003,1.570866e-003
2.435694e+003,1.573000e-003
2.437622e+003,1.589011e-003
2.439551e+003,1.652520e-003
2.441479e+003,1.595162e-003
2.443407e+003,1.589477e-003
2.445336e+003,1.602501e-003
2.447265e+003,1.649078e-003
2.449193e+003,1.744509e-003
2.451122e+003,1.904622e-003
2.453050e+003,1.839548e-003
2.454979e+003,1.758125e-003
2.456907e+003,1.816191e-003
2.458836e+003,1.915045e-003
2.460764e+003,1.751035e-003
2.462693e+003,1.652997e-003
2.464621e+003,1.596801e-003
2.466550e+003,1.709349e-003
2.468478e+003,1.713365e-003
2.470406e+003,1.922630e-003
2.472335e+003,2.148148e-003
2.474264e+003,2.210427e-003
2.476192e+003,2.103388e-003
2.478121e+003,2.301708e-003
2.480049e+003,2.315577e-003
2.481978e+003,2.111562e-003
2.483906e+003,2.135765e-003
2.485835e+003,2.332076e-003
2.487763e+003,2.371155e-003
2.489692e+003,2.379302e-003
2.491620e+003,2.459645e-003
2.493549e+003,2.589561e-003
2.495477e+003,2.502389e-003
2.497406e+003,2.502717e-003
2.499334e+003,2.571858e-003
2.501263e+003,2.594650e-003
2.503191e+003,2.559982e-003
2.505120e+003,2.657402e-003
2.507048e+003,2.632760e-003
2.508977e+003,2.781559e-003
2.510905e+003,2.874784e-003
2.512833e+003,2.979461e-003
2.514762e+003,2.959900e-003
2.516691e+003,3.007576e-003
2.518619e+003,3.065333e-003
2.520548e+003,3.276885e-003
2.522476e+003,3.474236e-003
2.524405e+003,3.687277e-003
2.526333e+003,3.844567e-003
2.528261e+003,4.074566e-003
2.530190e+003,4.006773e-003
2.532119e+003,3.831528e-003
2.534047e+003,3.768526e-003
2.535976e+003,3.777929e-003
2.537904e+003,3.800727e-003
2.539833e+003,3.821142e-003
2.541761e+003,3.745466e-003
2.543689e+003,3.921956e-003
2.545618e+003,4.232235e-003
2.547547e+003,4.511639e-003
2.549475e+003,4.605390e-003
2.551404e+003,4.715174e-003
2.553332e+003,4.691601e-003
2.555260e+003,4.763342e-003
2.557189e+003,4.904397e-003
2.559117e+003,5.102240e-003
2.561046e+003,5.292259e-003
2.562975e+003,5.294889e-003
2.564903e+003,5.311355e-003
2.566832e+003,5.495079e-003
2.568760e+003,5.658366e-003
2.570688e+003,5.708106e-003
2.572617e+003,5.849287e-003
2.574546e+003,6.143577e-003
2.576474e+003,6.322496e-003
2.578403e+003,6.482057e-003
2.580331e+003,6.667912e-003
2.582260e+003,6.855614e-003
2.584188e+003,7.099092e-003
2.586116e+003,7.420160e-003
2.588045e+003,7.692680e-003
2.589974e+003,7.927023e-003
2.591902e+003,8.029386e-003
2.593831e+003,8.180760e-003
2.595759e+003,8.440085e-003
2.597688e+003,8.683957e-003
2.599616e+003,8.935310e-003
2.601544e+003,9.109028e-003
2.603473e+003,9.274341e-003
2.605402e+003,9.603962e-003
2.607330e+003,9.803802e-003
2.609259e+003,1.001707e-002
2.611187e+003,1.031630e-002
2.613115e+003,1.066027e-002
2.615044e+003,1.102401e-002
2.616972e+003,1.143932e-002
2.618901e+003,1.187349e-002
2.620830e+003,1.220179e-002
2.622758e+003,1.252247e-002
2.624687e+003,1.299990e-002
2.626615e+003,1.342496e-002
2.628543e+003,1.383424e-002
2.630472e+003,1.426500e-002
2.632400e+003,1.466838e-002
2.634329e+003,1.494721e-002
2.636258e+003,1.511242e-002
2.638186e+003,1.509595e-002
2.640115e+003,1.500770e-002
2.642043e+003,1.496309e-002
2.643971e+003,1.497874e-002
2.645900e+003,1.499232e-002
2.647828e+003,1.508687e-002
2.649757e+003,1.520604e-002
2.651686e+003,1.543665e-002
2.653614e+003,1.560758e-002
2.655542e+003,1.578028e-002
2.657471e+003,1.592324e-002
2.659399e+003,1.591614e-002
2.661328e+003,1.578174e-002
2.663256e+003,1.558167e-002
2.665185e+003,1.540361e-002
2.667114e+003,1.531190e-002
2.669042e+003,1.514990e-002
2.670970e+003,1.498367e-002
2.672899e+003,1.480951e-002
2.674827e+003,1.462932e-002
2.676756e+003,1.445571e-002
2.678685e+003,1.439638e-002
2.680613e+003,1.428187e-002
2.682542e+003,1.410563e-002
2.684470e+003,1.402030e-002
2.686398e+003,1.392377e-002
2.688327e+003,1.374202e-002
2.690255e+003,1.358324e-002
2.692184e+003,1.340751e-002
2.694113e+003,1.327743e-002
2.696041e+003,1.328287e-002
2.697969e+003,1.333944e-002
2.699898e+003,1.342509e-002
2.701826e+003,1.358759e-002
2.703755e+003,1.369851e-002
2.705683e+003,1.388028e-002
2.707612e+003,1.408559e-002
2.709541e+003,1.424886e-002
2.711469e+003,1.433788e-002
2.713397e+003,1.447466e-002
2.715326e+003,1.469035e-002
2.717254e+003,1.490936e-002
2.719183e+003,1.509998e-002
2.721111e+003,1.539480e-002
2.723040e+003,1.565997e-002
2.724969e+003,1.589540e-002
2.726897e+003,1.623026e-002
2.728825e+003,1.655487e-002
2.730754e+003,1.673836e-002
2.732682e+003,1.694711e-002
2.734611e+003,1.718422e-002
2.736539e+003,1.740064e-002
2.738468e+003,1.753719e-002
2.740396e+003,1.756507e-002
2.742325e+003,1.755379e-002
2.744253e+003,1.754883e-002
2.746182e+003,1.758894e-002
2.748110e+003,1.761841e-002
2.750039e+003,1.760724e-002
2.751967e+003,1.772749e-002
2.753896e+003,1.791247e-002
2.755824e+003,1.821752e-002
2.757753e+003,1.860161e-002
2.759681e+003,1.892884e-002
2.761610e+003,1.931580e-002
2.763538e+003,1.971966e-002
2.765467e+003,2.015202e-002
2.767395e+003,2.063720e-002
2.769324e+003,2.118187e-002
2.771252e+003,2.175912e-002
2.773181e+003,2.247734e-002
2.775109e+003,2.335921e-002
2.777038e+003,2.427405e-002
2.778966e+003,2.522695e-002
2.780895e+003,2.630781e-002
2.782823e+003,2.754096e-002
2.784752e+003,2.892878e-002
2.786680e+003,3.038002e-002
2.788609e+003,3.188483e-002
2.790537e+003,3.354401e-002
2.792466e+003,3.535251e-002
2.794394e+003,3.716440e-002
2.796323e+003,3.896926e-002
2.798251e+003,4.092576e-002
2.800180e+003,4.291295e-002
2.802108e+003,4.499815e-002
2.804037e+003,4.738675e-002
2.805965e+003,4.994510e-002
2.807894e+003,5.272593e-002
2.809822e+003,5.587841e-002
2.811751e+003,5.933428e-002
2.813679e+003,6.334262e-002
2.815608e+003,6.805994e-002
2.817536e+003,7.348701e-002
2.819465e+003,7.983024e-002
2.821393e+003,8.744842e-002
2.823322e+003,9.672739e-002
2.825250e+003,1.081910e-001
2.827179e+003,1.227020e-001
2.829107e+003,1.414244e-001
2.831036e+003,1.663305e-001
2.832964e+003,2.001388e-001
2.834893e+003,2.477230e-001
2.836821e+003,3.157624e-001
2.838750e+003,4.149653e-001
2.840678e+003,5.634214e-001
2.842607e+003,7.844864e-001
2.844535e+003,1.091054e+000
2.846464e+003,1.405594e+000
2.848392e+003,1.446215e+000
2.850321e+003,1.152453e+000
2.852249e+003,8.400095e-001
2.854178e+003,6.278894e-001
2.856106e+003,4.856283e-001
2.858035e+003,3.841770e-001
2.859963e+003,3.109413e-001
2.861892e+003,2.593767e-001
2.863820e+003,2.245912e-001
2.865749e+003,2.030985e-001
2.867677e+003,1.920048e-001
2.869606e+003,1.883414e-001
2.871534e+003,1.893744e-001
2.873463e+003,1.944794e-001
2.875391e+003,2.050561e-001
2.877320e+003,2.223258e-001
2.879248e+003,2.459712e-001
2.881177e+003,2.746893e-001
2.883105e+003,3.071325e-001
2.885034e+003,3.425821e-001
2.886962e+003,3.805375e-001
2.888891e+003,4.201108e-001
2.890819e+003,4.601761e-001
2.892748e+003,5.000750e-001
2.894676e+003,5.395148e-001
2.896605e+003,5.791726e-001
2.898533e+003,6.209463e-001
2.900462e+003,6.676794e-001
2.902390e+003,7.242258e-001
2.904319e+003,7.978673e-001
2.906247e+003,8.983548e-001
2.908176e+003,1.036543e+000
2.910104e+003,1.219167e+000
2.912033e+003,1.430545e+000
2.913961e+003,1.595263e+000
2.915890e+003,1.600395e+000
2.917818e+003,1.437588e+000
2.919747e+003,1.215049e+000
2.921675e+003,1.010564e+000
2.923604e+003,8.440288e-001
2.925532e+003,7.119783e-001
2.927461e+003,6.051270e-001
2.929389e+003,5.156672e-001
2.931318e+003,4.390956e-001
2.933246e+003,3.730912e-001
2.935175e+003,3.163895e-001
2.937103e+003,2.680507e-001
2.939032e+003,2.270259e-001
2.940960e+003,1.928239e-001
2.942889e+003,1.649958e-001
2.944817e+003,1.432551e-001
2.946746e+003,1.272180e-001
2.948674e+003,1.162929e-001
2.950603e+003,1.091546e-001
2.952531e+003,1.038417e-001
2.954460e+003,9.871544e-002
2.956388e+003,9.311385e-002
2.958317e+003,8.672560e-002
2.960245e+003,7.981570e-002
2.962174e+003,7.262205e-002
2.964102e+003,6.536545e-002
2.966031e+003,5.839476e-002
2.967959e+003,5.207280e-002
2.969888e+003,4.663224e-002
2.971816e+003,4.205671e-002
2.973745e+003,3.810145e-002
2.975673e+003,3.478263e-002
2.977602e+003,3.200604e-002
2.979530e+003,2.971455e-002
2.981459e+003,2.779083e-002
2.983387e+003,2.612082e-002
2.985316e+003,2.472880e-002
2.987244e+003,2.353395e-002
2.989173e+003,2.240499e-002
2.991101e+003,2.157058e-002
2.993030e+003,2.094305e-002
2.994958e+003,2.039445e-002
2.996887e+003,1.989207e-002
2.998815e+003,1.954219e-002
3.000744e+003,1.935825e-002
3.002672e+003,1.914488e-002
3.004601e+003,1.883906e-002
3.006529e+003,1.839069e-002
3.008458e+003,1.783049e-002
3.010386e+003,1.729155e-002
3.012315e+003,1.670733e-002
3.014243e+003,1.609218e-002
3.016172e+003,1.557760e-002
3.018100e+003,1.515745e-002
3.020029e+003,1.476229e-002
3.021957e+003,1.438657e-002
3.023886e+003,1.410815e-002
3.025814e+003,1.388303e-002
3.027743e+003,1.358864e-002
3.029671e+003,1.332349e-002
3.031600e+003,1.301029e-002
3.033528e+003,1.269528e-002
3.035457e+003,1.240896e-002
3.037385e+003,1.215182e-002
3.039314e+003,1.183301e-002
3.041242e+003,1.149371e-002
3.043171e+003,1.113356e-002
3.045099e+003,1.085953e-002
3.047028e+003,1.057925e-002
3.048956e+003,1.037745e-002
3.050885e+003,1.018179e-002
3.052813e+003,1.008161e-002
3.054742e+003,9.929948e-003
3.056670e+003,9.665094e-003
3.058599e+003,9.434879e-003
3.060527e+003,9.313844e-003
3.062456e+003,9.210110e-003
3.064384e+003,9.129092e-003
3.066313e+003,9.037010e-003
3.068241e+003,8.878194e-003
3.070170e+003,8.786596e-003
3.072098e+003,8.692801e-003
3.074027e+003,8.534566e-003
3.075955e+003,8.498996e-003
3.077884e+003,8.506134e-003
3.079812e+003,8.351162e-003
3.081741e+003,8.155502e-003
3.083669e+003,8.050263e-003
3.085598e+003,7.946186e-003
3.087526e+003,7.762268e-003
3.089455e+003,7.468343e-003
3.091383e+003,7.167324e-003
3.093312e+003,6.930225e-003
3.095240e+003,6.695576e-003
3.097169e+003,6.421097e-003
3.099097e+003,6.186351e-003
3.101026e+003,6.004840e-003
3.102954e+003,5.810417e-003
3.104883e+003,5.659133e-003
3.106811e+003,5.546264e-003
3.108740e+003,5.336761e-003
3.110668e+003,5.231760e-003
3.112597e+003,5.189084e-003
3.114525e+003,5.185880e-003
3.116454e+003,5.120024e-003
3.118382e+003,5.011760e-003
3.120311e+003,4.946478e-003
3.122239e+003,4.947163e-003
3.124168e+003,4.942670e-003
3.126096e+003,4.910812e-003
3.128025e+003,4.819594e-003
3.129953e+003,4.804492e-003
3.131882e+003,4.774131e-003
3.133810e+003,4.740857e-003
3.135739e+003,4.824810e-003
3.137667e+003,4.963949e-003
3.139596e+003,4.953615e-003
3.141524e+003,4.963294e-003
3.143453e+003,4.967660e-003
3.145381e+003,4.906163e-003
3.147310e+003,4.941769e-003
3.149238e+003,5.113661e-003
3.151167e+003,5.118556e-003
3.153095e+003,5.123541e-003
3.155024e+003,5.134091e-003
3.156952e+003,5.080432e-003
3.158881e+003,5.147755e-003
3.160809e+003,5.300105e-003
3.162738e+003,5.328707e-003
3.164666e+003,5.353667e-003
3.166594e+003,5.359784e-003
3.168523e+003,5.395941e-003
3.170452e+003,5.503036e-003
3.172380e+003,5.601764e-003
3.174309e+003,5.633749e-003
3.176237e+003,5.716302e-003
3.178166e+003,5.817443e-003
3.180094e+003,5.841658e-003
3.182022e+003,5.832300e-003
3.183951e+003,5.883239e-003
3.185880e+003,6.030925e-003
3.187808e+003,6.138302e-003
3.189737e+003,6.175220e-003
3.191665e+003,6.282128e-003
3.193594e+003,6.366163e-003
3.195522e+003,6.348789e-003
3.197450e+003,6.355770e-003
3.199379e+003,6.392770e-003
3.201308e+003,6.354459e-003
3.203236e+003,6.359391e-003
3.205165e+003,6.479479e-003
3.207093e+003,6.577305e-003
3.209021e+003,6.584272e-003
3.210950e+003,6.681591e-003
3.212878e+003,6.700739e-003
3.214807e+003,6.741941e-003
3.216736e+003,6.757051e-003
3.218664e+003,6.771833e-003
3.220593e+003,6.785259e-003
3.222521e+003,6.801762e-003
3.224449e+003,6.872706e-003
3.226378e+003,7.070854e-003
3.228307e+003,7.151157e-003
3.230235e+003,7.250480e-003
3.232164e+003,7.330507e-003
3.234092e+003,7.334106e-003
3.236021e+003,7.306717e-003
3.237949e+003,7.408410e-003
3.239877e+003,7.610701e-003
3.241806e+003,7.691510e-003
3.243735e+003,7.690229e-003
3.245663e+003,7.796399e-003
3.247592e+003,7.923231e-003
3.249520e+003,7.972687e-003
3.251448e+003,8.139752e-003
3.253377e+003,8.372009e-003
3.255305e+003,8.577630e-003
3.257234e+003,8.668117e-003
3.259163e+003,8.696266e-003
3.261091e+003,8.770317e-003
3.263020e+003,8.794270e-003
3.264948e+003,8.871339e-003
3.266876e+003,9.065293e-003
3.268805e+003,9.292200e-003
3.270733e+003,9.378150e-003
3.272662e+003,9.399362e-003
3.274591e+003,9.401247e-003
3.276519e+003,9.542674e-003
3.278448e+003,9.674408e-003
3.280376e+003,9.721212e-003
3.282304e+003,9.834744e-003
3.284233e+003,9.912618e-003
3.286161e+003,9.758122e-003
3.288090e+003,9.695105e-003
3.290019e+003,9.684175e-003
3.291947e+003,9.732731e-003
3.293875e+003,9.835288e-003
3.295804e+003,9.795107e-003
3.297732e+003,9.694897e-003
3.299661e+003,9.696603e-003
3.301589e+003,9.792678e-003
3.303518e+003,9.825274e-003
3.305447e+003,9.720713e-003
3.307375e+003,9.684123e-003
3.309303e+003,9.653807e-003
3.311232e+003,9.778313e-003
3.313160e+003,9.818688e-003
3.315089e+003,9.678222e-003
3.317018e+003,9.647660e-003
3.318946e+003,9.669900e-003
3.320875e+003,9.547062e-003
3.322803e+003,9.596400e-003
3.324731e+003,9.656839e-003
3.326660e+003,9.559400e-003
3.328588e+003,9.580545e-003
3.330517e+003,9.551153e-003
3.332446e+003,9.506747e-003
3.334374e+003,9.492941e-003
3.336302e+003,9.504251e-003
3.338231e+003,9.461589e-003
3.340159e+003,9.325907e-003
3.342088e+003,9.328946e-003
3.344016e+003,9.393856e-003
3.345945e+003,9.375855e-003
3.347874e+003,9.225070e-003
3.349802e+003,9.125434e-003
3.351730e+003,9.116940e-003
3.353659e+003,9.093471e-003
3.355587e+003,9.017892e-003
3.357516e+003,9.026624e-003
3.359444e+003,8.980826e-003
3.361373e+003,8.928545e-003
3.363302e+003,8.928180e-003
3.365230e+003,8.926250e-003
3.367158e+003,8.861437e-003
3.369087e+003,8.857571e-003
3.371015e+003,8.884154e-003
3.372944e+003,8.820020e-003
3.374872e+003,8.771092e-003
3.376801e+003,8.700110e-003
3.378729e+003,8.548297e-003
3.380658e+003,8.551806e-003
3.382586e+003,8.500181e-003
3.384515e+003,8.359462e-003
3.386443e+003,8.291855e-003
3.388372e+003,8.270398e-003
3.390300e+003,8.213423e-003
3.392229e+003,8.223645e-003
3.394157e+003,8.139931e-003
3.396086e+003,8.103043e-003
3.398014e+003,8.135170e-003
3.399943e+003,8.060023e-003
3.401871e+003,7.998250e-003
3.403800e+003,7.909454e-003
3.405728e+003,7.847749e-003
3.407657e+003,7.790774e-003
3.409585e+003,7.703260e-003
3.411514e+003,7.586591e-003
3.413442e+003,7.507168e-003
3.415371e+003,7.516220e-003
3.417299e+003,7.472284e-003
3.419228e+003,7.459201e-003
3.421156e+003,7.492743e-003
3.423085e+003,7.393420e-003
3.425013e+003,7.219084e-003
3.426942e+003,7.200845e-003
3.428870e+003,7.197216e-003
3.430799e+003,7.082827e-003
3.432727e+003,7.033281e-003
3.434656e+003,7.016674e-003
3.436584e+003,6.994836e-003
3.438513e+003,6.935306e-003
3.440441e+003,6.856494e-003
3.442370e+003,6.751709e-003
3.444298e+003,6.711259e-003
3.446227e+003,6.752066e-003
3.448155e+003,6.584331e-003
3.450084e+003,6.329440e-003
3.452012e+003,6.329343e-003
3.453941e+003,6.367289e-003
3.455869e+003,6.236166e-003
3.457798e+003,6.101005e-003
3.459726e+003,6.052040e-003
3.461655e+003,5.949110e-003
3.463583e+003,5.852692e-003
3.465512e+003,5.810685e-003
3.467440e+003,5.743682e-003
3.469369e+003,5.543888e-003
3.471297e+003,5.443454e-003
3.473226e+003,5.431868e-003
3.475154e+003,5.336411e-003
3.477083e+003,5.206861e-003
3.479011e+003,5.172908e-003
3.480940e+003,5.156823e-003
3.482868e+003,5.025469e-003
3.484797e+003,4.990362e-003
3.486725e+003,5.002052e-003
3.488654e+003,4.925139e-003
3.490582e+003,4.753239e-003
3.492511e+003,4.617117e-003
3.494439e+003,4.478760e-003
3.496368e+003,4.434198e-003
3.498296e+003,4.450008e-003
3.500225e+003,4.367836e-003
3.502153e+003,4.310280e-003
3.504082e+003,4.287347e-003
3.506010e+003,4.210524e-003
3.507939e+003,4.198149e-003
3.509867e+003,4.163481e-003
3.511796e+003,3.878094e-003
3.513724e+003,3.696941e-003
3.515653e+003,3.613621e-003
3.517581e+003,3.653176e-003
3.519510e+003,3.584847e-003
3.521438e+003,3.515832e-003
3.523367e+003,3.608637e-003
3.525295e+003,3.366500e-003
3.527224e+003,3.112689e-003
3.529152e+003,3.043242e-003
3.531081e+003,2.885662e-003
3.533009e+003,2.755299e-003
3.534938e+003,2.764374e-003
3.536866e+003,2.730213e-003
3.538795e+003,2.652764e-003
3.540723e+003,2.651684e-003
3.542652e+003,2.697624e-003
3.544580e+003,2.802432e-003
3.546509e+003,2.819516e-003
3.548437e+003,2.546653e-003
3.550366e+003,2.300657e-003
3.552294e+003,2.355263e-003
3.554223e+003,2.101906e-003
3.556151e+003,1.962118e-003
3.558080e+003,1.968116e-003
3.560008e+003,2.017349e-003
3.561937e+003,1.947381e-003
3.563865e+003,1.954503e-003
3.565794e+003,2.302140e-003
3.567722e+003,2.307184e-003
3.569651e+003,1.730174e-003
3.571579e+003,1.620740e-003
3.573508e+003,1.599118e-003
3.575436e+003,1.517817e-003
3.577365e+003,1.421563e-003
3.579293e+003,1.440600e-003
3.581222e+003,1.530133e-003
3.583150e+003,1.612306e-003
3.585079e+003,1.656845e-003
3.587007e+003,1.874812e-003
3.588936e+003,1.568660e-003
3.590864e+003,1.500607e-003
3.592793e+003,1.840487e-003
3.594721e+003,2.152458e-003
3.596650e+003,2.294302e-003
3.598578e+003,2.525419e-003
3.600507e+003,2.748720e-003
3.602435e+003,3.000833e-003
3.604364e+003,3.091298e-003
3.606292e+003,3.302492e-003
3.608221e+003,3.248900e-003
3.610149e+003,2.830572e-003
3.612078e+003,2.742574e-003
3.614006e+003,2.756469e-003
3.615935e+003,2.278589e-003
3.617863e+003,2.077416e-003
3.619792e+003,1.925506e-003
3.621720e+003,1.487061e-003
3.623649e+003,1.335874e-003
3.625577e+003,1.512624e-003
3.627506e+003,1.899175e-003
3.629434e+003,2.388239e-003
3.631363e+003,1.524381e-003
3.633291e+003,1.275063e-003
3.635220e+003,1.226120e-003
3.637148e+003,1.213111e-003
3.639077e+003,1.398236e-003
3.641005e+003,1.515761e-003
3.642934e+003,1.451828e-003
3.644862e+003,1.365364e-003
3.646791e+003,1.850143e-003
3.648719e+003,2.029471e-003
3.650648e+003,1.494020e-003
3.652576e+003,8.282214e-004
3.654505e+003,4.971623e-004
3.656433e+003,7.977039e-004
3.658362e+003,3.708974e-004
3.660290e+003,7.814169e-005
3.662219e+003,-1.252443e-005
3.664147e+003,-1.044422e-004
3.666076e+003,-9.176135e-005
3.668004e+003,-5.260855e-005
3.669933e+003,5.489439e-004
3.671861e+003,2.483279e-004
3.673790e+003,-1.592785e-004
3.675718e+003,5.452931e-004
3.677647e+003,-9.047240e-005
3.679575e+003,-1.603141e-004
3.681504e+003,-2.393201e-004
3.683432e+003,-2.817214e-004
3.685361e+003,-2.040341e-004
3.687289e+003,6.153435e-005
3.689218e+003,2.290532e-004
3.691146e+003,-1.125783e-005
3.693075e+003,-3.639609e-005
3.695003e+003,-2.463907e-004
3.696932e+003,-2.074689e-004
3.698860e+003,-2.491400e-004
3.700789e+003,-1.892373e-004
3.702717e+003,-9.018183e-005
3.704646e+003,-3.435016e-004
3.706574e+003,-3.248751e-004
3.708503e+003,1.215041e-004
3.710431e+003,3.334656e-004
3.712360e+003,-1.321808e-004
3.714288e+003,-4.822090e-004
3.716217e+003,-5.430654e-004
3.718145e+003,-2.911091e-004
3.720074e+003,-1.942962e-004
3.722002e+003,4.769117e-005
3.723931e+003,-3.140420e-005
3.725859e+003,-1.706108e-004
3.727788e+003,-4.444569e-004
3.729716e+003,-5.581453e-004
3.731645e+003,1.862645e-006
3.733573e+003,1.514554e-004
3.735502e+003,1.594052e-004
3.737430e+003,-1.054704e-004
3.739359e+003,-1.542196e-004
3.741287e+003,-4.468858e-005
3.743216e+003,3.242791e-004
3.745144e+003,9.407401e-004
3.747073e+003,1.329854e-004
3.749001e+003,7.353723e-005
3.750930e+003,4.402846e-004
3.752858e+003,3.880560e-004
3.754787e+003,6.940961e-005
3.756715e+003,1.336336e-004
3.758644e+003,2.436861e-004
3.760572e+003,2.253577e-004
3.762501e+003,-1.515970e-004
3.764429e+003,4.320592e-005
3.766358e+003,1.601800e-004
3.768286e+003,-1.781434e-004
3.770215e+003,2.754480e-005
3.772143e+003,-9.075552e-005
3.774072e+003,-1.582056e-004
3.776000e+003,-1.035035e-004
3.777929e+003,-1.125485e-004
3.779857e+003,3.837794e-005
3.781786e+003,-1.586229e-004
3.783714e+003,-9.037554e-005
3.785643e+003,-1.206100e-004
3.787571e+003,-2.817437e-004
3.789500e+003,-2.255961e-004
3.791428e+003,-1.730099e-004
3.793357e+003,-9.847432e-005
3.795285e+003,5.706400e-005
3.797214e+003,9.518862e-005
3.799142e+003,-1.942813e-004
3.801071e+003,2.538115e-004
3.802999e+003,1.163781e-004
3.804927e+003,-4.859567e-004
3.806856e+003,-2.870709e-005
3.808785e+003,-4.544854e-007
3.810713e+003,-4.471093e-005
3.812642e+003,8.176267e-005
3.814570e+003,1.403168e-004
3.816499e+003,6.629080e-004
3.818427e+003,3.858209e-004
3.820355e+003,6.759018e-004
3.822284e+003,7.989481e-004
3.824213e+003,2.032816e-004
3.826141e+003,3.000423e-004
3.828070e+003,3.910959e-004
3.829998e+003,3.257543e-004
3.831927e+003,6.122366e-004
3.833855e+003,5.896911e-004
3.835783e+003,5.383641e-004
3.837712e+003,9.033531e-004
3.839641e+003,1.017466e-003
3.841569e+003,4.962832e-004
3.843498e+003,4.292428e-004
3.845426e+003,3.021806e-004
3.847354e+003,2.142489e-004
3.849283e+003,5.372837e-004
3.851211e+003,7.625446e-004
3.853140e+003,1.334466e-003
3.855069e+003,6.673485e-004
3.856997e+003,3.204346e-004
3.858926e+003,2.539605e-004
3.860854e+003,5.540773e-004
3.862782e+003,9.943768e-004
3.864711e+003,1.239881e-003
3.866640e+003,7.126853e-004
3.868568e+003,7.382706e-004
3.870497e+003,1.471430e-003
3.872425e+003,9.140149e-004
3.874354e+003,9.928048e-004
3.876282e+003,7.256866e-004
3.878210e+003,5.913153e-004
3.880139e+003,1.046434e-003
3.882068e+003,9.477288e-004
3.883996e+003,6.219223e-004
3.885925e+003,9.522513e-004
3.887853e+003,6.303713e-004
3.889781e+003,7.023066e-004
3.891710e+003,1.183279e-003
3.893638e+003,8.820817e-004
3.895567e+003,7.564574e-004
3.897496e+003,1.035020e-003
3.899424e+003,1.526944e-003
3.901353e+003,1.610011e-003
3.903281e+003,1.577109e-003
3.905209e+003,1.229174e-003
3.907138e+003,7.953644e-004
3.909066e+003,7.357299e-004
3.910995e+003,8.170381e-004
3.912924e+003,7.941276e-004
3.914852e+003,8.070245e-004
3.916781e+003,8.275285e-004
3.918709e+003,7.309020e-004
3.920637e+003,7.121712e-004
3.922566e+003,6.744936e-004
3.924494e+003,9.616986e-004
3.926423e+003,7.932782e-004
3.928352e+003,6.157383e-004
3.930280e+003,8.931980e-004
3.932208e+003,1.011714e-003
3.934137e+003,6.254688e-004
3.936065e+003,3.649071e-004
3.937994e+003,5.605221e-004
3.939922e+003,7.405207e-004
3.941851e+003,9.183586e-004
3.943780e+003,7.123500e-004
3.945708e+003,5.447790e-004
3.947636e+003,7.338747e-004
3.949565e+003,6.597489e-004
3.951493e+003,4.675537e-004
3.953422e+003,4.372075e-004
3.955351e+003,4.220158e-004
3.957279e+003,4.718751e-004
3.959208e+003,4.778504e-004
3.961136e+003,4.376769e-004
3.963064e+003,4.235432e-004
3.964993e+003,3.928021e-004
3.966921e+003,3.097802e-004
3.968850e+003,3.719926e-004
3.970779e+003,4.546940e-004
3.972707e+003,3.777221e-004
3.974635e+003,3.311709e-004
3.976564e+003,2.574176e-004
3.978492e+003,2.752095e-004
3.980421e+003,3.895685e-004
3.982349e+003,5.290061e-004
3.984278e+003,5.685464e-004
3.986207e+003,5.004779e-004
3.988135e+003,3.939942e-004
3.990063e+003,3.782883e-004
3.991992e+003,3.690496e-004
3.993920e+003,2.564415e-004
3.995849e+003,1.766384e-004
3.997777e+003,2.997369e-004
3.999706e+003,2.697110e-004
4.001635e+003,0.000000e+000
