3.991992e+002,0.000000e+000
4.011277e+002,0.000000e+000
4.030562e+002,0.000000e+000
4.049846e+002,0.000000e+000
4.069131e+002,0.000000e+000
4.088416e+002,0.000000e+000
4.107701e+002,0.000000e+000
4.126986e+002,0.000000e+000
4.146271e+002,0.000000e+000
4.165556e+002,0.000000e+000
4.184841e+002,0.000000e+000
4.204126e+002,0.000000e+000
4.223411e+002,0.000000e+000
4.242697e+002,0.000000e+000
4.261982e+002,0.000000e+000
4.281266e+002,0.000000e+000
4.300551e+002,0.000000e+000
4.319836e+002,0.000000e+000
4.339121e+002,0.000000e+000
4.358406e+002,0.000000e+000
4.377691e+002,0.000000e+000
4.396976e+002,0.000000e+000
4.416261e+002,0.000000e+000
4.435546e+002,0.000000e+000
4.454831e+002,0.000000e+000
4.474116e+002,0.000000e+000
4.493401e+002,0.000000e+000
4.512686e+002,0.000000e+000
4.531971e+002,0.000000e+000
4.551256e+002,0.000000e+000
4.570541e+002,0.000000e+000
4.589826e+002,0.000000e+000
4.609111e+002,0.000000e+000
4.628396e+002,0.000000e+000
4.647681e+002,0.000000e+000
4.666966e+002,0.000000e+000
4.686251e+002,0.000000e+000
4.705536e+002,0.000000e+000
4.724821e+002,0.000000e+000
4.744106e+002,0.000000e+000
4.763391e+002,0.000000e+000
4.782676e+002,0.000000e+000
4.801961e+002,0.000000e+000
4.821246e+002,0.000000e+000
4.840531e+002,0.000000e+000
4.859816e+002,0.000000e+000
4.879101e+002,0.000000e+000
4.898386e+002,0.000000e+000
4.917671e+002,0.000000e+000
4.936956e+002,0.000000e+000
4.956241e+002,0.000000e+000
4.975526e+002,0.000000e+000
4.994811e+002,0.000000e+000
5.014096e+002,0.000000e+000
5.033381e+002,0.000000e+000
5.052666e+002,0.000000e+000
5.071951e+002,0.000000e+000
5.091236e+002,0.000000e+000
5.110521e+002,0.000000e+000
5.129806e+002,0.000000e+000
5.149091e+002,0.000000e+000
5.168376e+002,0.000000e+000
5.187661e+002,0.000000e+000
5.206946e+002,0.000000e+000
5.226230e+002,0.000000e+000
5.245516e+002,1.260603e-004
5.264800e+002,-3.094506e-005
5.284086e+002,-4.805368e-005
5.303370e+002,-1.550897e-004
5.322656e+002,-1.647397e-004
5.341940e+002,-1.323954e-004
5.361226e+002,-4.390022e-005
5.380510e+002,-4.853378e-005
5.399796e+002,-6.152899e-005
5.419081e+002,-1.771841e-004
5.438365e+002,-1.003447e-004
5.457650e+002,1.228733e-004
5.476935e+002,7.865904e-005
5.496221e+002,-1.100793e-004
5.515505e+002,-6.481796e-005
5.534790e+002,9.613135e-005
5.554075e+002,1.636681e-004
5.573361e+002,4.541595e-005
5.592645e+002,-8.008908e-006
5.611931e+002,2.968125e-006
5.631215e+002,2.129772e-005
5.650500e+002,-6.910646e-006
5.669785e+002,8.916366e-005
5.689070e+002,3.306381e-005
5.708355e+002,-9.695627e-005
5.727640e+002,-1.308826e-004
5.746925e+002,-6.122608e-005
5.766210e+002,-1.273055e-004
5.785495e+002,-2.364403e-004
5.804780e+002,-2.912435e-004
5.824065e+002,-3.223234e-004
5.843350e+002,-1.685106e-004
5.862635e+002,-8.501753e-005
5.881920e+002,-2.263471e-004
5.901205e+002,-2.088661e-004
5.920490e+002,-2.064267e-004
5.939775e+002,-2.152724e-004
5.959060e+002,-3.069089e-004
5.978345e+002,-2.565980e-004
5.997630e+002,-1.351356e-004
6.016915e+002,-8.790474e-005
6.036200e+002,-1.335208e-004
6.055485e+002,-8.276198e-005
6.074770e+002,-1.057630e-004
6.094055e+002,-1.901735e-004
6.113340e+002,-2.114534e-004
6.132625e+002,-2.090225e-004
6.151910e+002,-2.495083e-004
6.171195e+002,-1.722182e-004
6.190480e+002,-9.822741e-005
6.209765e+002,-8.126639e-005
6.229050e+002,-1.204857e-004
6.248335e+002,3.781926e-005
6.267620e+002,1.011710e-004
6.286905e+002,1.470826e-004
6.306190e+002,1.537648e-004
6.325475e+002,1.705351e-004
6.344760e+002,1.754836e-004
6.364045e+002,2.555450e-004
6.383330e+002,2.414461e-004
6.402615e+002,3.053546e-004
6.421899e+002,3.388794e-004
6.441185e+002,4.022749e-004
6.460470e+002,3.925104e-004
6.479755e+002,4.680973e-004
6.499039e+002,5.525952e-004
6.518325e+002,5.347468e-004
6.537610e+002,4.561191e-004
6.556895e+002,4.477205e-004
6.576179e+002,4.823037e-004
6.595464e+002,5.654173e-004
6.614750e+002,5.920932e-004
6.634034e+002,6.529778e-004
6.653319e+002,7.363352e-004
6.672604e+002,8.977819e-004
6.691890e+002,7.912980e-004
6.711174e+002,7.561151e-004
6.730460e+002,8.191926e-004
6.749745e+002,1.026799e-003
6.769030e+002,1.121095e-003
6.788314e+002,1.196044e-003
6.807599e+002,1.340111e-003
6.826885e+002,1.545440e-003
6.846169e+002,1.698520e-003
6.865454e+002,1.883034e-003
6.884739e+002,2.031286e-003
6.904025e+002,2.343172e-003
6.923309e+002,2.637322e-003
6.942594e+002,3.017835e-003
6.961879e+002,3.520474e-003
6.981165e+002,4.322795e-003
7.000449e+002,5.263332e-003
7.019734e+002,6.519199e-003
7.039019e+002,8.139956e-003
7.058304e+002,1.045127e-002
7.077589e+002,1.359714e-002
7.096874e+002,1.847607e-002
7.116159e+002,2.639106e-002
7.135444e+002,4.142393e-002
7.154729e+002,6.789896e-002
7.174014e+002,1.025112e-001
7.193299e+002,1.156356e-001
7.212584e+002,8.567864e-002
7.231869e+002,5.633487e-002
7.251154e+002,4.566344e-002
7.270439e+002,4.929762e-002
7.289724e+002,6.391577e-002
7.309009e+002,6.112529e-002
7.328294e+002,3.514254e-002
7.347579e+002,1.764135e-002
7.366864e+002,1.145741e-002
7.386149e+002,8.973468e-003
7.405434e+002,7.457443e-003
7.424719e+002,6.567572e-003
7.444004e+002,5.863478e-003
7.463289e+002,5.343462e-003
7.482574e+002,4.909211e-003
7.501859e+002,4.540643e-003
7.521144e+002,4.216434e-003
7.540428e+002,3.919465e-003
7.559714e+002,3.610130e-003
7.578999e+002,3.439691e-003
7.598284e+002,3.234689e-003
7.617568e+002,3.047603e-003
7.636854e+002,2.866201e-003
7.656139e+002,2.776622e-003
7.675424e+002,2.631096e-003
7.694709e+002,2.449804e-003
7.713994e+002,2.385733e-003
7.733279e+002,2.341721e-003
7.752563e+002,2.241545e-003
7.771849e+002,2.159513e-003
7.791134e+002,2.092329e-003
7.810419e+002,2.098007e-003
7.829703e+002,2.149217e-003
7.848989e+002,2.166870e-003
7.868274e+002,2.158650e-003
7.887559e+002,2.121835e-003
7.906843e+002,2.068333e-003
7.926129e+002,2.002517e-003
7.945414e+002,1.927901e-003
7.964698e+002,1.878902e-003
7.983983e+002,1.915409e-003
8.003268e+002,1.933409e-003
8.022554e+002,1.879107e-003
8.041838e+002,1.853131e-003
8.061123e+002,1.819557e-003
8.080408e+002,1.746890e-003
8.099694e+002,1.664162e-003
8.118978e+002,1.612585e-003
8.138263e+002,1.575929e-003
8.157548e+002,1.504876e-003
8.176833e+002,1.441758e-003
8.196118e+002,1.400052e-003
8.215403e+002,1.359477e-003
8.234689e+002,1.365108e-003
8.253973e+002,1.396533e-003
8.273258e+002,1.321981e-003
8.292543e+002,1.267712e-003
8.311829e+002,1.277143e-003
8.331113e+002,1.262024e-003
8.350398e+002,1.205707e-003
8.369683e+002,1.227797e-003
8.388969e+002,1.311082e-003
8.408253e+002,1.394828e-003
8.427538e+002,1.413706e-003
8.446823e+002,1.386252e-003
8.466108e+002,1.348700e-003
8.485393e+002,1.389137e-003
8.504678e+002,1.333740e-003
8.523963e+002,1.253460e-003
8.543248e+002,1.281588e-003
8.562533e+002,1.347806e-003
8.581818e+002,1.367384e-003
8.601103e+002,1.367152e-003
8.620388e+002,1.359241e-003
8.639673e+002,1.391242e-003
8.658958e+002,1.348784e-003
8.678243e+002,1.342233e-003
8.697528e+002,1.359135e-003
8.716813e+002,1.444950e-003
8.736098e+002,1.479835e-003
8.755383e+002,1.548791e-003
8.774668e+002,1.616782e-003
8.793953e+002,1.624523e-003
8.813238e+002,1.625210e-003
8.832523e+002,1.691735e-003
8.851808e+002,1.744722e-003
8.871093e+002,1.831678e-003
8.890378e+002,1.847489e-003
8.909663e+002,1.838836e-003
8.928948e+002,1.789118e-003
8.948232e+002,1.734600e-003
8.967518e+002,1.644993e-003
8.986803e+002,1.669605e-003
9.006088e+002,1.727202e-003
9.025372e+002,1.919588e-003
9.044658e+002,2.206119e-003
9.063943e+002,2.636126e-003
9.083228e+002,2.872500e-003
9.102512e+002,2.656670e-003
9.121797e+002,2.229372e-003
9.141083e+002,1.827063e-003
9.160367e+002,1.569585e-003
9.179653e+002,1.496311e-003
9.198937e+002,1.433389e-003
9.218223e+002,1.446060e-003
9.237507e+002,1.413532e-003
9.256793e+002,1.375856e-003
9.276077e+002,1.342198e-003
9.295363e+002,1.340810e-003
9.314647e+002,1.323275e-003
9.333932e+002,1.344783e-003
9.353217e+002,1.355852e-003
9.372502e+002,1.396863e-003
9.391787e+002,1.381861e-003
9.411072e+002,1.367452e-003
9.430358e+002,1.344949e-003
9.449642e+002,1.319419e-003
9.468928e+002,1.267681e-003
9.488212e+002,1.327892e-003
9.507498e+002,1.344596e-003
9.526782e+002,1.328905e-003
9.546068e+002,1.395137e-003
9.565352e+002,1.528910e-003
9.584637e+002,1.564756e-003
9.603922e+002,1.621230e-003
9.623207e+002,1.694800e-003
9.642492e+002,1.776235e-003
9.661777e+002,1.789873e-003
9.681062e+002,1.788165e-003
9.700347e+002,1.791400e-003
9.719632e+002,1.832915e-003
9.738917e+002,1.834900e-003
9.758202e+002,1.814952e-003
9.777487e+002,1.740423e-003
9.796772e+002,1.756152e-003
9.816057e+002,1.809273e-003
9.835342e+002,1.847295e-003
9.854627e+002,1.900339e-003
9.873912e+002,2.068358e-003
9.893197e+002,2.225314e-003
9.912482e+002,2.279458e-003
9.931767e+002,2.248311e-003
9.951052e+002,2.283098e-003
9.970337e+002,2.264251e-003
9.989622e+002,2.205360e-003
1.000891e+003,2.183200e-003
1.002819e+003,2.210317e-003
1.004748e+003,2.235516e-003
1.006676e+003,2.314677e-003
1.008605e+003,2.339015e-003
1.010533e+003,2.423204e-003
1.012462e+003,2.474169e-003
1.014390e+003,2.569289e-003
1.016319e+003,2.644894e-003
1.018247e+003,2.719899e-003
1.020176e+003,2.749284e-003
1.022104e+003,2.787900e-003
1.024033e+003,2.811647e-003
1.025961e+003,2.842511e-003
1.027890e+003,2.839777e-003
1.029818e+003,2.896192e-003
1.031747e+003,2.916936e-003
1.033675e+003,2.977743e-003
1.035604e+003,3.025566e-003
1.037532e+003,3.072067e-003
1.039461e+003,3.092012e-003
1.041389e+003,3.148870e-003
1.043318e+003,3.192731e-003
1.045246e+003,3.270383e-003
1.047175e+003,3.383887e-003
1.049103e+003,3.596422e-003
1.051032e+003,3.700671e-003
1.052960e+003,3.699463e-003
1.054889e+003,3.604420e-003
1.056817e+003,3.620327e-003
1.058746e+003,3.722392e-003
1.060674e+003,3.901325e-003
1.062603e+003,3.975335e-003
1.064531e+003,4.029870e-003
1.066460e+003,4.004124e-003
1.068388e+003,4.001490e-003
1.070317e+003,4.051520e-003
1.072245e+003,4.235910e-003
1.074174e+003,4.418493e-003
1.076102e+003,4.608860e-003
1.078031e+003,4.665160e-003
1.079959e+003,4.702392e-003
1.081888e+003,4.677116e-003
1.083816e+003,4.665056e-003
1.085745e+003,4.559055e-003
1.087673e+003,4.503865e-003
1.089602e+003,4.443686e-003
1.091530e+003,4.387469e-003
1.093459e+003,4.259050e-003
1.095387e+003,4.231884e-003
1.097316e+003,4.176796e-003
1.099244e+003,4.181002e-003
1.101173e+003,4.061864e-003
1.103101e+003,3.989585e-003
1.105030e+003,3.884176e-003
1.106958e+003,3.813427e-003
1.108887e+003,3.748087e-003
1.110815e+003,3.760401e-003
1.112744e+003,3.720716e-003
1.114672e+003,3.674958e-003
1.116601e+003,3.628781e-003
1.118529e+003,3.648108e-003
1.120458e+003,3.620443e-003
1.122386e+003,3.616285e-003
1.124315e+003,3.596523e-003
1.126243e+003,3.656792e-003
1.128172e+003,3.649452e-003
1.130100e+003,3.680230e-003
1.132029e+003,3.691435e-003
1.133957e+003,3.746805e-003
1.135885e+003,3.731872e-003
1.137814e+003,3.741462e-003
1.139743e+003,3.766350e-003
1.141671e+003,3.822217e-003
1.143600e+003,3.832575e-003
1.145528e+003,3.966490e-003
1.147457e+003,4.101228e-003
1.149385e+003,4.333969e-003
1.151314e+003,4.519281e-003
1.153242e+003,4.718387e-003
1.155171e+003,4.833056e-003
1.157099e+003,4.961714e-003
1.159028e+003,5.030085e-003
1.160956e+003,5.109090e-003
1.162885e+003,5.092978e-003
1.164813e+003,5.059286e-003
1.166742e+003,4.987028e-003
1.168670e+003,4.893201e-003
1.170599e+003,4.678332e-003
1.172527e+003,4.580361e-003
1.174456e+003,4.539225e-003
1.176384e+003,4.510261e-003
1.178313e+003,4.316142e-003
1.180241e+003,4.131313e-003
1.182170e+003,4.013577e-003
1.184098e+003,4.029443e-003
1.186027e+003,4.021288e-003
1.187955e+003,4.040800e-003
1.189884e+003,4.017097e-003
1.191812e+003,4.093990e-003
1.193740e+003,4.145951e-003
1.195669e+003,4.257530e-003
1.197598e+003,4.347781e-003
1.199526e+003,4.467039e-003
1.201455e+003,4.564755e-003
1.203383e+003,4.727281e-003
1.205312e+003,4.837896e-003
1.207240e+003,5.060145e-003
1.209168e+003,5.195605e-003
1.211097e+003,5.334171e-003
1.213026e+003,5.414109e-003
1.214954e+003,5.538245e-003
1.216883e+003,5.627811e-003
1.218811e+003,5.771181e-003
1.220740e+003,5.888700e-003
1.222668e+003,6.083002e-003
1.224596e+003,6.217987e-003
1.226525e+003,6.313699e-003
1.228453e+003,6.362168e-003
1.230382e+003,6.524092e-003
1.232311e+003,6.628018e-003
1.234239e+003,6.716286e-003
1.236167e+003,6.734782e-003
1.238096e+003,6.778160e-003
1.240025e+003,6.779979e-003
1.241953e+003,6.788319e-003
1.243882e+003,6.733686e-003
1.245810e+003,6.714467e-003
1.247739e+003,6.645069e-003
1.249667e+003,6.642000e-003
1.251595e+003,6.581035e-003
1.253524e+003,6.563432e-003
1.255453e+003,6.509548e-003
1.257381e+003,6.500866e-003
1.259310e+003,6.455699e-003
1.261238e+003,6.455894e-003
1.263167e+003,6.356377e-003
1.265095e+003,6.304410e-003
1.267023e+003,6.187271e-003
1.268952e+003,6.191147e-003
1.270880e+003,6.181624e-003
1.272809e+003,6.202992e-003
1.274738e+003,6.210245e-003
1.276666e+003,6.319799e-003
1.278594e+003,6.373488e-003
1.280523e+003,6.486916e-003
1.282451e+003,6.557111e-003
1.284380e+003,6.776617e-003
1.286308e+003,6.966827e-003
1.288237e+003,7.248974e-003
1.290166e+003,7.486739e-003
1.292094e+003,7.850932e-003
1.294022e+003,8.228951e-003
1.295951e+003,8.682663e-003
1.297879e+003,9.006809e-003
1.299808e+003,9.332919e-003
1.301736e+003,9.451029e-003
1.303665e+003,9.514388e-003
1.305594e+003,9.418063e-003
1.307522e+003,9.312322e-003
1.309450e+003,9.052605e-003
1.311379e+003,8.762952e-003
1.313307e+003,8.331293e-003
1.315236e+003,7.958082e-003
1.317164e+003,7.569354e-003
1.319093e+003,7.172133e-003
1.321021e+003,6.605962e-003
1.322950e+003,6.275038e-003
1.324878e+003,6.019461e-003
1.326807e+003,5.895925e-003
1.328735e+003,5.815545e-003
1.330664e+003,5.928196e-003
1.332592e+003,6.112649e-003
1.334521e+003,6.578003e-003
1.336449e+003,7.177895e-003
1.338378e+003,8.133778e-003
1.340306e+003,8.800608e-003
1.342235e+003,9.087707e-003
1.344163e+003,9.422413e-003
1.346092e+003,1.005983e-002
1.348021e+003,1.075913e-002
1.349949e+003,1.150756e-002
1.351877e+003,1.181015e-002
1.353806e+003,1.189471e-002
1.355734e+003,1.170581e-002
1.357663e+003,1.176980e-002
1.359591e+003,1.211059e-002
1.361520e+003,1.301324e-002
1.363448e+003,1.411546e-002
1.365377e+003,1.508329e-002
1.367305e+003,1.584237e-002
1.369234e+003,1.595484e-002
1.371162e+003,1.501458e-002
1.373091e+003,1.421862e-002
1.375019e+003,1.410503e-002
1.376948e+003,1.401717e-002
1.378876e+003,1.216759e-002
1.380805e+003,9.313002e-003
1.382733e+003,7.158866e-003
1.384662e+003,6.246132e-003
1.386590e+003,5.829044e-003
1.388519e+003,5.556309e-003
1.390447e+003,5.154910e-003
1.392376e+003,5.201663e-003
1.394304e+003,5.281596e-003
1.396233e+003,5.437970e-003
1.398161e+003,5.257841e-003
1.400090e+003,5.349072e-003
1.402018e+003,5.142970e-003
1.403947e+003,5.452871e-003
1.405875e+003,5.417567e-003
1.407804e+003,5.495483e-003
1.409732e+003,5.592777e-003
1.411661e+003,5.992543e-003
1.413589e+003,6.047910e-003
1.415518e+003,6.529595e-003
1.417446e+003,6.890801e-003
1.419375e+003,7.799868e-003
1.421303e+003,7.962254e-003
1.423232e+003,9.018512e-003
1.425160e+003,1.045033e-002
1.427089e+003,1.229143e-002
1.429017e+003,1.474989e-002
1.430946e+003,1.838652e-002
1.432874e+003,2.127501e-002
1.434803e+003,2.411675e-002
1.436731e+003,2.713519e-002
1.438660e+003,2.956313e-002
1.440588e+003,3.084113e-002
1.442517e+003,3.288497e-002
1.444445e+003,3.444158e-002
1.446374e+003,3.689428e-002
1.448302e+003,4.031505e-002
1.450231e+003,4.560067e-002
1.452159e+003,5.365157e-002
1.454088e+003,6.430557e-002
1.456016e+003,7.524263e-002
1.457945e+003,1.017982e-001
1.459873e+003,1.483152e-001
1.461802e+003,1.945379e-001
1.463730e+003,1.937066e-001
1.465659e+003,1.499486e-001
1.467587e+003,1.371936e-001
1.469516e+003,1.357450e-001
1.471444e+003,1.535306e-001
1.473373e+003,1.335611e-001
1.475301e+003,7.191852e-002
1.477230e+003,3.170104e-002
1.479158e+003,2.010747e-002
1.481087e+003,1.470495e-002
1.483015e+003,1.220544e-002
1.484944e+003,1.022303e-002
1.486872e+003,9.917779e-003
1.488801e+003,8.716164e-003
1.490729e+003,8.249657e-003
1.492658e+003,6.915886e-003
1.494586e+003,7.018053e-003
1.496515e+003,6.504107e-003
1.498443e+003,6.457140e-003
1.500372e+003,5.620042e-003
1.502300e+003,5.554816e-003
1.504229e+003,5.131895e-003
1.506157e+003,6.500818e-003
1.508086e+003,5.881831e-003
1.510014e+003,5.389682e-003
1.511943e+003,4.688872e-003
1.513871e+003,4.810428e-003
1.515800e+003,4.753212e-003
1.517728e+003,5.111717e-003
1.519657e+003,4.630807e-003
1.521585e+003,5.335974e-003
1.523514e+003,4.490890e-003
1.525442e+003,4.651406e-003
1.527371e+003,4.295749e-003
1.529299e+003,4.150734e-003
1.531228e+003,3.922307e-003
1.533156e+003,4.423052e-003
1.535085e+003,4.025840e-003
1.537013e+003,4.120492e-003
1.538942e+003,4.639712e-003
1.540870e+003,5.676005e-003
1.542799e+003,4.602972e-003
1.544727e+003,4.357288e-003
1.546656e+003,3.587869e-003
1.548584e+003,3.628378e-003
1.550513e+003,3.598950e-003
1.552441e+003,3.546771e-003
1.554370e+003,3.644888e-003
1.556298e+003,3.973288e-003
1.558227e+003,4.108754e-003
1.560155e+003,4.105887e-003
1.562084e+003,3.232105e-003
1.564012e+003,3.255993e-003
1.565941e+003,3.175691e-003
1.567869e+003,3.316763e-003
1.569798e+003,3.496718e-003
1.571726e+003,3.316730e-003
1.573655e+003,3.126246e-003
1.575583e+003,3.633227e-003
1.577512e+003,3.487309e-003
1.579440e+003,3.168223e-003
1.581369e+003,3.003396e-003
1.583297e+003,3.085581e-003
1.585226e+003,3.014910e-003
1.587154e+003,3.073702e-003
1.589083e+003,3.017868e-003
1.591011e+003,3.104484e-003
1.592940e+003,3.018426e-003
1.594868e+003,3.079775e-003
1.596797e+003,2.960573e-003
1.598725e+003,2.961573e-003
1.600654e+003,2.914975e-003
1.602582e+003,3.024161e-003
1.604511e+003,2.912551e-003
1.606439e+003,2.943757e-003
1.608368e+003,2.929736e-003
1.610296e+003,2.934141e-003
1.612225e+003,2.814947e-003
1.614153e+003,2.974649e-003
1.616082e+003,3.244292e-003
1.618010e+003,3.313128e-003
1.619939e+003,3.051291e-003
1.621867e+003,3.358073e-003
1.623796e+003,3.552262e-003
1.625724e+003,3.360664e-003
1.627653e+003,3.288917e-003
1.629581e+003,3.301999e-003
1.631510e+003,3.158272e-003
1.633438e+003,3.384741e-003
1.635367e+003,3.902208e-003
1.637295e+003,3.927222e-003
1.639224e+003,3.391506e-003
1.641152e+003,3.394281e-003
1.643081e+003,3.358268e-003
1.645009e+003,3.631016e-003
1.646938e+003,4.057117e-003
1.648866e+003,3.663124e-003
1.650795e+003,3.249677e-003
1.652723e+003,4.252187e-003
1.654652e+003,3.725625e-003
1.656580e+003,2.975458e-003
1.658509e+003,2.650248e-003
1.660437e+003,2.725930e-003
1.662366e+003,2.867206e-003
1.664294e+003,2.754066e-003
1.666223e+003,2.527611e-003
1.668151e+003,2.961768e-003
1.670080e+003,3.033854e-003
1.672008e+003,2.721483e-003
1.673937e+003,2.463812e-003
1.675865e+003,2.594199e-003
1.677794e+003,2.262828e-003
1.679722e+003,2.532253e-003
1.681651e+003,2.633638e-003
1.683579e+003,3.154324e-003
1.685508e+003,2.627220e-003
1.687436e+003,2.189974e-003
1.689365e+003,1.997539e-003
1.691293e+003,1.882779e-003
1.693222e+003,1.756372e-003
1.695150e+003,2.317383e-003
1.697079e+003,2.626372e-003
1.699007e+003,2.474266e-003
1.700936e+003,2.247460e-003
1.702864e+003,1.944917e-003
1.704793e+003,1.916826e-003
1.706721e+003,1.886100e-003
1.708650e+003,1.480517e-003
1.710578e+003,1.602073e-003
1.712507e+003,1.730470e-003
1.714435e+003,2.323786e-003
1.716364e+003,2.666072e-003
1.718292e+003,2.601092e-003
1.720221e+003,1.847186e-003
1.722149e+003,1.678644e-003
1.724078e+003,1.663762e-003
1.726006e+003,1.708550e-003
1.727935e+003,1.830197e-003
1.729863e+003,2.255168e-003
1.731792e+003,2.298281e-003
1.733720e+003,2.736174e-003
1.735649e+003,2.246919e-003
1.737577e+003,1.932060e-003
1.739506e+003,2.085039e-003
1.741434e+003,2.150116e-003
1.743363e+003,2.167577e-003
1.745291e+003,2.172851e-003
1.747220e+003,2.157690e-003
1.749148e+003,2.240923e-003
1.751077e+003,1.835919e-003
1.753005e+003,1.350229e-003
1.754934e+003,9.838538e-004
1.756862e+003,1.055462e-003
1.758791e+003,8.326760e-004
1.760719e+003,8.617190e-004
1.762648e+003,6.743164e-004
1.764576e+003,3.163675e-004
1.766505e+003,2.983876e-004
1.768433e+003,6.362300e-004
1.770362e+003,6.621578e-004
1.772290e+003,9.153166e-004
1.774219e+003,4.656126e-004
1.776147e+003,3.641602e-004
1.778076e+003,3.305753e-004
1.780004e+003,5.864592e-004
1.781933e+003,4.222647e-004
1.783861e+003,3.230218e-004
1.785790e+003,2.774608e-004
1.787718e+003,2.777860e-004
1.789646e+003,3.375900e-004
1.791575e+003,7.662696e-004
1.793504e+003,6.230553e-004
1.795432e+003,5.073063e-004
1.797361e+003,4.428832e-004
1.799289e+003,4.950215e-004
1.801218e+003,4.167778e-004
1.803146e+003,3.576654e-004
1.805074e+003,1.676332e-004
1.807003e+003,2.138827e-004
1.808932e+003,1.713056e-004
1.810860e+003,2.370225e-004
1.812789e+003,-5.135266e-005
1.814717e+003,-3.219219e-004
1.816646e+003,-4.988825e-004
1.818574e+003,-3.067899e-004
1.820502e+003,-2.997845e-004
1.822431e+003,-5.096965e-005
1.824360e+003,5.681696e-005
1.826288e+003,-5.248166e-005
1.828217e+003,-2.200636e-004
1.830145e+003,1.683736e-004
1.832073e+003,-3.511123e-004
1.834002e+003,-4.670026e-004
1.835931e+003,-5.430143e-004
1.837859e+003,-5.349725e-004
1.839788e+003,-7.042498e-004
1.841716e+003,-4.765961e-004
1.843645e+003,-2.904769e-004
1.845573e+003,-2.415136e-004
1.847501e+003,-4.036736e-004
1.849430e+003,-5.095864e-004
1.851359e+003,-7.187309e-004
1.853287e+003,-5.836692e-004
1.855216e+003,-6.620102e-004
1.857144e+003,-4.116491e-004
1.859073e+003,-4.161624e-004
1.861001e+003,-5.229748e-004
1.862929e+003,-7.336625e-004
1.864858e+003,-4.242855e-004
1.866787e+003,-2.312437e-004
1.868715e+003,1.162419e-004
1.870644e+003,-3.385751e-004
1.872572e+003,-4.811572e-004
1.874500e+003,-6.220236e-004
1.876429e+003,-5.689691e-004
1.878357e+003,-6.358125e-004
1.880286e+003,-6.411130e-004
1.882215e+003,-8.683840e-004
1.884143e+003,-6.007779e-004
1.886072e+003,-5.327999e-004
1.888000e+003,-3.361965e-004
1.889928e+003,-3.452655e-004
1.891857e+003,-1.345202e-004
1.893785e+003,-2.145753e-004
1.895714e+003,-7.171673e-005
1.897643e+003,-4.104052e-004
1.899571e+003,-3.020177e-004
1.901500e+003,-2.985676e-004
1.903428e+003,-2.951273e-004
1.905356e+003,-2.916988e-004
1.907285e+003,-2.882804e-004
1.909213e+003,-2.848732e-004
1.911142e+003,-2.814757e-004
1.913071e+003,-2.780894e-004
1.914999e+003,-2.747141e-004
1.916927e+003,-2.713492e-004
1.918856e+003,-2.679951e-004
1.920784e+003,-2.646516e-004
1.922713e+003,-2.613191e-004
1.924641e+003,-2.579971e-004
1.926570e+003,-2.546855e-004
1.928499e+003,-2.513849e-004
1.930427e+003,-2.480950e-004
1.932355e+003,-2.448161e-004
1.934284e+003,-2.415469e-004
1.936212e+003,-2.382894e-004
1.938141e+003,-2.350423e-004
1.940070e+003,-2.318057e-004
1.941998e+003,-2.285799e-004
1.943927e+003,-2.253654e-004
1.945855e+003,-2.221607e-004
1.947783e+003,-2.189665e-004
1.949712e+003,-2.157839e-004
1.951640e+003,-2.126114e-004
1.953569e+003,-2.094503e-004
1.955498e+003,-2.062989e-004
1.957426e+003,-2.031592e-004
1.959354e+003,-2.000299e-004
1.961283e+003,-1.969107e-004
1.963211e+003,-1.938024e-004
1.965140e+003,-1.907051e-004
1.967068e+003,-1.876187e-004
1.968997e+003,-1.845427e-004
1.970926e+003,-1.814773e-004
1.972854e+003,-1.784225e-004
1.974782e+003,-1.753792e-004
1.976711e+003,-1.723459e-004
1.978639e+003,-1.693226e-004
1.980568e+003,-1.663114e-004
1.982496e+003,-1.633102e-004
1.984425e+003,-1.603197e-004
1.986354e+003,-1.573397e-004
1.988282e+003,-1.543711e-004
1.990210e+003,-1.514128e-004
1.992139e+003,-1.484647e-004
1.994067e+003,-1.455280e-004
1.995996e+003,-1.426018e-004
1.997924e+003,-1.396867e-004
1.999853e+003,-1.367813e-004
2.001781e+003,-1.338874e-004
2.003710e+003,-1.310040e-004
2.005638e+003,-1.281318e-004
2.007567e+003,-1.252689e-004
2.009495e+003,-1.224175e-004
2.011424e+003,-1.195772e-004
2.013352e+003,-1.167469e-004
2.015281e+003,-1.139280e-004
2.017209e+003,-1.111194e-004
2.019138e+003,-1.083219e-004
2.021066e+003,-1.055340e-004
2.022995e+003,-1.027575e-004
2.024923e+003,-9.999238e-005
2.026852e+003,-9.723706e-005
2.028781e+003,-9.449269e-005
2.030709e+003,-9.175879e-005
2.032637e+003,-8.903653e-005
2.034566e+003,-8.632382e-005
2.036494e+003,-8.362229e-005
2.038423e+003,-8.093123e-005
2.040351e+003,-7.825089e-005
2.042280e+003,-7.558148e-005
2.044208e+003,-7.292279e-005
2.046137e+003,-7.027481e-005
2.048065e+003,-6.763730e-005
2.049994e+003,-6.501097e-005
2.051922e+003,-6.239535e-005
2.053851e+003,-5.978905e-005
2.055779e+003,-5.719438e-005
2.057708e+003,-5.461043e-005
2.059636e+003,-5.203788e-005
2.061565e+003,-4.947511e-005
2.063493e+003,-4.692352e-005
2.065422e+003,-4.438241e-005
2.067350e+003,-4.185271e-005
2.069279e+003,-3.933161e-005
2.071207e+003,-3.682263e-005
2.073136e+003,-3.432459e-005
2.075064e+003,-3.183703e-005
2.076993e+003,-2.936041e-005
2.078921e+003,-2.689403e-005
2.080850e+003,-2.443907e-005
2.082778e+003,-2.199411e-005
2.084707e+003,-1.955917e-005
2.086635e+003,-1.713587e-005
2.088564e+003,-1.472281e-005
2.090492e+003,-1.232116e-005
2.092421e+003,-9.929761e-006
2.094349e+003,-7.549766e-006
2.096278e+003,-5.179783e-006
2.098206e+003,-2.820045e-006
2.100135e+003,-4.710164e-007
2.102063e+003,1.866603e-006
2.103992e+003,4.193746e-006
2.105920e+003,6.509945e-006
2.107849e+003,8.815667e-006
2.109777e+003,1.111045e-005
2.111706e+003,1.339475e-005
2.113634e+003,1.566927e-005
2.115563e+003,1.793192e-005
2.117491e+003,2.018432e-005
2.119420e+003,2.242601e-005
2.121348e+003,2.465630e-005
2.123277e+003,2.687681e-005
2.125205e+003,2.908567e-005
2.127134e+003,3.128476e-005
2.129062e+003,3.347313e-005
2.130991e+003,3.565103e-005
2.132919e+003,3.781752e-005
2.134848e+003,3.997330e-005
2.136776e+003,4.211836e-005
2.138705e+003,4.425272e-005
2.140633e+003,4.637660e-005
2.142562e+003,4.849071e-005
2.144490e+003,5.059317e-005
2.146419e+003,5.268469e-005
2.148347e+003,5.476596e-005
2.150276e+003,5.683606e-005
2.152204e+003,5.889544e-005
2.154133e+003,6.094482e-005
2.156061e+003,6.298395e-005
2.157990e+003,6.501144e-005
2.159918e+003,6.702798e-005
2.161847e+003,6.903429e-005
2.163775e+003,7.102941e-005
2.165704e+003,7.301383e-005
2.167632e+003,7.498846e-005
2.169561e+003,7.695123e-005
2.171489e+003,7.890421e-005
2.173418e+003,8.084718e-005
2.175346e+003,8.277851e-005
2.177275e+003,8.469867e-005
2.179203e+003,8.660881e-005
2.181132e+003,8.850824e-005
2.183060e+003,9.039603e-005
2.184989e+003,9.227404e-005
2.186917e+003,9.414204e-005
2.188846e+003,9.599864e-005
2.190774e+003,9.784359e-005
2.192703e+003,9.967876e-005
2.194631e+003,1.015028e-004
2.196560e+003,1.033167e-004
2.198488e+003,1.051198e-004
2.200417e+003,1.069128e-004
2.202345e+003,1.086944e-004
2.204274e+003,1.104649e-004
2.206202e+003,1.122251e-004
2.208131e+003,1.139743e-004
2.210059e+003,1.157131e-004
2.211988e+003,1.174414e-004
2.213916e+003,1.191578e-004
2.215845e+003,1.208647e-004
2.217773e+003,1.225614e-004
2.219702e+003,1.242468e-004
2.221630e+003,1.259211e-004
2.223559e+003,1.275854e-004
2.225487e+003,1.292380e-004
2.227416e+003,1.308806e-004
2.229344e+003,1.325125e-004
2.231273e+003,1.341342e-004
2.233201e+003,1.357449e-004
2.235130e+003,1.373442e-004
2.237058e+003,1.389333e-004
2.238987e+003,1.405112e-004
2.240915e+003,1.420786e-004
2.242844e+003,1.436358e-004
2.244772e+003,1.451825e-004
2.246701e+003,1.467182e-004
2.248629e+003,1.482426e-004
2.250558e+003,1.497571e-004
2.252486e+003,1.512601e-004
2.254415e+003,1.527530e-004
2.256343e+003,1.542345e-004
2.258272e+003,1.557060e-004
2.260200e+003,1.571667e-004
2.262129e+003,1.586173e-004
2.264057e+003,1.600564e-004
2.265986e+003,1.614846e-004
2.267914e+003,1.629025e-004
2.269843e+003,1.643093e-004
2.271771e+003,1.657058e-004
2.273700e+003,1.670914e-004
2.275628e+003,1.684674e-004
2.277557e+003,1.698320e-004
2.279485e+003,1.711852e-004
2.281414e+003,1.725284e-004
2.283342e+003,1.738600e-004
2.285271e+003,1.751820e-004
2.287199e+003,1.764924e-004
2.289128e+003,1.777934e-004
2.291056e+003,1.790833e-004
2.292985e+003,1.803616e-004
2.294913e+003,1.816296e-004
2.296842e+003,1.828866e-004
2.298770e+003,1.841334e-004
2.300699e+003,1.853693e-004
2.302627e+003,1.865954e-004
2.304556e+003,1.878098e-004
2.306484e+003,1.890138e-004
2.308413e+003,1.902070e-004
2.310341e+003,1.913891e-004
2.312270e+003,1.925610e-004
2.314198e+003,1.937218e-004
2.316127e+003,1.948723e-004
2.318055e+003,1.960115e-004
2.319984e+003,1.971417e-004
2.321912e+003,1.982599e-004
2.323841e+003,1.993673e-004
2.325769e+003,2.004644e-004
2.327698e+003,2.015503e-004
2.329626e+003,2.026260e-004
2.331555e+003,2.036903e-004
2.333483e+003,2.047454e-004
2.335412e+003,2.057885e-004
2.337340e+003,2.068214e-004
2.339269e+003,2.078437e-004
2.341197e+003,2.088547e-004
2.343126e+003,2.098551e-004
2.345054e+003,2.108447e-004
2.346983e+003,2.118249e-004
2.348911e+003,2.127932e-004
2.350840e+003,2.137511e-004
2.352768e+003,2.146985e-004
2.354697e+003,2.156347e-004
2.356625e+003,2.165604e-004
2.358554e+003,2.174748e-004
2.360482e+003,2.183795e-004
2.362411e+003,2.192729e-004
2.364339e+003,2.201567e-004
2.366268e+003,2.210289e-004
2.368196e+003,2.218904e-004
2.370125e+003,2.227412e-004
2.372053e+003,2.235812e-004
2.373982e+003,2.244110e-004
2.375910e+003,2.252292e-004
2.377839e+003,2.260385e-004
2.379767e+003,2.268353e-004
2.381696e+003,2.276218e-004
2.383624e+003,2.283971e-004
2.385553e+003,2.291633e-004
2.387481e+003,2.299179e-004
2.389410e+003,2.306616e-004
2.391338e+003,2.313959e-004
2.393267e+003,2.321179e-004
2.395195e+003,2.328297e-004
2.397124e+003,2.335305e-004
2.399052e+003,2.342209e-004
2.400981e+003,3.211754e-004
2.402909e+003,3.787731e-004
2.404838e+003,4.355023e-004
2.406766e+003,6.313496e-004
2.408695e+003,9.221518e-004
2.410623e+003,8.677719e-004
2.412552e+003,8.866983e-004
2.414480e+003,9.017913e-004
2.416409e+003,9.575253e-004
2.418337e+003,9.430656e-004
2.420266e+003,9.119003e-004
2.422194e+003,9.244620e-004
2.424123e+003,1.069870e-003
2.426051e+003,9.682835e-004
2.427979e+003,8.713095e-004
2.429908e+003,7.149032e-004
2.431837e+003,7.231198e-004
2.433765e+003,8.054632e-004
2.435694e+003,7.573306e-004
2.437622e+003,6.901342e-004
2.439551e+003,7.367413e-004
2.441479e+003,6.910264e-004
2.443407e+003,7.149279e-004
2.445336e+003,7.355246e-004
2.447265e+003,7.938645e-004
2.449193e+003,8.966457e-004
2.451122e+003,1.024156e-003
2.453050e+003,1.008464e-003
2.454979e+003,9.954353e-004
2.456907e+003,9.679045e-004
2.458836e+003,1.028324e-003
2.460764e+003,9.114700e-004
2.462693e+003,8.185408e-004
2.464621e+003,8.485233e-004
2.466550e+003,9.012935e-004
2.468478e+003,8.529858e-004
2.470406e+003,1.015709e-003
2.472335e+003,1.160349e-003
2.474264e+003,1.185016e-003
2.476192e+003,1.172694e-003
2.478121e+003,1.301050e-003
2.480049e+003,1.226268e-003
2.481978e+003,1.181287e-003
2.483906e+003,1.254181e-003
2.485835e+003,1.316425e-003
2.487763e+003,1.399893e-003
2.489692e+003,1.451814e-003
2.491620e+003,1.469619e-003
2.493549e+003,1.645599e-003
2.495477e+003,1.726426e-003
2.497406e+003,1.677577e-003
2.499334e+003,1.726819e-003
2.501263e+003,1.819553e-003
2.503191e+003,1.824435e-003
2.505120e+003,1.924563e-003
2.507048e+003,1.825016e-003
2.508977e+003,1.889002e-003
2.510905e+003,1.908656e-003
2.512833e+003,2.044399e-003
2.514762e+003,2.126466e-003
2.516691e+003,2.170741e-003
2.518619e+003,2.115099e-003
2.520548e+003,2.182442e-003
2.522476e+003,2.467767e-003
2.524405e+003,2.705696e-003
2.526333e+003,2.856741e-003
2.528261e+003,2.983995e-003
2.530190e+003,2.962902e-003
2.532119e+003,2.916011e-003
2.534047e+003,2.891779e-003
2.535976e+003,2.972476e-003
2.537904e+003,2.931642e-003
2.539833e+003,2.871426e-003
2.541761e+003,2.920561e-003
2.543689e+003,3.048761e-003
2.545618e+003,3.271353e-003
2.547547e+003,3.648384e-003
2.549475e+003,3.689754e-003
2.551404e+003,3.664838e-003
2.553332e+003,3.629309e-003
2.555260e+003,3.802683e-003
2.557189e+003,4.107145e-003
2.559117e+003,4.222148e-003
2.561046e+003,4.213821e-003
2.562975e+003,4.234576e-003
2.564903e+003,4.277452e-003
2.566832e+003,4.574079e-003
2.568760e+003,4.803931e-003
2.570688e+003,4.850938e-003
2.572617e+003,4.962654e-003
2.574546e+003,5.239238e-003
2.576474e+003,5.519394e-003
2.578403e+003,5.611814e-003
2.580331e+003,5.672878e-003
2.582260e+003,5.893266e-003
2.584188e+003,6.191476e-003
2.586116e+003,6.547404e-003
2.588045e+003,6.748206e-003
2.589974e+003,6.874510e-003
2.591902e+003,6.989377e-003
2.593831e+003,7.191264e-003
2.595759e+003,7.332538e-003
2.597688e+003,7.563382e-003
2.599616e+003,7.809584e-003
2.601544e+003,7.980700e-003
2.603473e+003,8.158542e-003
2.605402e+003,8.482942e-003
2.607330e+003,8.774330e-003
2.609259e+003,9.065596e-003
2.611187e+003,9.339049e-003
2.613115e+003,9.653025e-003
2.615044e+003,1.002214e-002
2.616972e+003,1.032863e-002
2.618901e+003,1.069959e-002
2.620830e+003,1.110228e-002
2.622758e+003,1.148524e-002
2.624687e+003,1.193099e-002
2.626615e+003,1.237447e-002
2.628543e+003,1.282556e-002
2.630472e+003,1.325055e-002
2.632400e+003,1.363908e-002
2.634329e+003,1.383016e-002
2.636258e+003,1.393744e-002
2.638186e+003,1.394259e-002
2.640115e+003,1.397049e-002
2.642043e+003,1.396452e-002
2.643971e+003,1.394507e-002
2.645900e+003,1.398723e-002
2.647828e+003,1.407931e-002
2.649757e+003,1.421640e-002
2.651686e+003,1.444357e-002
2.653614e+003,1.458873e-002
2.655542e+003,1.473974e-002
2.657471e+003,1.490180e-002
2.659399e+003,1.489521e-002
2.661328e+003,1.475996e-002
2.663256e+003,1.456726e-002
2.665185e+003,1.438497e-002
2.667114e+003,1.424593e-002
2.669042e+003,1.409615e-002
2.670970e+003,1.395283e-002
2.672899e+003,1.378319e-002
2.674827e+003,1.360593e-002
2.676756e+003,1.348691e-002
2.678685e+003,1.340460e-002
2.680613e+003,1.327514e-002
2.682542e+003,1.313845e-002
2.684470e+003,1.303581e-002
2.686398e+003,1.291845e-002
2.688327e+003,1.277307e-002
2.690255e+003,1.264160e-002
2.692184e+003,1.249265e-002
2.694113e+003,1.239712e-002
2.696041e+003,1.235721e-002
2.697969e+003,1.244063e-002
2.699898e+003,1.252897e-002
2.701826e+003,1.263461e-002
2.703755e+003,1.271264e-002
2.705683e+003,1.292260e-002
2.707612e+003,1.316986e-002
2.709541e+003,1.333798e-002
2.711469e+003,1.344282e-002
2.713397e+003,1.364555e-002
2.715326e+003,1.390838e-002
2.717254e+003,1.411341e-002
2.719183e+003,1.431994e-002
2.721111e+003,1.463249e-002
2.723040e+003,1.489728e-002
2.724969e+003,1.516744e-002
2.726897e+003,1.550404e-002
2.728825e+003,1.578725e-002
2.730754e+003,1.598413e-002
2.732682e+003,1.622520e-002
2.734611e+003,1.643802e-002
2.736539e+003,1.662558e-002
2.738468e+003,1.680693e-002
2.740396e+003,1.689216e-002
2.742325e+003,1.686371e-002
2.744253e+003,1.688171e-002
2.746182e+003,1.695376e-002
2.748110e+003,1.701671e-002
2.750039e+003,1.702597e-002
2.751967e+003,1.719532e-002
2.753896e+003,1.742088e-002
2.755824e+003,1.769864e-002
2.757753e+003,1.808444e-002
2.759681e+003,1.845456e-002
2.761610e+003,1.883145e-002
2.763538e+003,1.927251e-002
2.765467e+003,1.974455e-002
2.767395e+003,2.022040e-002
2.769324e+003,2.080350e-002
2.771252e+003,2.145763e-002
2.773181e+003,2.217701e-002
2.775109e+003,2.297742e-002
2.777038e+003,2.388551e-002
2.778966e+003,2.493987e-002
2.780895e+003,2.605804e-002
2.782823e+003,2.723996e-002
2.784752e+003,2.855756e-002
2.786680e+003,3.000625e-002
2.788609e+003,3.151283e-002
2.790537e+003,3.314050e-002
2.792466e+003,3.496454e-002
2.794394e+003,3.678925e-002
2.796323e+003,3.866526e-002
2.798251e+003,4.059586e-002
2.800180e+003,4.265749e-002
2.802108e+003,4.480236e-002
2.804037e+003,4.707221e-002
2.805965e+003,4.956512e-002
2.807894e+003,5.239955e-002
2.809822e+003,5.557924e-002
2.811751e+003,5.914984e-002
2.813679e+003,6.316079e-002
2.815608e+003,6.783096e-002
2.817536e+003,7.331202e-002
2.819465e+003,7.969445e-002
2.821393e+003,8.727583e-002
2.823322e+003,9.652162e-002
2.825250e+003,1.078794e-001
2.827179e+003,1.223050e-001
2.829107e+003,1.409705e-001
2.831036e+003,1.656825e-001
2.832964e+003,1.994039e-001
2.834893e+003,2.468914e-001
2.836821e+003,3.145551e-001
2.838750e+003,4.130832e-001
2.840678e+003,5.600860e-001
2.842607e+003,7.775978e-001
2.844535e+003,1.075193e+000
2.846464e+003,1.372317e+000
2.848392e+003,1.402325e+000
2.850321e+003,1.117058e+000
2.852249e+003,8.113085e-001
2.854178e+003,6.003029e-001
2.856106e+003,4.588737e-001
2.858035e+003,3.594956e-001
2.859963e+003,2.890527e-001
2.861892e+003,2.403764e-001
2.863820e+003,2.080705e-001
2.865749e+003,1.883801e-001
2.867677e+003,1.783263e-001
2.869606e+003,1.752044e-001
2.871534e+003,1.766779e-001
2.873463e+003,1.825821e-001
2.875391e+003,1.941891e-001
2.877320e+003,2.122591e-001
2.879248e+003,2.362640e-001
2.881177e+003,2.648695e-001
2.883105e+003,2.968859e-001
2.885034e+003,3.318575e-001
2.886962e+003,3.692042e-001
2.888891e+003,4.080110e-001
2.890819e+003,4.472830e-001
2.892748e+003,4.864039e-001
2.894676e+003,5.250264e-001
2.896605e+003,5.639521e-001
2.898533e+003,6.050683e-001
2.900462e+003,6.512524e-001
2.902390e+003,7.072755e-001
2.904319e+003,7.805330e-001
2.906247e+003,8.807984e-001
2.908176e+003,1.018711e+000
2.910104e+003,1.200631e+000
2.912033e+003,1.407383e+000
2.913961e+003,1.556493e+000
2.915890e+003,1.540206e+000
2.917818e+003,1.368966e+000
2.919747e+003,1.150623e+000
2.921675e+003,9.528202e-001
2.923604e+003,7.913654e-001
2.925532e+003,6.632668e-001
2.927461e+003,5.602104e-001
2.929389e+003,4.744754e-001
2.931318e+003,4.014854e-001
2.933246e+003,3.388234e-001
2.935175e+003,2.852398e-001
2.937103e+003,2.397916e-001
2.939032e+003,2.014158e-001
2.940960e+003,1.694386e-001
2.942889e+003,1.435549e-001
2.944817e+003,1.234868e-001
2.946746e+003,1.087844e-001
2.948674e+003,9.859157e-002
2.950603e+003,9.164639e-002
2.952531e+003,8.620834e-002
2.954460e+003,8.094790e-002
2.956388e+003,7.555696e-002
2.958317e+003,6.982290e-002
2.960245e+003,6.383201e-002
2.962174e+003,5.760980e-002
2.964102e+003,5.131472e-002
2.966031e+003,4.522137e-002
2.967959e+003,3.978419e-002
2.969888e+003,3.513700e-002
2.971816e+003,3.128335e-002
2.973745e+003,2.805362e-002
2.975673e+003,2.536297e-002
2.977602e+003,2.309703e-002
2.979530e+003,2.127574e-002
2.981459e+003,1.970353e-002
2.983387e+003,1.832958e-002
2.985316e+003,1.720864e-002
2.987244e+003,1.629965e-002
2.989173e+003,1.539786e-002
2.991101e+003,1.460936e-002
2.993030e+003,1.388880e-002
2.994958e+003,1.322362e-002
2.996887e+003,1.267048e-002
2.998815e+003,1.224578e-002
3.000744e+003,1.185898e-002
3.002672e+003,1.143981e-002
3.004601e+003,1.105937e-002
3.006529e+003,1.073831e-002
3.008458e+003,1.041054e-002
3.010386e+003,1.012424e-002
3.012315e+003,9.848350e-003
3.014243e+003,9.537064e-003
3.016172e+003,9.274201e-003
3.018100e+003,9.086242e-003
3.020029e+003,8.859074e-003
3.021957e+003,8.690200e-003
3.023886e+003,8.572817e-003
3.025814e+003,8.478210e-003
3.027743e+003,8.296916e-003
3.029671e+003,8.135307e-003
3.031600e+003,7.858113e-003
3.033528e+003,7.531640e-003
3.035457e+003,7.318572e-003
3.037385e+003,7.047286e-003
3.039314e+003,6.725444e-003
3.041242e+003,6.408656e-003
3.043171e+003,6.055588e-003
3.045099e+003,5.870338e-003
3.047028e+003,5.638189e-003
3.048956e+003,5.321255e-003
3.050885e+003,5.058047e-003
3.052813e+003,4.965182e-003
3.054742e+003,4.872605e-003
3.056670e+003,4.740066e-003
3.058599e+003,4.533663e-003
3.060527e+003,4.311479e-003
3.062456e+003,4.137136e-003
3.064384e+003,4.093626e-003
3.066313e+003,4.086117e-003
3.068241e+003,3.992489e-003
3.070170e+003,3.852388e-003
3.072098e+003,3.758908e-003
3.074027e+003,3.569935e-003
3.075955e+003,3.468466e-003
3.077884e+003,3.452281e-003
3.079812e+003,3.402851e-003
3.081741e+003,3.300565e-003
3.083669e+003,3.183740e-003
3.085598e+003,3.033294e-003
3.087526e+003,2.871334e-003
3.089455e+003,2.641852e-003
3.091383e+003,2.351667e-003
3.093312e+003,2.089661e-003
3.095240e+003,1.921427e-003
3.097169e+003,1.741224e-003
3.099097e+003,1.531876e-003
3.101026e+003,1.354245e-003
3.102954e+003,1.174239e-003
3.104883e+003,9.144377e-004
3.106811e+003,8.129925e-004
3.108740e+003,6.693569e-004
3.110668e+003,5.555134e-004
3.112597e+003,4.930841e-004
3.114525e+003,4.284992e-004
3.116454e+003,2.808659e-004
3.118382e+003,1.491681e-004
3.120311e+003,1.255246e-004
3.122239e+003,1.467867e-004
3.124168e+003,1.916997e-004
3.126096e+003,1.520938e-004
3.128025e+003,4.116073e-005
3.129953e+003,-1.402106e-006
3.131882e+003,4.069833e-005
3.133810e+003,-6.413553e-006
3.135739e+003,-7.457798e-005
3.137667e+003,-4.886510e-005
3.139596e+003,-1.182640e-005
3.141524e+003,6.104354e-006
3.143453e+003,-5.605631e-005
3.145381e+003,-2.086055e-004
3.147310e+003,-2.312385e-004
3.149238e+003,-9.990670e-005
3.151167e+003,-9.784009e-005
3.153095e+003,-7.035397e-005
3.155024e+003,-1.741047e-004
3.156952e+003,-3.010058e-004
3.158881e+003,-2.537183e-004
3.160809e+003,-1.538359e-004
3.162738e+003,-2.319813e-004
3.164666e+003,-2.359059e-004
3.166594e+003,-2.161041e-004
3.168523e+003,-2.316381e-004
3.170452e+003,-1.767538e-004
3.172380e+003,-1.461064e-004
3.174309e+003,-8.866936e-005
3.176237e+003,-7.380638e-005
3.178166e+003,-1.543234e-004
3.180094e+003,-2.532611e-004
3.182022e+003,-2.074218e-004
3.183951e+003,-8.133892e-005
3.185880e+003,-2.291938e-005
3.187808e+003,-5.608657e-005
3.189737e+003,-1.240456e-004
3.191665e+003,-8.745771e-005
3.193594e+003,-6.646803e-005
3.195522e+003,-1.016683e-004
3.197450e+003,-7.182453e-005
3.199379e+003,-9.844080e-005
3.201308e+003,-1.401291e-004
3.203236e+003,-1.094081e-004
3.205165e+003,-1.744372e-004
3.207093e+003,-2.227705e-004
3.209021e+003,-2.238033e-004
3.210950e+003,-1.932839e-004
3.212878e+003,-2.101483e-004
3.214807e+003,-1.058988e-004
3.216736e+003,-3.849389e-005
3.218664e+003,-6.634835e-005
3.220593e+003,-2.211733e-004
3.222521e+003,-3.063930e-004
3.224449e+003,-1.448607e-004
3.226378e+003,-1.501292e-006
3.228307e+003,-5.438458e-005
3.230235e+003,-2.682768e-005
3.232164e+003,-1.269951e-005
3.234092e+003,-4.414096e-005
3.236021e+003,-7.389579e-005
3.237949e+003,-1.239702e-004
3.239877e+003,-6.194692e-005
3.241806e+003,-3.819633e-005
3.243735e+003,-5.754549e-005
3.245663e+003,1.836289e-005
3.247592e+003,5.009957e-005
3.249520e+003,1.523644e-006
3.251448e+003,9.352621e-005
3.253377e+003,2.695685e-004
3.255305e+003,3.183465e-004
3.257234e+003,2.913987e-004
3.259163e+003,2.297666e-004
3.261091e+003,1.074178e-004
3.263020e+003,9.540934e-005
3.264948e+003,1.431219e-004
3.266876e+003,1.715086e-004
3.268805e+003,3.002705e-004
3.270733e+003,3.874386e-004
3.272662e+003,4.323842e-004
3.274591e+003,3.695311e-004
3.276519e+003,3.554262e-004
3.278448e+003,4.090574e-004
3.280376e+003,4.208684e-004
3.282304e+003,4.655188e-004
3.284233e+003,5.496340e-004
3.286161e+003,4.196735e-004
3.288090e+003,3.654147e-004
3.290019e+003,2.855398e-004
3.291947e+003,2.674554e-004
3.293875e+003,3.346615e-004
3.295804e+003,3.595389e-004
3.297732e+003,3.521228e-004
3.299661e+003,3.439253e-004
3.301589e+003,3.573969e-004
3.303518e+003,2.749665e-004
3.305447e+003,2.268180e-004
3.307375e+003,3.583143e-004
3.309303e+003,4.491527e-004
3.311232e+003,5.251989e-004
3.313160e+003,5.562669e-004
3.315089e+003,5.293395e-004
3.317018e+003,5.886415e-004
3.318946e+003,5.227430e-004
3.320875e+003,3.519272e-004
3.322803e+003,4.861020e-004
3.324731e+003,5.138014e-004
3.326660e+003,4.709912e-004
3.328588e+003,6.211232e-004
3.330517e+003,6.321780e-004
3.332446e+003,5.266825e-004
3.334374e+003,5.569216e-004
3.336302e+003,6.669564e-004
3.338231e+003,6.652521e-004
3.340159e+003,5.729925e-004
3.342088e+003,5.677715e-004
3.344016e+003,5.491627e-004
3.345945e+003,4.702834e-004
3.347874e+003,4.417673e-004
3.349802e+003,5.090451e-004
3.351730e+003,5.682437e-004
3.353659e+003,5.926182e-004
3.355587e+003,5.226964e-004
3.357516e+003,5.168421e-004
3.359444e+003,5.528713e-004
3.361373e+003,5.453406e-004
3.363302e+003,5.855728e-004
3.365230e+003,7.082233e-004
3.367158e+003,6.565191e-004
3.369087e+003,5.521774e-004
3.371015e+003,6.498275e-004
3.372944e+003,6.972020e-004
3.374872e+003,6.750748e-004
3.376801e+003,6.146310e-004
3.378729e+003,4.912512e-004
3.380658e+003,5.251002e-004
3.382586e+003,4.510405e-004
3.384515e+003,4.151557e-004
3.386443e+003,4.635779e-004
3.388372e+003,4.519457e-004
3.390300e+003,4.603053e-004
3.392229e+003,5.893735e-004
3.394157e+003,4.917635e-004
3.396086e+003,4.725233e-004
3.398014e+003,4.322939e-004
3.399943e+003,3.674198e-004
3.401871e+003,3.767665e-004
3.403800e+003,2.741031e-004
3.405728e+003,2.148179e-004
3.407657e+003,3.064591e-004
3.409585e+003,2.192650e-004
3.411514e+003,4.633237e-005
3.413442e+003,-1.071673e-005
3.415371e+003,8.963700e-005
3.417299e+003,1.811087e-004
3.419228e+003,2.063364e-004
3.421156e+003,3.559347e-004
3.423085e+003,3.116615e-004
3.425013e+003,1.245867e-004
3.426942e+003,1.345202e-004
3.428870e+003,1.172544e-004
3.430799e+003,5.695689e-005
3.432727e+003,9.890459e-005
3.434656e+003,8.902699e-005
3.436584e+003,7.604249e-005
3.438513e+003,8.665491e-005
3.440441e+003,1.072586e-004
3.442370e+003,2.027182e-004
3.444298e+003,2.106605e-004
3.446227e+003,2.711257e-004
3.448155e+003,1.765490e-004
3.450084e+003,-9.699631e-005
3.452012e+003,-1.655156e-004
3.453941e+003,-9.213854e-005
3.455869e+003,-3.008451e-005
3.457798e+003,-1.186328e-004
3.459726e+003,-2.092412e-004
3.461655e+003,-1.825867e-004
3.463583e+003,-2.152529e-004
3.465512e+003,-3.037564e-004
3.467440e+003,-2.978072e-004
3.469369e+003,-3.962880e-004
3.471297e+003,-4.047360e-004
3.473226e+003,-3.478983e-004
3.475154e+003,-4.202779e-004
3.477083e+003,-5.465122e-004
3.479011e+003,-4.272815e-004
3.480940e+003,-2.335235e-004
3.482868e+003,-3.632531e-004
3.484797e+003,-4.997384e-004
3.486725e+003,-4.246170e-004
3.488654e+003,-4.977966e-004
3.490582e+003,-7.077558e-004
3.492511e+003,-8.640354e-004
3.494439e+003,-8.000378e-004
3.496368e+003,-5.817916e-004
3.498296e+003,-5.896185e-004
3.500225e+003,-4.323609e-004
3.502153e+003,-1.357319e-004
3.504082e+003,-2.621468e-004
3.506010e+003,-6.420622e-004
3.507939e+003,-4.625116e-004
3.509867e+003,-2.828585e-004
3.511796e+003,-6.767651e-004
3.513724e+003,-9.228867e-004
3.515653e+003,-9.894175e-004
3.517581e+003,-9.070290e-004
3.519510e+003,-8.774474e-004
3.521438e+003,-7.080501e-004
3.523367e+003,-3.341865e-004
3.525295e+003,-4.907465e-004
3.527224e+003,-5.925596e-004
3.529152e+003,-6.937766e-004
3.531081e+003,-1.003046e-003
3.533009e+003,-1.166970e-003
3.534938e+003,-1.083703e-003
3.536866e+003,-1.065168e-003
3.538795e+003,-1.255456e-003
3.540723e+003,-1.169395e-003
3.542652e+003,-6.462373e-004
3.544580e+003,-2.492871e-005
3.546509e+003,1.943856e-005
3.548437e+003,-6.977264e-004
3.550366e+003,-1.152474e-003
3.552294e+003,-8.661076e-004
3.554223e+003,-1.053489e-003
3.556151e+003,-1.342726e-003
3.558080e+003,-1.360041e-003
3.560008e+003,-1.070475e-003
3.561937e+003,-7.490758e-004
3.563865e+003,-2.638660e-004
3.565794e+003,8.125445e-004
3.567722e+003,7.847808e-004
3.569651e+003,-7.123640e-004
3.571579e+003,-1.259978e-003
3.573508e+003,-1.126331e-003
3.575436e+003,-9.918120e-004
3.577365e+003,-1.172747e-003
3.579293e+003,-1.084161e-003
3.581222e+003,-1.015407e-003
3.583150e+003,-9.412048e-004
3.585079e+003,-6.391276e-004
3.587007e+003,4.474558e-004
3.588936e+003,7.128436e-005
3.590864e+003,-6.281193e-004
3.592793e+003,-1.948057e-004
3.594721e+003,6.903997e-004
3.596650e+003,8.695815e-004
3.598578e+003,1.011024e-003
3.600507e+003,1.332908e-003
3.602435e+003,1.233910e-003
3.604364e+003,1.080313e-003
3.606292e+003,1.564098e-003
3.608221e+003,2.060001e-003
3.610149e+003,1.495570e-003
3.612078e+003,1.179690e-003
3.614006e+003,1.447156e-003
3.615935e+003,1.090963e-003
3.617863e+003,1.164084e-003
3.619792e+003,9.680912e-004
3.621720e+003,4.290510e-005
3.623649e+003,-2.706321e-004
3.625577e+003,3.003525e-004
3.627506e+003,1.656619e-003
3.629434e+003,2.498630e-003
3.631363e+003,4.604831e-004
3.633291e+003,-2.099499e-004
3.635220e+003,-4.228912e-004
3.637148e+003,-5.086865e-004
3.639077e+003,-3.484655e-004
3.641005e+003,-2.565505e-004
3.642934e+003,2.915971e-005
3.644862e+003,2.804454e-004
3.646791e+003,1.831006e-003
3.648719e+003,3.034227e-003
3.650648e+003,1.898411e-003
3.652576e+003,2.019070e-004
3.654505e+003,-1.007598e-005
3.656433e+003,7.363716e-004
3.658362e+003,-1.297183e-004
3.660290e+003,-6.259838e-004
3.662219e+003,-8.950466e-004
3.664147e+003,-1.067854e-003
3.666076e+003,-1.000923e-003
3.668004e+003,-3.665015e-004
3.669933e+003,1.245432e-003
3.671861e+003,3.956975e-004
3.673790e+003,-1.213113e-004
3.675718e+003,1.512836e-003
3.677647e+003,1.311032e-004
3.679575e+003,-3.807740e-004
3.681504e+003,-5.470831e-004
3.683432e+003,-5.510394e-004
3.685361e+003,-4.345495e-004
3.687289e+003,1.806244e-004
3.689218e+003,1.051479e-003
3.691146e+003,4.210109e-004
3.693075e+003,-3.054701e-004
3.695003e+003,-8.382238e-004
3.696932e+003,-7.682722e-004
3.698860e+003,-7.819934e-004
3.700789e+003,-4.090481e-004
3.702717e+003,-1.852158e-004
3.704646e+003,-5.785134e-004
3.706574e+003,-5.023004e-004
3.708503e+003,1.531225e-004
3.710431e+003,1.236860e-003
3.712360e+003,1.097562e-003
3.714288e+003,1.300350e-004
3.716217e+003,-4.361123e-004
3.718145e+003,-1.497185e-004
3.720074e+003,-1.440663e-005
3.722002e+003,3.870996e-004
3.723931e+003,4.520323e-004
3.725859e+003,4.757475e-004
3.727788e+003,4.256982e-005
3.729716e+003,-3.100783e-004
3.731645e+003,7.841997e-004
3.733573e+003,1.507245e-003
3.735502e+003,1.787727e-003
3.737430e+003,7.843385e-004
3.739359e+003,8.182880e-005
3.741287e+003,2.014358e-004
3.743216e+003,6.511323e-004
3.745144e+003,2.171313e-003
3.747073e+003,1.148496e-003
3.749001e+003,1.587997e-003
3.750930e+003,2.477012e-003
3.752858e+003,1.486526e-003
3.754787e+003,4.116446e-004
3.756715e+003,4.747529e-004
3.758644e+003,5.845977e-004
3.760572e+003,1.653843e-004
3.762501e+003,-5.297996e-004
3.764429e+003,-1.710765e-004
3.766358e+003,1.940038e-004
3.768286e+003,-1.946324e-004
3.770215e+003,1.880405e-004
3.772143e+003,-3.700200e-004
3.774072e+003,-5.644178e-004
3.776000e+003,-3.746925e-004
3.777929e+003,-7.999316e-005
3.779857e+003,3.882758e-004
3.781786e+003,-1.365002e-004
3.783714e+003,-7.818826e-005
3.785643e+003,-5.417690e-005
3.787571e+003,-4.393486e-004
3.789500e+003,-4.947735e-004
3.791428e+003,-5.095294e-004
3.793357e+003,-4.707705e-004
3.795285e+003,1.035985e-004
3.797214e+003,6.621489e-004
3.799142e+003,3.809771e-004
3.801071e+003,1.762993e-003
3.802999e+003,1.276638e-003
3.804927e+003,1.041787e-004
3.806856e+003,9.885337e-004
3.808785e+003,4.495094e-004
3.810713e+003,6.474741e-005
3.812642e+003,2.387613e-004
3.814570e+003,6.633326e-004
3.816499e+003,1.810627e-003
3.818427e+003,1.290132e-003
3.820355e+003,2.178118e-003
3.822284e+003,2.060462e-003
3.824213e+003,6.620660e-004
3.826141e+003,7.881261e-004
3.828070e+003,6.489670e-004
3.829998e+003,3.767004e-004
3.831927e+003,1.159059e-003
3.833855e+003,1.295391e-003
3.835783e+003,1.637788e-003
3.837712e+003,2.509666e-003
3.839641e+003,2.439073e-003
3.841569e+003,1.370801e-003
3.843498e+003,9.686705e-004
3.845426e+003,4.093423e-004
3.847354e+003,2.248576e-004
3.849283e+003,1.121446e-003
3.851211e+003,2.081845e-003
3.853140e+003,3.542963e-003
3.855069e+003,1.820752e-003
3.856997e+003,8.171173e-004
3.858926e+003,4.287791e-004
3.860854e+003,8.924399e-004
3.862782e+003,1.642404e-003
3.864711e+003,2.006347e-003
3.866640e+003,1.244106e-003
3.868568e+003,1.288262e-003
3.870497e+003,2.571166e-003
3.872425e+003,1.572955e-003
3.874354e+003,1.598834e-003
3.876282e+003,8.741254e-004
3.878210e+003,7.293522e-004
3.880139e+003,1.931000e-003
3.882068e+003,1.811941e-003
3.883996e+003,1.257293e-003
3.885925e+003,1.708256e-003
3.887853e+003,8.446258e-004
3.889781e+003,9.020409e-004
3.891710e+003,1.880031e-003
3.893638e+003,1.217727e-003
3.895567e+003,8.483697e-004
3.897496e+003,1.355438e-003
3.899424e+003,2.334956e-003
3.901353e+003,2.473013e-003
3.903281e+003,2.509694e-003
3.905209e+003,2.117968e-003
3.907138e+003,1.084485e-003
3.909066e+003,6.289287e-004
3.910995e+003,7.447768e-004
3.912924e+003,8.018063e-004
3.914852e+003,9.729145e-004
3.916781e+003,1.386412e-003
3.918709e+003,1.193152e-003
3.920637e+003,9.768000e-004
3.922566e+003,9.012278e-004
3.924494e+003,1.339616e-003
3.926423e+003,1.013467e-003
3.928352e+003,8.780910e-004
3.930280e+003,1.228476e-003
3.932208e+003,1.264481e-003
3.934137e+003,7.293792e-004
3.936065e+003,2.267724e-004
3.937994e+003,4.549511e-004
3.939922e+003,7.023327e-004
3.941851e+003,1.196767e-003
3.943780e+003,1.189500e-003
3.945708e+003,7.964307e-004
3.947636e+003,1.074185e-003
3.949565e+003,9.507397e-004
3.951493e+003,5.221777e-004
3.953422e+003,4.534256e-004
3.955351e+003,5.197367e-004
3.957279e+003,5.553169e-004
3.959208e+003,6.283540e-004
3.961136e+003,6.891591e-004
3.963064e+003,4.982688e-004
3.964993e+003,3.699716e-004
3.966921e+003,3.844928e-004
3.968850e+003,4.299060e-004
3.970779e+003,5.062632e-004
3.972707e+003,5.612038e-004
3.974635e+003,5.030949e-004
3.976564e+003,4.598033e-004
3.978492e+003,4.079640e-004
3.980421e+003,3.923643e-004
3.982349e+003,5.461937e-004
3.984278e+003,5.694991e-004
3.986207e+003,5.021608e-004
3.988135e+003,4.244978e-004
3.990063e+003,4.465720e-004
3.991992e+003,3.453419e-004
3.993920e+003,1.846673e-004
3.995849e+003,2.360046e-004
3.997777e+003,3.191689e-004
3.999706e+003,2.811253e-004
4.001635e+003,0.000000e+000
