3.991992e+002,0.000000e+000
4.011277e+002,0.000000e+000
4.030562e+002,0.000000e+000
4.049846e+002,0.000000e+000
4.069131e+002,0.000000e+000
4.088416e+002,0.000000e+000
4.107701e+002,0.000000e+000
4.126986e+002,0.000000e+000
4.146271e+002,0.000000e+000
4.165556e+002,0.000000e+000
4.184841e+002,0.000000e+000
4.204126e+002,0.000000e+000
4.223411e+002,0.000000e+000
4.242697e+002,0.000000e+000
4.261982e+002,0.000000e+000
4.281266e+002,0.000000e+000
4.300551e+002,0.000000e+000
4.319836e+002,0.000000e+000
4.339121e+002,0.000000e+000
4.358406e+002,0.000000e+000
4.377691e+002,0.000000e+000
4.396976e+002,0.000000e+000
4.416261e+002,0.000000e+000
4.435546e+002,0.000000e+000
4.454831e+002,0.000000e+000
4.474116e+002,0.000000e+000
4.493401e+002,0.000000e+000
4.512686e+002,0.000000e+000
4.531971e+002,0.000000e+000
4.551256e+002,0.000000e+000
4.570541e+002,0.000000e+000
4.589826e+002,0.000000e+000
4.609111e+002,0.000000e+000
4.628396e+002,0.000000e+000
4.647681e+002,0.000000e+000
4.666966e+002,0.000000e+000
4.686251e+002,0.000000e+000
4.705536e+002,0.000000e+000
4.724821e+002,0.000000e+000
4.744106e+002,0.000000e+000
4.763391e+002,0.000000e+000
4.782676e+002,0.000000e+000
4.801961e+002,0.000000e+000
4.821246e+002,0.000000e+000
4.840531e+002,0.000000e+000
4.859816e+002,0.000000e+000
4.879101e+002,0.000000e+000
4.898386e+002,0.000000e+000
4.917671e+002,0.000000e+000
4.936956e+002,0.000000e+000
4.956241e+002,0.000000e+000
4.975526e+002,0.000000e+000
4.994811e+002,0.000000e+000
5.014096e+002,0.000000e+000
5.033381e+002,0.000000e+000
5.052666e+002,0.000000e+000
5.071951e+002,0.000000e+000
5.091236e+002,0.000000e+000
5.110521e+002,0.000000e+000
5.129806e+002,0.000000e+000
5.149091e+002,0.000000e+000
5.168376e+002,0.000000e+000
5.187661e+002,0.000000e+000
5.206946e+002,0.000000e+000
5.226230e+002,0.000000e+000
5.245516e+002,-3.671693e-004
5.264800e+002,-4.213816e-004
5.284086e+002,-3.990205e-004
5.303370e+002,-3.476935e-004
5.322656e+002,-2.002288e-004
5.341940e+002,-2.827486e-004
5.361226e+002,-2.684975e-004
5.380510e+002,-2.864292e-004
5.399796e+002,-3.956920e-004
5.419081e+002,-4.515024e-004
5.438365e+002,-3.377981e-004
5.457650e+002,-2.081245e-004
5.476935e+002,-1.990106e-004
5.496221e+002,-2.496094e-004
5.515505e+002,-1.173969e-004
5.534790e+002,6.167032e-005
5.554075e+002,1.624338e-004
5.573361e+002,1.121555e-004
5.592645e+002,9.415671e-005
5.611931e+002,3.223680e-005
5.631215e+002,2.034567e-005
5.650500e+002,3.738143e-005
5.669785e+002,3.041886e-005
5.689070e+002,-1.214445e-005
5.708355e+002,7.556751e-006
5.727640e+002,-2.746843e-005
5.746925e+002,6.958656e-005
5.766210e+002,8.061714e-005
5.785495e+002,1.782924e-005
5.804780e+002,6.625429e-006
5.824065e+002,9.747408e-005
5.843350e+002,7.906370e-005
5.862635e+002,1.518726e-004
5.881920e+002,2.791043e-004
5.901205e+002,3.284514e-004
5.920490e+002,3.229808e-004
5.939775e+002,3.390852e-004
5.959060e+002,4.231576e-004
5.978345e+002,5.520582e-004
5.997630e+002,5.554128e-004
6.016915e+002,6.148219e-004
6.036200e+002,6.677452e-004
6.055485e+002,7.952768e-004
6.074770e+002,8.866116e-004
6.094055e+002,8.834731e-004
6.113340e+002,8.631386e-004
6.132625e+002,8.057356e-004
6.151910e+002,7.163901e-004
6.171195e+002,7.366762e-004
6.190480e+002,8.024499e-004
6.209765e+002,9.574536e-004
6.229050e+002,1.066105e-003
6.248335e+002,1.143364e-003
6.267620e+002,1.126338e-003
6.286905e+002,1.156155e-003
6.306190e+002,1.112815e-003
6.325475e+002,1.206322e-003
6.344760e+002,1.213310e-003
6.364045e+002,1.300903e-003
6.383330e+002,1.443705e-003
6.402615e+002,1.481840e-003
6.421899e+002,1.430133e-003
6.441185e+002,1.506872e-003
6.460470e+002,1.539014e-003
6.479755e+002,1.629142e-003
6.499039e+002,1.706051e-003
6.518325e+002,1.688853e-003
6.537610e+002,1.710698e-003
6.556895e+002,1.814375e-003
6.576179e+002,1.809690e-003
6.595464e+002,1.920512e-003
6.614750e+002,1.906602e-003
6.634034e+002,1.875961e-003
6.653319e+002,1.829991e-003
6.672604e+002,2.067296e-003
6.691890e+002,2.282156e-003
6.711174e+002,2.316436e-003
6.730460e+002,2.306262e-003
6.749745e+002,2.419567e-003
6.769030e+002,2.539165e-003
6.788314e+002,2.693465e-003
6.807599e+002,2.751715e-003
6.826885e+002,2.929237e-003
6.846169e+002,3.032036e-003
6.865454e+002,3.167663e-003
6.884739e+002,3.290823e-003
6.904025e+002,3.605107e-003
6.923309e+002,3.939806e-003
6.942594e+002,4.320774e-003
6.961879e+002,4.709907e-003
6.981165e+002,5.368216e-003
7.000449e+002,6.182430e-003
7.019734e+002,7.395564e-003
7.039019e+002,8.799067e-003
7.058304e+002,1.078166e-002
7.077589e+002,1.350912e-002
7.096874e+002,1.762647e-002
7.116159e+002,2.414272e-002
7.135444e+002,3.645346e-002
7.154729e+002,5.845242e-002
7.174014e+002,8.828590e-002
7.193299e+002,9.878256e-002
7.212584e+002,7.205189e-002
7.231869e+002,4.704823e-002
7.251154e+002,3.832064e-002
7.270439e+002,4.166638e-002
7.289724e+002,5.452711e-002
7.309009e+002,5.245450e-002
7.328294e+002,2.978522e-002
7.347579e+002,1.461672e-002
7.366864e+002,9.418588e-003
7.386149e+002,7.313590e-003
7.405434e+002,6.051518e-003
7.424719e+002,5.399983e-003
7.444004e+002,4.868619e-003
7.463289e+002,4.487911e-003
7.482574e+002,4.123911e-003
7.501859e+002,3.884584e-003
7.521144e+002,3.635783e-003
7.540428e+002,3.449870e-003
7.559714e+002,3.258392e-003
7.578999e+002,3.162529e-003
7.598284e+002,3.100794e-003
7.617568e+002,3.044648e-003
7.636854e+002,2.974890e-003
7.656139e+002,2.894705e-003
7.675424e+002,2.832124e-003
7.694709e+002,2.794242e-003
7.713994e+002,2.645884e-003
7.733279e+002,2.507178e-003
7.752563e+002,2.458205e-003
7.771849e+002,2.501415e-003
7.791134e+002,2.477488e-003
7.810419e+002,2.512982e-003
7.829703e+002,2.567586e-003
7.848989e+002,2.583887e-003
7.868274e+002,2.593180e-003
7.887559e+002,2.610723e-003
7.906843e+002,2.611108e-003
7.926129e+002,2.628351e-003
7.945414e+002,2.714334e-003
7.964698e+002,2.832470e-003
7.983983e+002,2.877844e-003
8.003268e+002,2.960943e-003
8.022554e+002,3.096607e-003
8.041838e+002,3.199659e-003
8.061123e+002,3.216779e-003
8.080408e+002,3.343238e-003
8.099694e+002,3.549214e-003
8.118978e+002,3.685461e-003
8.138263e+002,3.745493e-003
8.157548e+002,3.688741e-003
8.176833e+002,3.599394e-003
8.196118e+002,3.384233e-003
8.215403e+002,2.962567e-003
8.234689e+002,2.481053e-003
8.253973e+002,1.971923e-003
8.273258e+002,1.541430e-003
8.292543e+002,1.253104e-003
8.311829e+002,1.075564e-003
8.331113e+002,9.455327e-004
8.350398e+002,8.204412e-004
8.369683e+002,7.181205e-004
8.388969e+002,6.537363e-004
8.408253e+002,6.228164e-004
8.427538e+002,6.407462e-004
8.446823e+002,6.963704e-004
8.466108e+002,6.285459e-004
8.485393e+002,5.997308e-004
8.504678e+002,6.040242e-004
8.523963e+002,6.332211e-004
8.543248e+002,7.531811e-004
8.562533e+002,8.768570e-004
8.581818e+002,1.029545e-003
8.601103e+002,1.224447e-003
8.620388e+002,1.462016e-003
8.639673e+002,1.706185e-003
8.658958e+002,1.931768e-003
8.678243e+002,2.137629e-003
8.697528e+002,2.273276e-003
8.716813e+002,2.351603e-003
8.736098e+002,2.376167e-003
8.755383e+002,2.334403e-003
8.774668e+002,2.279360e-003
8.793953e+002,2.249748e-003
8.813238e+002,2.109123e-003
8.832523e+002,1.995536e-003
8.851808e+002,2.012849e-003
8.871093e+002,2.115216e-003
8.890378e+002,2.046302e-003
8.909663e+002,1.967337e-003
8.928948e+002,1.965471e-003
8.948232e+002,1.868628e-003
8.967518e+002,1.767877e-003
8.986803e+002,1.740230e-003
9.006088e+002,1.775416e-003
9.025372e+002,1.900177e-003
9.044658e+002,2.099957e-003
9.063943e+002,2.403090e-003
9.083228e+002,2.543863e-003
9.102512e+002,2.372362e-003
9.121797e+002,1.913950e-003
9.141083e+002,1.675718e-003
9.160367e+002,1.564389e-003
9.179653e+002,1.331849e-003
9.198937e+002,1.264211e-003
9.218223e+002,1.247678e-003
9.237507e+002,1.244925e-003
9.256793e+002,1.284804e-003
9.276077e+002,1.257023e-003
9.295363e+002,1.369294e-003
9.314647e+002,1.559218e-003
9.333932e+002,1.703368e-003
9.353217e+002,1.837399e-003
9.372502e+002,2.020970e-003
9.391787e+002,2.145747e-003
9.411072e+002,2.281401e-003
9.430358e+002,2.389738e-003
9.449642e+002,2.507474e-003
9.468928e+002,2.684139e-003
9.488212e+002,2.797905e-003
9.507498e+002,2.853986e-003
9.526782e+002,3.013931e-003
9.546068e+002,3.201913e-003
9.565352e+002,3.407624e-003
9.584637e+002,3.630465e-003
9.603922e+002,3.812348e-003
9.623207e+002,3.940893e-003
9.642492e+002,4.071187e-003
9.661777e+002,4.099552e-003
9.681062e+002,4.190164e-003
9.700347e+002,4.270788e-003
9.719632e+002,4.347878e-003
9.738917e+002,4.420383e-003
9.758202e+002,4.481224e-003
9.777487e+002,4.478877e-003
9.796772e+002,4.497327e-003
9.816057e+002,4.546827e-003
9.835342e+002,4.648052e-003
9.854627e+002,4.833492e-003
9.873912e+002,5.186502e-003
9.893197e+002,5.584570e-003
9.912482e+002,6.019112e-003
9.931767e+002,6.556800e-003
9.951052e+002,7.184951e-003
9.970337e+002,7.797999e-003
9.989622e+002,8.418737e-003
1.000891e+003,9.086121e-003
1.002819e+003,9.827863e-003
1.004748e+003,1.048371e-002
1.006676e+003,1.114400e-002
1.008605e+003,1.182801e-002
1.010533e+003,1.257477e-002
1.012462e+003,1.328026e-002
1.014390e+003,1.395392e-002
1.016319e+003,1.458595e-002
1.018247e+003,1.517716e-002
1.020176e+003,1.567435e-002
1.022104e+003,1.617011e-002
1.024033e+003,1.658454e-002
1.025961e+003,1.695216e-002
1.027890e+003,1.723680e-002
1.029818e+003,1.744813e-002
1.031747e+003,1.755268e-002
1.033675e+003,1.752024e-002
1.035604e+003,1.736646e-002
1.037532e+003,1.717660e-002
1.039461e+003,1.687570e-002
1.041389e+003,1.653050e-002
1.043318e+003,1.621757e-002
1.045246e+003,1.606802e-002
1.047175e+003,1.605732e-002
1.049103e+003,1.626802e-002
1.051032e+003,1.652539e-002
1.052960e+003,1.673545e-002
1.054889e+003,1.693207e-002
1.056817e+003,1.718168e-002
1.058746e+003,1.743532e-002
1.060674e+003,1.771913e-002
1.062603e+003,1.786559e-002
1.064531e+003,1.795084e-002
1.066460e+003,1.804740e-002
1.068388e+003,1.811058e-002
1.070317e+003,1.817377e-002
1.072245e+003,1.835301e-002
1.074174e+003,1.855492e-002
1.076102e+003,1.875575e-002
1.078031e+003,1.882481e-002
1.079959e+003,1.880321e-002
1.081888e+003,1.868294e-002
1.083816e+003,1.856342e-002
1.085745e+003,1.835847e-002
1.087673e+003,1.809816e-002
1.089602e+003,1.776267e-002
1.091530e+003,1.741021e-002
1.093459e+003,1.703928e-002
1.095387e+003,1.658569e-002
1.097316e+003,1.606836e-002
1.099244e+003,1.560644e-002
1.101173e+003,1.510468e-002
1.103101e+003,1.464324e-002
1.105030e+003,1.421335e-002
1.106958e+003,1.386476e-002
1.108887e+003,1.350709e-002
1.110815e+003,1.312250e-002
1.112744e+003,1.275746e-002
1.114672e+003,1.246605e-002
1.116601e+003,1.215890e-002
1.118529e+003,1.189507e-002
1.120458e+003,1.164657e-002
1.122386e+003,1.146877e-002
1.124315e+003,1.128853e-002
1.126243e+003,1.111454e-002
1.128172e+003,1.093846e-002
1.130100e+003,1.084643e-002
1.132029e+003,1.077210e-002
1.133957e+003,1.075739e-002
1.135885e+003,1.078995e-002
1.137814e+003,1.095248e-002
1.139743e+003,1.118511e-002
1.141671e+003,1.148129e-002
1.143600e+003,1.185272e-002
1.145528e+003,1.225372e-002
1.147457e+003,1.256482e-002
1.149385e+003,1.283436e-002
1.151314e+003,1.302960e-002
1.153242e+003,1.311133e-002
1.155171e+003,1.293967e-002
1.157099e+003,1.258377e-002
1.159028e+003,1.205848e-002
1.160956e+003,1.146030e-002
1.162885e+003,1.080187e-002
1.164813e+003,1.018447e-002
1.166742e+003,9.555627e-003
1.168670e+003,9.016674e-003
1.170599e+003,8.484252e-003
1.172527e+003,8.033138e-003
1.174456e+003,7.660352e-003
1.176384e+003,7.381158e-003
1.178313e+003,7.018844e-003
1.180241e+003,6.658455e-003
1.182170e+003,6.372413e-003
1.184098e+003,6.234700e-003
1.186027e+003,6.133744e-003
1.187955e+003,6.082483e-003
1.189884e+003,5.997898e-003
1.191812e+003,5.957332e-003
1.193740e+003,5.952237e-003
1.195669e+003,6.017923e-003
1.197598e+003,6.078793e-003
1.199526e+003,6.250560e-003
1.201455e+003,6.482646e-003
1.203383e+003,6.800959e-003
1.205312e+003,7.154964e-003
1.207240e+003,7.549547e-003
1.209168e+003,7.877966e-003
1.211097e+003,8.213434e-003
1.213026e+003,8.484673e-003
1.214954e+003,8.785449e-003
1.216883e+003,9.001197e-003
1.218811e+003,9.242982e-003
1.220740e+003,9.435710e-003
1.222668e+003,9.579144e-003
1.224596e+003,9.682681e-003
1.226525e+003,9.806285e-003
1.228453e+003,9.892426e-003
1.230382e+003,1.001519e-002
1.232311e+003,1.013495e-002
1.234239e+003,1.028305e-002
1.236167e+003,1.032256e-002
1.238096e+003,1.040532e-002
1.240025e+003,1.043401e-002
1.241953e+003,1.043303e-002
1.243882e+003,1.037825e-002
1.245810e+003,1.029473e-002
1.247739e+003,1.013623e-002
1.249667e+003,9.999651e-003
1.251595e+003,9.820886e-003
1.253524e+003,9.699009e-003
1.255453e+003,9.555947e-003
1.257381e+003,9.440560e-003
1.259310e+003,9.315833e-003
1.261238e+003,9.214502e-003
1.263167e+003,9.038068e-003
1.265095e+003,8.879375e-003
1.267023e+003,8.696400e-003
1.268952e+003,8.632518e-003
1.270880e+003,8.588042e-003
1.272809e+003,8.593529e-003
1.274738e+003,8.566227e-003
1.276666e+003,8.614115e-003
1.278594e+003,8.609179e-003
1.280523e+003,8.638013e-003
1.282451e+003,8.684359e-003
1.284380e+003,8.828573e-003
1.286308e+003,8.956391e-003
1.288237e+003,9.166341e-003
1.290166e+003,9.392846e-003
1.292094e+003,9.751063e-003
1.294022e+003,1.014183e-002
1.295951e+003,1.058320e-002
1.297879e+003,1.092724e-002
1.299808e+003,1.125097e-002
1.301736e+003,1.141114e-002
1.303665e+003,1.155640e-002
1.305594e+003,1.156876e-002
1.307522e+003,1.151887e-002
1.309450e+003,1.131659e-002
1.311379e+003,1.104529e-002
1.313307e+003,1.063771e-002
1.315236e+003,1.032652e-002
1.317164e+003,9.982955e-003
1.319093e+003,9.648543e-003
1.321021e+003,9.275123e-003
1.322950e+003,9.018000e-003
1.324878e+003,8.796826e-003
1.326807e+003,8.725107e-003
1.328735e+003,8.643564e-003
1.330664e+003,8.705817e-003
1.332592e+003,8.866753e-003
1.334521e+003,9.208098e-003
1.336449e+003,9.665515e-003
1.338378e+003,1.032060e-002
1.340306e+003,1.083092e-002
1.342235e+003,1.117560e-002
1.344163e+003,1.151995e-002
1.346092e+003,1.207515e-002
1.348021e+003,1.261568e-002
1.349949e+003,1.318599e-002
1.351877e+003,1.349782e-002
1.353806e+003,1.357497e-002
1.355734e+003,1.345757e-002
1.357663e+003,1.357980e-002
1.359591e+003,1.391195e-002
1.361520e+003,1.464393e-002
1.363448e+003,1.572571e-002
1.365377e+003,1.672581e-002
1.367305e+003,1.738481e-002
1.369234e+003,1.745786e-002
1.371162e+003,1.670725e-002
1.373091e+003,1.588814e-002
1.375019e+003,1.556395e-002
1.376948e+003,1.553953e-002
1.378876e+003,1.420118e-002
1.380805e+003,1.204649e-002
1.382733e+003,1.039042e-002
1.384662e+003,9.606976e-003
1.386590e+003,9.100586e-003
1.388519e+003,8.852992e-003
1.390447e+003,8.571193e-003
1.392376e+003,8.500524e-003
1.394304e+003,8.407436e-003
1.396233e+003,8.532997e-003
1.398161e+003,8.426186e-003
1.400090e+003,8.595902e-003
1.402018e+003,8.577060e-003
1.403947e+003,8.789718e-003
1.405875e+003,8.913957e-003
1.407804e+003,9.186093e-003
1.409732e+003,9.326272e-003
1.411661e+003,9.643946e-003
1.413589e+003,9.793933e-003
1.415518e+003,1.019294e-002
1.417446e+003,1.043627e-002
1.419375e+003,1.119527e-002
1.421303e+003,1.153051e-002
1.423232e+003,1.237854e-002
1.425160e+003,1.356598e-002
1.427089e+003,1.511236e-002
1.429017e+003,1.707789e-002
1.430946e+003,1.992563e-002
1.432874e+003,2.216803e-002
1.434803e+003,2.429935e-002
1.436731e+003,2.659534e-002
1.438660e+003,2.860288e-002
1.440588e+003,2.966322e-002
1.442517e+003,3.114298e-002
1.444445e+003,3.226268e-002
1.446374e+003,3.403834e-002
1.448302e+003,3.673787e-002
1.450231e+003,4.091843e-002
1.452159e+003,4.719914e-002
1.454088e+003,5.539624e-002
1.456016e+003,6.391111e-002
1.457945e+003,8.553143e-002
1.459873e+003,1.232875e-001
1.461802e+003,1.573565e-001
1.463730e+003,1.529957e-001
1.465659e+003,1.176804e-001
1.467587e+003,1.077558e-001
1.469516e+003,1.064548e-001
1.471444e+003,1.204703e-001
1.473373e+003,1.056624e-001
1.475301e+003,5.671076e-002
1.477230e+003,2.474578e-002
1.479158e+003,1.569749e-002
1.481087e+003,1.146974e-002
1.483015e+003,9.547513e-003
1.484944e+003,8.005559e-003
1.486872e+003,7.606871e-003
1.488801e+003,6.566085e-003
1.490729e+003,6.322321e-003
1.492658e+003,5.467806e-003
1.494586e+003,5.465422e-003
1.496515e+003,4.854560e-003
1.498443e+003,4.913978e-003
1.500372e+003,4.433949e-003
1.502300e+003,4.423972e-003
1.504229e+003,4.058201e-003
1.506157e+003,4.605737e-003
1.508086e+003,3.994081e-003
1.510014e+003,4.097372e-003
1.511943e+003,3.750890e-003
1.513871e+003,3.912330e-003
1.515800e+003,3.811989e-003
1.517728e+003,4.103284e-003
1.519657e+003,3.745086e-003
1.521585e+003,4.070293e-003
1.523514e+003,3.768597e-003
1.525442e+003,3.900010e-003
1.527371e+003,3.661625e-003
1.529299e+003,3.741380e-003
1.531228e+003,3.596071e-003
1.533156e+003,3.875732e-003
1.535085e+003,3.730811e-003
1.537013e+003,3.869336e-003
1.538942e+003,3.905717e-003
1.540870e+003,4.368428e-003
1.542799e+003,3.991716e-003
1.544727e+003,3.989819e-003
1.546656e+003,3.580686e-003
1.548584e+003,3.649037e-003
1.550513e+003,3.655616e-003
1.552441e+003,3.703974e-003
1.554370e+003,3.577985e-003
1.556298e+003,3.688082e-003
1.558227e+003,3.476586e-003
1.560155e+003,3.541261e-003
1.562084e+003,3.216889e-003
1.564012e+003,3.290717e-003
1.565941e+003,3.244959e-003
1.567869e+003,3.412049e-003
1.569798e+003,3.444463e-003
1.571726e+003,3.441557e-003
1.573655e+003,3.373619e-003
1.575583e+003,3.653396e-003
1.577512e+003,3.627751e-003
1.579440e+003,3.665999e-003
1.581369e+003,3.706992e-003
1.583297e+003,3.832050e-003
1.585226e+003,3.862944e-003
1.587154e+003,4.003484e-003
1.589083e+003,3.993221e-003
1.591011e+003,4.072376e-003
1.592940e+003,4.062537e-003
1.594868e+003,4.239887e-003
1.596797e+003,4.304778e-003
1.598725e+003,4.415333e-003
1.600654e+003,4.483368e-003
1.602582e+003,4.631504e-003
1.604511e+003,4.648417e-003
1.606439e+003,4.815374e-003
1.608368e+003,4.934646e-003
1.610296e+003,5.095467e-003
1.612225e+003,5.147964e-003
1.614153e+003,5.352542e-003
1.616082e+003,5.544975e-003
1.618010e+003,5.754951e-003
1.619939e+003,5.753126e-003
1.621867e+003,5.949471e-003
1.623796e+003,6.144308e-003
1.625724e+003,6.287560e-003
1.627653e+003,6.395061e-003
1.629581e+003,6.573543e-003
1.631510e+003,6.595097e-003
1.633438e+003,6.760534e-003
1.635367e+003,7.050883e-003
1.637295e+003,7.228311e-003
1.639224e+003,7.082187e-003
1.641152e+003,7.129572e-003
1.643081e+003,7.054694e-003
1.645009e+003,7.153340e-003
1.646938e+003,7.219452e-003
1.648866e+003,7.016756e-003
1.650795e+003,6.805930e-003
1.652723e+003,7.141933e-003
1.654652e+003,6.709568e-003
1.656580e+003,6.445404e-003
1.658509e+003,6.285369e-003
1.660437e+003,6.257571e-003
1.662366e+003,6.090820e-003
1.664294e+003,5.928509e-003
1.666223e+003,5.675264e-003
1.668151e+003,5.625237e-003
1.670080e+003,5.316898e-003
1.672008e+003,5.065791e-003
1.673937e+003,4.819464e-003
1.675865e+003,4.621759e-003
1.677794e+003,4.314877e-003
1.679722e+003,4.281480e-003
1.681651e+003,4.120987e-003
1.683579e+003,4.116442e-003
1.685508e+003,3.513228e-003
1.687436e+003,3.252529e-003
1.689365e+003,2.938960e-003
1.691293e+003,2.776977e-003
1.693222e+003,2.633940e-003
1.695150e+003,2.734583e-003
1.697079e+003,2.540931e-003
1.699007e+003,2.435282e-003
1.700936e+003,2.029508e-003
1.702864e+003,1.926128e-003
1.704793e+003,1.873694e-003
1.706721e+003,1.916632e-003
1.708650e+003,1.775518e-003
1.710578e+003,1.814216e-003
1.712507e+003,1.794610e-003
1.714435e+003,2.012875e-003
1.716364e+003,2.138667e-003
1.718292e+003,2.209477e-003
1.720221e+003,1.902431e-003
1.722149e+003,1.913439e-003
1.724078e+003,1.965452e-003
1.726006e+003,2.042480e-003
1.727935e+003,2.067946e-003
1.729863e+003,2.187375e-003
1.731792e+003,2.203256e-003
1.733720e+003,2.538916e-003
1.735649e+003,2.266683e-003
1.737577e+003,2.217080e-003
1.739506e+003,2.237905e-003
1.741434e+003,2.186418e-003
1.743363e+003,2.030257e-003
1.745291e+003,1.995344e-003
1.747220e+003,1.926545e-003
1.749148e+003,1.841366e-003
1.751077e+003,1.451470e-003
1.753005e+003,1.182713e-003
1.754934e+003,9.215213e-004
1.756862e+003,7.831827e-004
1.758791e+003,5.514100e-004
1.760719e+003,5.521886e-004
1.762648e+003,4.223809e-004
1.764576e+003,2.993234e-004
1.766505e+003,1.780689e-004
1.768433e+003,2.452768e-004
1.770362e+003,2.632625e-004
1.772290e+003,3.079735e-004
1.774219e+003,-1.545623e-005
1.776147e+003,-9.781495e-005
1.778076e+003,-8.736923e-005
1.780004e+003,7.393956e-005
1.781933e+003,-2.377853e-005
1.783861e+003,-2.649799e-005
1.785790e+003,-2.022013e-004
1.787718e+003,-1.823306e-004
1.789646e+003,-4.653260e-005
1.791575e+003,2.200827e-004
1.793504e+003,-2.369285e-005
1.795432e+003,-4.794821e-005
1.797361e+003,-1.522154e-004
1.799289e+003,-1.598857e-004
1.801218e+003,-1.512542e-004
1.803146e+003,-7.378682e-005
1.805074e+003,-1.569986e-004
1.807003e+003,-2.053827e-004
1.808932e+003,-3.395192e-004
1.810860e+003,-3.037043e-004
1.812789e+003,-4.688576e-004
1.814717e+003,-6.491058e-004
1.816646e+003,-8.180924e-004
1.818574e+003,-5.576685e-004
1.820502e+003,-4.335232e-004
1.822431e+003,-2.754331e-004
1.824360e+003,-3.565922e-004
1.826288e+003,-3.623702e-004
1.828217e+003,-3.152899e-004
1.830145e+003,-1.912341e-004
1.832073e+003,-6.317496e-004
1.834002e+003,-6.533265e-004
1.835931e+003,-6.715469e-004
1.837859e+003,-5.773008e-004
1.839788e+003,-7.247515e-004
1.841716e+003,-6.115027e-004
1.843645e+003,-5.170144e-004
1.845573e+003,-5.405843e-004
1.847501e+003,-7.617958e-004
1.849430e+003,-6.890595e-004
1.851359e+003,-7.444434e-004
1.853287e+003,-6.558709e-004
1.855216e+003,-8.343607e-004
1.857144e+003,-6.873682e-004
1.859073e+003,-7.317960e-004
1.861001e+003,-5.879514e-004
1.862929e+003,-5.993694e-004
1.864858e+003,-5.200617e-004
1.866787e+003,-4.365444e-004
1.868715e+003,-2.221800e-004
1.870644e+003,-5.314425e-004
1.872572e+003,-6.054565e-004
1.874500e+003,-7.419996e-004
1.876429e+003,-5.044453e-004
1.878357e+003,-5.394146e-004
1.880286e+003,-4.276708e-004
1.882215e+003,-4.401468e-004
1.884143e+003,-3.113486e-004
1.886072e+003,-5.470514e-004
1.888000e+003,-3.513321e-004
1.889928e+003,-3.495328e-004
1.891857e+003,-1.027323e-004
1.893785e+003,6.327406e-005
1.895714e+003,5.003363e-004
1.897643e+003,2.532303e-004
1.899571e+003,3.017820e-004
1.901500e+003,3.091767e-004
1.903428e+003,3.165528e-004
1.905356e+003,3.239140e-004
1.907285e+003,3.312677e-004
1.909213e+003,3.386028e-004
1.911142e+003,3.459230e-004
1.913071e+003,3.532358e-004
1.914999e+003,3.605261e-004
1.916927e+003,3.678054e-004
1.918856e+003,3.750771e-004
1.920784e+003,3.823303e-004
1.922713e+003,3.895648e-004
1.924641e+003,3.967918e-004
1.926570e+003,4.040040e-004
1.928499e+003,4.112013e-004
1.930427e+003,4.183836e-004
1.932355e+003,4.255511e-004
1.934284e+003,4.327111e-004
1.936212e+003,4.398488e-004
1.938141e+003,4.469752e-004
1.940070e+003,4.540943e-004
1.941998e+003,4.611909e-004
1.943927e+003,4.682764e-004
1.945855e+003,4.753508e-004
1.947783e+003,4.824027e-004
1.949712e+003,4.894473e-004
1.951640e+003,4.964806e-004
1.953569e+003,5.034953e-004
1.955498e+003,5.104989e-004
1.957426e+003,5.174875e-004
1.959354e+003,5.244613e-004
1.961283e+003,5.314164e-004
1.963211e+003,5.383678e-004
1.965140e+003,5.453005e-004
1.967068e+003,5.522184e-004
1.968997e+003,5.591214e-004
1.970926e+003,5.660169e-004
1.972854e+003,5.728900e-004
1.974782e+003,5.797558e-004
1.976711e+003,5.866028e-004
1.978639e+003,5.934425e-004
1.980568e+003,6.002598e-004
1.982496e+003,6.070659e-004
1.984425e+003,6.138645e-004
1.986354e+003,6.206408e-004
1.988282e+003,6.274097e-004
1.990210e+003,6.341599e-004
1.992139e+003,6.408989e-004
1.994067e+003,6.476231e-004
1.995996e+003,6.543323e-004
1.997924e+003,6.610230e-004
1.999853e+003,6.677099e-004
2.001781e+003,6.743781e-004
2.003710e+003,6.810278e-004
2.005638e+003,6.876700e-004
2.007567e+003,6.943010e-004
2.009495e+003,7.009096e-004
2.011424e+003,7.075071e-004
2.013352e+003,7.140972e-004
2.015281e+003,7.206649e-004
2.017209e+003,7.272251e-004
2.019138e+003,7.337667e-004
2.021066e+003,7.402934e-004
2.022995e+003,7.468127e-004
2.024923e+003,7.533096e-004
2.026852e+003,7.597953e-004
2.028781e+003,7.662736e-004
2.030709e+003,7.727332e-004
2.032637e+003,7.791743e-004
2.034566e+003,7.856078e-004
2.036494e+003,7.920302e-004
2.038423e+003,7.984303e-004
2.040351e+003,8.048192e-004
2.042280e+003,8.111969e-004
2.044208e+003,8.175559e-004
2.046137e+003,8.239076e-004
2.048065e+003,8.302405e-004
2.049994e+003,8.365586e-004
2.051922e+003,8.428656e-004
2.053851e+003,8.491650e-004
2.055779e+003,8.554384e-004
2.057708e+003,8.617043e-004
2.059636e+003,8.679554e-004
2.061565e+003,8.741915e-004
2.063493e+003,8.804128e-004
2.065422e+003,8.866228e-004
2.067350e+003,8.928142e-004
2.069279e+003,8.989982e-004
2.071207e+003,9.051673e-004
2.073136e+003,9.113215e-004
2.075064e+003,9.174608e-004
2.076993e+003,9.235851e-004
2.078921e+003,9.296946e-004
2.080850e+003,9.357892e-004
2.082778e+003,9.418726e-004
2.084707e+003,9.479485e-004
2.086635e+003,9.540021e-004
2.088564e+003,9.600446e-004
2.090492e+003,9.660721e-004
2.092421e+003,9.720847e-004
2.094349e+003,9.780899e-004
2.096278e+003,9.840727e-004
2.098206e+003,9.900481e-004
2.100135e+003,9.960085e-004
2.102063e+003,1.001954e-003
2.103992e+003,1.007881e-003
2.105920e+003,1.013797e-003
2.107849e+003,1.019698e-003
2.109777e+003,1.025584e-003
2.111706e+003,1.031458e-003
2.113634e+003,1.037326e-003
2.115563e+003,1.043171e-003
2.117491e+003,1.049008e-003
2.119420e+003,1.054827e-003
2.121348e+003,1.060627e-003
2.123277e+003,1.066420e-003
2.125205e+003,1.072198e-003
2.127134e+003,1.077961e-003
2.129062e+003,1.083717e-003
2.130991e+003,1.089450e-003
2.132919e+003,1.095172e-003
2.134848e+003,1.100879e-003
2.136776e+003,1.106571e-003
2.138705e+003,1.112249e-003
2.140633e+003,1.117919e-003
2.142562e+003,1.123574e-003
2.144490e+003,1.129210e-003
2.146419e+003,1.134831e-003
2.148347e+003,1.140442e-003
2.150276e+003,1.146045e-003
2.152204e+003,1.151625e-003
2.154133e+003,1.157194e-003
2.156061e+003,1.162753e-003
2.157990e+003,1.168292e-003
2.159918e+003,1.173820e-003
2.161847e+003,1.179330e-003
2.163775e+003,1.184829e-003
2.165704e+003,1.190312e-003
2.167632e+003,1.195781e-003
2.169561e+003,1.201238e-003
2.171489e+003,1.206685e-003
2.173418e+003,1.212116e-003
2.175346e+003,1.217533e-003
2.177275e+003,1.222935e-003
2.179203e+003,1.228321e-003
2.181132e+003,1.233693e-003
2.183060e+003,1.239054e-003
2.184989e+003,1.244400e-003
2.186917e+003,1.249734e-003
2.188846e+003,1.255054e-003
2.190774e+003,1.260351e-003
2.192703e+003,1.265645e-003
2.194631e+003,1.270924e-003
2.196560e+003,1.276180e-003
2.198488e+003,1.281429e-003
2.200417e+003,1.286671e-003
2.202345e+003,1.291890e-003
2.204274e+003,1.297098e-003
2.206202e+003,1.302294e-003
2.208131e+003,1.307473e-003
2.210059e+003,1.312636e-003
2.211988e+003,1.317784e-003
2.213916e+003,1.322921e-003
2.215845e+003,1.328044e-003
2.217773e+003,1.333158e-003
2.219702e+003,1.338255e-003
2.221630e+003,1.343332e-003
2.223559e+003,1.348399e-003
2.225487e+003,1.353454e-003
2.227416e+003,1.358494e-003
2.229344e+003,1.363520e-003
2.231273e+003,1.368538e-003
2.233201e+003,1.373533e-003
2.235130e+003,1.378518e-003
2.237058e+003,1.383491e-003
2.238987e+003,1.388438e-003
2.240915e+003,1.393382e-003
2.242844e+003,1.398314e-003
2.244772e+003,1.403227e-003
2.246701e+003,1.408126e-003
2.248629e+003,1.413018e-003
2.250558e+003,1.417886e-003
2.252486e+003,1.422752e-003
2.254415e+003,1.427595e-003
2.256343e+003,1.432423e-003
2.258272e+003,1.437239e-003
2.260200e+003,1.442041e-003
2.262129e+003,1.446836e-003
2.264057e+003,1.451612e-003
2.265986e+003,1.456372e-003
2.267914e+003,1.461115e-003
2.269843e+003,1.465853e-003
2.271771e+003,1.470573e-003
2.273700e+003,1.475275e-003
2.275628e+003,1.479972e-003
2.277557e+003,1.484651e-003
2.279485e+003,1.489315e-003
2.281414e+003,1.493964e-003
2.283342e+003,1.498599e-003
2.285271e+003,1.503222e-003
2.287199e+003,1.507834e-003
2.289128e+003,1.512427e-003
2.291056e+003,1.517009e-003
2.292985e+003,1.521576e-003
2.294913e+003,1.526129e-003
2.296842e+003,1.530662e-003
2.298770e+003,1.535192e-003
2.300699e+003,1.539703e-003
2.302627e+003,1.544204e-003
2.304556e+003,1.548685e-003
2.306484e+003,1.553155e-003
2.308413e+003,1.557607e-003
2.310341e+003,1.562044e-003
2.312270e+003,1.566477e-003
2.314198e+003,1.570888e-003
2.316127e+003,1.575287e-003
2.318055e+003,1.579672e-003
2.319984e+003,1.584049e-003
2.321912e+003,1.588404e-003
2.323841e+003,1.592755e-003
2.325769e+003,1.597080e-003
2.327698e+003,1.601394e-003
2.329626e+003,1.605701e-003
2.331555e+003,1.609985e-003
2.333483e+003,1.614258e-003
2.335412e+003,1.618523e-003
2.337340e+003,1.622774e-003
2.339269e+003,1.626998e-003
2.341197e+003,1.631219e-003
2.343126e+003,1.635425e-003
2.345054e+003,1.639616e-003
2.346983e+003,1.643792e-003
2.348911e+003,1.647960e-003
2.350840e+003,1.652110e-003
2.352768e+003,1.656245e-003
2.354697e+003,1.660366e-003
2.356625e+003,1.664471e-003
2.358554e+003,1.668561e-003
2.360482e+003,1.672640e-003
2.362411e+003,1.676708e-003
2.364339e+003,1.680762e-003
2.366268e+003,1.684804e-003
2.368196e+003,1.688823e-003
2.370125e+003,1.692835e-003
2.372053e+003,1.696829e-003
2.373982e+003,1.700807e-003
2.375910e+003,1.704782e-003
2.377839e+003,1.708739e-003
2.379767e+003,1.712680e-003
2.381696e+003,1.716603e-003
2.383624e+003,1.720514e-003
2.385553e+003,1.724415e-003
2.387481e+003,1.728300e-003
2.389410e+003,1.732167e-003
2.391338e+003,1.736030e-003
2.393267e+003,1.739874e-003
2.395195e+003,1.743704e-003
2.397124e+003,1.747511e-003
2.399052e+003,1.751315e-003
2.400981e+003,1.751587e-003
2.402909e+003,1.712456e-003
2.404838e+003,1.728587e-003
2.406766e+003,1.908239e-003
2.408695e+003,2.228923e-003
2.410623e+003,2.290536e-003
2.412552e+003,2.294920e-003
2.414480e+003,2.223521e-003
2.416409e+003,2.209395e-003
2.418337e+003,2.190698e-003
2.420266e+003,2.399407e-003
2.422194e+003,2.464142e-003
2.424123e+003,2.412852e-003
2.426051e+003,2.340853e-003
2.427979e+003,2.422065e-003
2.429908e+003,2.454169e-003
2.431837e+003,2.375741e-003
2.433765e+003,2.293482e-003
2.435694e+003,2.254311e-003
2.437622e+003,2.242874e-003
2.439551e+003,2.287664e-003
2.441479e+003,2.385929e-003
2.443407e+003,2.547998e-003
2.445336e+003,2.580032e-003
2.447265e+003,2.424948e-003
2.449193e+003,2.293400e-003
2.451122e+003,2.445545e-003
2.453050e+003,2.579056e-003
2.454979e+003,2.656214e-003
2.456907e+003,2.608370e-003
2.458836e+003,2.536058e-003
2.460764e+003,2.557669e-003
2.462693e+003,2.669413e-003
2.464621e+003,2.545293e-003
2.466550e+003,2.550412e-003
2.468478e+003,2.690714e-003
2.470406e+003,2.948847e-003
2.472335e+003,2.985209e-003
2.474264e+003,2.970528e-003
2.476192e+003,2.980992e-003
2.478121e+003,2.939180e-003
2.480049e+003,2.749465e-003
2.481978e+003,2.896037e-003
2.483906e+003,3.083624e-003
2.485835e+003,3.056701e-003
2.487763e+003,2.957121e-003
2.489692e+003,3.001299e-003
2.491620e+003,3.171429e-003
2.493549e+003,3.324170e-003
2.495477e+003,3.376506e-003
2.497406e+003,3.445290e-003
2.499334e+003,3.452130e-003
2.501263e+003,3.364157e-003
2.503191e+003,3.268912e-003
2.505120e+003,3.415313e-003
2.507048e+003,3.559168e-003
2.508977e+003,3.720138e-003
2.510905e+003,3.727488e-003
2.512833e+003,3.661983e-003
2.514762e+003,3.763728e-003
2.516691e+003,3.895082e-003
2.518619e+003,3.988229e-003
2.520548e+003,4.133873e-003
2.522476e+003,4.211046e-003
2.524405e+003,4.475303e-003
2.526333e+003,4.609566e-003
2.528261e+003,4.604932e-003
2.530190e+003,4.609246e-003
2.532119e+003,4.632119e-003
2.534047e+003,4.605345e-003
2.535976e+003,4.425809e-003
2.537904e+003,4.405860e-003
2.539833e+003,4.574716e-003
2.541761e+003,4.768044e-003
2.543689e+003,4.943907e-003
2.545618e+003,5.153328e-003
2.547547e+003,5.405247e-003
2.549475e+003,5.391691e-003
2.551404e+003,5.374007e-003
2.553332e+003,5.439479e-003
2.555260e+003,5.534098e-003
2.557189e+003,5.593181e-003
2.559117e+003,5.689107e-003
2.561046e+003,5.636394e-003
2.562975e+003,5.608544e-003
2.564903e+003,5.825356e-003
2.566832e+003,6.116457e-003
2.568760e+003,6.306600e-003
2.570688e+003,6.483354e-003
2.572617e+003,6.577794e-003
2.574546e+003,6.757438e-003
2.576474e+003,6.874651e-003
2.578403e+003,6.983679e-003
2.580331e+003,7.065177e-003
2.582260e+003,7.254444e-003
2.584188e+003,7.559337e-003
2.586116e+003,7.745963e-003
2.588045e+003,7.914662e-003
2.589974e+003,8.185633e-003
2.591902e+003,8.378431e-003
2.593831e+003,8.471861e-003
2.595759e+003,8.625515e-003
2.597688e+003,8.876435e-003
2.599616e+003,8.960262e-003
2.601544e+003,9.072781e-003
2.603473e+003,9.275761e-003
2.605402e+003,9.450596e-003
2.607330e+003,9.659633e-003
2.609259e+003,9.970102e-003
2.611187e+003,1.024124e-002
2.613115e+003,1.045487e-002
2.615044e+003,1.077188e-002
2.616972e+003,1.110305e-002
2.618901e+003,1.143167e-002
2.620830e+003,1.180739e-002
2.622758e+003,1.215358e-002
2.624687e+003,1.244755e-002
2.626615e+003,1.280939e-002
2.628543e+003,1.318390e-002
2.630472e+003,1.354348e-002
2.632400e+003,1.385933e-002
2.634329e+003,1.402044e-002
2.636258e+003,1.411049e-002
2.638186e+003,1.419972e-002
2.640115e+003,1.426787e-002
2.642043e+003,1.429768e-002
2.643971e+003,1.439467e-002
2.645900e+003,1.446834e-002
2.647828e+003,1.460501e-002
2.649757e+003,1.476481e-002
2.651686e+003,1.494817e-002
2.653614e+003,1.517879e-002
2.655542e+003,1.537242e-002
2.657471e+003,1.545661e-002
2.659399e+003,1.553289e-002
2.661328e+003,1.553446e-002
2.663256e+003,1.538049e-002
2.665185e+003,1.525481e-002
2.667114e+003,1.518476e-002
2.669042e+003,1.511730e-002
2.670970e+003,1.506667e-002
2.672899e+003,1.498812e-002
2.674827e+003,1.490933e-002
2.676756e+003,1.485021e-002
2.678685e+003,1.481842e-002
2.680613e+003,1.471024e-002
2.682542e+003,1.462287e-002
2.684470e+003,1.458851e-002
2.686398e+003,1.453363e-002
2.688327e+003,1.446944e-002
2.690255e+003,1.448780e-002
2.692184e+003,1.445504e-002
2.694113e+003,1.441843e-002
2.696041e+003,1.444881e-002
2.697969e+003,1.455163e-002
2.699898e+003,1.467795e-002
2.701826e+003,1.478956e-002
2.703755e+003,1.494361e-002
2.705683e+003,1.518001e-002
2.707612e+003,1.536017e-002
2.709541e+003,1.548690e-002
2.711469e+003,1.565954e-002
2.713397e+003,1.587878e-002
2.715326e+003,1.609082e-002
2.717254e+003,1.622765e-002
2.719183e+003,1.638002e-002
2.721111e+003,1.661580e-002
2.723040e+003,1.693950e-002
2.724969e+003,1.731540e-002
2.726897e+003,1.759430e-002
2.728825e+003,1.785522e-002
2.730754e+003,1.815097e-002
2.732682e+003,1.832155e-002
2.734611e+003,1.846476e-002
2.736539e+003,1.868486e-002
2.738468e+003,1.886184e-002
2.740396e+003,1.903493e-002
2.742325e+003,1.916473e-002
2.744253e+003,1.920021e-002
2.746182e+003,1.925445e-002
2.748110e+003,1.935061e-002
2.750039e+003,1.947240e-002
2.751967e+003,1.965731e-002
2.753896e+003,1.991485e-002
2.755824e+003,2.023952e-002
2.757753e+003,2.057208e-002
2.759681e+003,2.096865e-002
2.761610e+003,2.141577e-002
2.763538e+003,2.187418e-002
2.765467e+003,2.228557e-002
2.767395e+003,2.272712e-002
2.769324e+003,2.331618e-002
2.771252e+003,2.393999e-002
2.773181e+003,2.456600e-002
2.775109e+003,2.532000e-002
2.777038e+003,2.609120e-002
2.778966e+003,2.692851e-002
2.780895e+003,2.791183e-002
2.782823e+003,2.900105e-002
2.784752e+003,3.013232e-002
2.786680e+003,3.132731e-002
2.788609e+003,3.266371e-002
2.790537e+003,3.409910e-002
2.792466e+003,3.558906e-002
2.794394e+003,3.711614e-002
2.796323e+003,3.871463e-002
2.798251e+003,4.039699e-002
2.800180e+003,4.217554e-002
2.802108e+003,4.405525e-002
2.804037e+003,4.601775e-002
2.805965e+003,4.810813e-002
2.807894e+003,5.051823e-002
2.809822e+003,5.328440e-002
2.811751e+003,5.633440e-002
2.813679e+003,5.975639e-002
2.815608e+003,6.368710e-002
2.817536e+003,6.827048e-002
2.819465e+003,7.362865e-002
2.821393e+003,7.987756e-002
2.823322e+003,8.742703e-002
2.825250e+003,9.667122e-002
2.827179e+003,1.082929e-001
2.829107e+003,1.231060e-001
2.831036e+003,1.423329e-001
2.832964e+003,1.681164e-001
2.834893e+003,2.038365e-001
2.836821e+003,2.540240e-001
2.838750e+003,3.259415e-001
2.840678e+003,4.306764e-001
2.842607e+003,5.795214e-001
2.844535e+003,7.706921e-001
2.846464e+003,9.447092e-001
2.848392e+003,9.555128e-001
2.850321e+003,7.814866e-001
2.852249e+003,5.826006e-001
2.854178e+003,4.381101e-001
2.856106e+003,3.386306e-001
2.858035e+003,2.677364e-001
2.859963e+003,2.172091e-001
2.861892e+003,1.823282e-001
2.863820e+003,1.593828e-001
2.865749e+003,1.457384e-001
2.867677e+003,1.394273e-001
2.869606e+003,1.382326e-001
2.871534e+003,1.403575e-001
2.873463e+003,1.456016e-001
2.875391e+003,1.549974e-001
2.877320e+003,1.690159e-001
2.879248e+003,1.871745e-001
2.881177e+003,2.085244e-001
2.883105e+003,2.321486e-001
2.885034e+003,2.575288e-001
2.886962e+003,2.843043e-001
2.888891e+003,3.118947e-001
2.890819e+003,3.395715e-001
2.892748e+003,3.668090e-001
2.894676e+003,3.934772e-001
2.896605e+003,4.202328e-001
2.898533e+003,4.482065e-001
2.900462e+003,4.795521e-001
2.902390e+003,5.174072e-001
2.904319e+003,5.665589e-001
2.906247e+003,6.331065e-001
2.908176e+003,7.230724e-001
2.910104e+003,8.393502e-001
2.912033e+003,9.692367e-001
2.913961e+003,1.064436e+000
2.915890e+003,1.062444e+000
2.917818e+003,9.626862e-001
2.919747e+003,8.247343e-001
2.921675e+003,6.934116e-001
2.923604e+003,5.825278e-001
2.925532e+003,4.920592e-001
2.927461e+003,4.175958e-001
2.929389e+003,3.547707e-001
2.931318e+003,3.007905e-001
2.933246e+003,2.542683e-001
2.935175e+003,2.143499e-001
2.937103e+003,1.802896e-001
2.939032e+003,1.514643e-001
2.940960e+003,1.273785e-001
2.942889e+003,1.079233e-001
2.944817e+003,9.273711e-002
2.946746e+003,8.143596e-002
2.948674e+003,7.349832e-002
2.950603e+003,6.819934e-002
2.952531e+003,6.433094e-002
2.954460e+003,6.060717e-002
2.956388e+003,5.662128e-002
2.958317e+003,5.231322e-002
2.960245e+003,4.782963e-002
2.962174e+003,4.322281e-002
2.964102e+003,3.857826e-002
2.966031e+003,3.416984e-002
2.967959e+003,3.021756e-002
2.969888e+003,2.677740e-002
2.971816e+003,2.392194e-002
2.973745e+003,2.157428e-002
2.975673e+003,1.964059e-002
2.977602e+003,1.797582e-002
2.979530e+003,1.654956e-002
2.981459e+003,1.535721e-002
2.983387e+003,1.448393e-002
2.985316e+003,1.372186e-002
2.987244e+003,1.290732e-002
2.989173e+003,1.221687e-002
2.991101e+003,1.168251e-002
2.993030e+003,1.126350e-002
2.994958e+003,1.099236e-002
2.996887e+003,1.072729e-002
2.998815e+003,1.043376e-002
3.000744e+003,1.012000e-002
3.002672e+003,9.865843e-003
3.004601e+003,9.671435e-003
3.006529e+003,9.526491e-003
3.008458e+003,9.369511e-003
3.010386e+003,9.259261e-003
3.012315e+003,9.190135e-003
3.014243e+003,9.129956e-003
3.016172e+003,9.042233e-003
3.018100e+003,8.979660e-003
3.020029e+003,8.986577e-003
3.021957e+003,8.921005e-003
3.023886e+003,8.847855e-003
3.025814e+003,8.867953e-003
3.027743e+003,8.773427e-003
3.029671e+003,8.671172e-003
3.031600e+003,8.638628e-003
3.033528e+003,8.613225e-003
3.035457e+003,8.524705e-003
3.037385e+003,8.386530e-003
3.039314e+003,8.234728e-003
3.041242e+003,8.162752e-003
3.043171e+003,8.086100e-003
3.045099e+003,8.018151e-003
3.047028e+003,7.982388e-003
3.048956e+003,7.919893e-003
3.050885e+003,7.831480e-003
3.052813e+003,7.736459e-003
3.054742e+003,7.731754e-003
3.056670e+003,7.848632e-003
3.058599e+003,7.842474e-003
3.060527e+003,7.770292e-003
3.062456e+003,7.833403e-003
3.064384e+003,7.946413e-003
3.066313e+003,7.929146e-003
3.068241e+003,7.961746e-003
3.070170e+003,8.029997e-003
3.072098e+003,8.094363e-003
3.074027e+003,8.141980e-003
3.075955e+003,8.242600e-003
3.077884e+003,8.324996e-003
3.079812e+003,8.356389e-003
3.081741e+003,8.379668e-003
3.083669e+003,8.456025e-003
3.085598e+003,8.487523e-003
3.087526e+003,8.483328e-003
3.089455e+003,8.519381e-003
3.091383e+003,8.488335e-003
3.093312e+003,8.436449e-003
3.095240e+003,8.431178e-003
3.097169e+003,8.393940e-003
3.099097e+003,8.381374e-003
3.101026e+003,8.316260e-003
3.102954e+003,8.322198e-003
3.104883e+003,8.408528e-003
3.106811e+003,8.543152e-003
3.108740e+003,8.638367e-003
3.110668e+003,8.607503e-003
3.112597e+003,8.602507e-003
3.114525e+003,8.779883e-003
3.116454e+003,8.925315e-003
3.118382e+003,9.015489e-003
3.120311e+003,9.096187e-003
3.122239e+003,9.258419e-003
3.124168e+003,9.511404e-003
3.126096e+003,9.782184e-003
3.128025e+003,9.807996e-003
3.129953e+003,9.895533e-003
3.131882e+003,1.009353e-002
3.133810e+003,1.031125e-002
3.135739e+003,1.046699e-002
3.137667e+003,1.057013e-002
3.139596e+003,1.081171e-002
3.141524e+003,1.106085e-002
3.143453e+003,1.122205e-002
3.145381e+003,1.146058e-002
3.147310e+003,1.170373e-002
3.149238e+003,1.193575e-002
3.151167e+003,1.205774e-002
3.153095e+003,1.224533e-002
3.155024e+003,1.249667e-002
3.156952e+003,1.276482e-002
3.158881e+003,1.302745e-002
3.160809e+003,1.326844e-002
3.162738e+003,1.348331e-002
3.164666e+003,1.374561e-002
3.166594e+003,1.407168e-002
3.168523e+003,1.429548e-002
3.170452e+003,1.444400e-002
3.172380e+003,1.464113e-002
3.174309e+003,1.486984e-002
3.176237e+003,1.513800e-002
3.178166e+003,1.545706e-002
3.180094e+003,1.573914e-002
3.182022e+003,1.596225e-002
3.183951e+003,1.629559e-002
3.185880e+003,1.647538e-002
3.187808e+003,1.667204e-002
3.189737e+003,1.697922e-002
3.191665e+003,1.716357e-002
3.193594e+003,1.733449e-002
3.195522e+003,1.766346e-002
3.197450e+003,1.807536e-002
3.199379e+003,1.835836e-002
3.201308e+003,1.861858e-002
3.203236e+003,1.880918e-002
3.205165e+003,1.899349e-002
3.207093e+003,1.925811e-002
3.209021e+003,1.949207e-002
3.210950e+003,1.974710e-002
3.212878e+003,2.008848e-002
3.214807e+003,2.043587e-002
3.216736e+003,2.059612e-002
3.218664e+003,2.080070e-002
3.220593e+003,2.115955e-002
3.222521e+003,2.148728e-002
3.224449e+003,2.166764e-002
3.226378e+003,2.191449e-002
3.228307e+003,2.218246e-002
3.230235e+003,2.236367e-002
3.232164e+003,2.262327e-002
3.234092e+003,2.297557e-002
3.236021e+003,2.321105e-002
3.237949e+003,2.338275e-002
3.239877e+003,2.358158e-002
3.241806e+003,2.380668e-002
3.243735e+003,2.417576e-002
3.245663e+003,2.452853e-002
3.247592e+003,2.477264e-002
3.249520e+003,2.499723e-002
3.251448e+003,2.526189e-002
3.253377e+003,2.558555e-002
3.255305e+003,2.588724e-002
3.257234e+003,2.617827e-002
3.259163e+003,2.640918e-002
3.261091e+003,2.664346e-002
3.263020e+003,2.692263e-002
3.264948e+003,2.722983e-002
3.266876e+003,2.741464e-002
3.268805e+003,2.765199e-002
3.270733e+003,2.791932e-002
3.272662e+003,2.818110e-002
3.274591e+003,2.845372e-002
3.276519e+003,2.865893e-002
3.278448e+003,2.877525e-002
3.280376e+003,2.904826e-002
3.282304e+003,2.928971e-002
3.284233e+003,2.939508e-002
3.286161e+003,2.956633e-002
3.288090e+003,2.984759e-002
3.290019e+003,3.011906e-002
3.291947e+003,3.040509e-002
3.293875e+003,3.055787e-002
3.295804e+003,3.064571e-002
3.297732e+003,3.084396e-002
3.299661e+003,3.106766e-002
3.301589e+003,3.129994e-002
3.303518e+003,3.148757e-002
3.305447e+003,3.162482e-002
3.307375e+003,3.181612e-002
3.309303e+003,3.197926e-002
3.311232e+003,3.213166e-002
3.313160e+003,3.233178e-002
3.315089e+003,3.252390e-002
3.317018e+003,3.260243e-002
3.318946e+003,3.269785e-002
3.320875e+003,3.301644e-002
3.322803e+003,3.331599e-002
3.324731e+003,3.347773e-002
3.326660e+003,3.365133e-002
3.328588e+003,3.389337e-002
3.330517e+003,3.402143e-002
3.332446e+003,3.407183e-002
3.334374e+003,3.422387e-002
3.336302e+003,3.438081e-002
3.338231e+003,3.457299e-002
3.340159e+003,3.472081e-002
3.342088e+003,3.486498e-002
3.344016e+003,3.496835e-002
3.345945e+003,3.509581e-002
3.347874e+003,3.523171e-002
3.349802e+003,3.535360e-002
3.351730e+003,3.552810e-002
3.353659e+003,3.562298e-002
3.355587e+003,3.570400e-002
3.357516e+003,3.571142e-002
3.359444e+003,3.581055e-002
3.361373e+003,3.596051e-002
3.363302e+003,3.601804e-002
3.365230e+003,3.602432e-002
3.367158e+003,3.604924e-002
3.369087e+003,3.614491e-002
3.371015e+003,3.609251e-002
3.372944e+003,3.613935e-002
3.374872e+003,3.619079e-002
3.376801e+003,3.612780e-002
3.378729e+003,3.611237e-002
3.380658e+003,3.608992e-002
3.382586e+003,3.608304e-002
3.384515e+003,3.613815e-002
3.386443e+003,3.609671e-002
3.388372e+003,3.603258e-002
3.390300e+003,3.599122e-002
3.392229e+003,3.589738e-002
3.394157e+003,3.570797e-002
3.396086e+003,3.561430e-002
3.398014e+003,3.566310e-002
3.399943e+003,3.565860e-002
3.401871e+003,3.550031e-002
3.403800e+003,3.542797e-002
3.405728e+003,3.528252e-002
3.407657e+003,3.513870e-002
3.409585e+003,3.501879e-002
3.411514e+003,3.492693e-002
3.413442e+003,3.473332e-002
3.415371e+003,3.449661e-002
3.417299e+003,3.427166e-002
3.419228e+003,3.415837e-002
3.421156e+003,3.398453e-002
3.423085e+003,3.384326e-002
3.425013e+003,3.367448e-002
3.426942e+003,3.347830e-002
3.428870e+003,3.325457e-002
3.430799e+003,3.305697e-002
3.432727e+003,3.282243e-002
3.434656e+003,3.257705e-002
3.436584e+003,3.238826e-002
3.438513e+003,3.223504e-002
3.440441e+003,3.201684e-002
3.442370e+003,3.174332e-002
3.444298e+003,3.135382e-002
3.446227e+003,3.121667e-002
3.448155e+003,3.094794e-002
3.450084e+003,3.060031e-002
3.452012e+003,3.046237e-002
3.453941e+003,3.029117e-002
3.455869e+003,2.990469e-002
3.457798e+003,2.954610e-002
3.459726e+003,2.932560e-002
3.461655e+003,2.918192e-002
3.463583e+003,2.888057e-002
3.465512e+003,2.854819e-002
3.467440e+003,2.816895e-002
3.469369e+003,2.786680e-002
3.471297e+003,2.768248e-002
3.473226e+003,2.735673e-002
3.475154e+003,2.694531e-002
3.477083e+003,2.658224e-002
3.479011e+003,2.632999e-002
3.480940e+003,2.622456e-002
3.482868e+003,2.578973e-002
3.484797e+003,2.536792e-002
3.486725e+003,2.507550e-002
3.488654e+003,2.475082e-002
3.490582e+003,2.449471e-002
3.492511e+003,2.422493e-002
3.494439e+003,2.392632e-002
3.496368e+003,2.368221e-002
3.498296e+003,2.334228e-002
3.500225e+003,2.309924e-002
3.502153e+003,2.288762e-002
3.504082e+003,2.246275e-002
3.506010e+003,2.198005e-002
3.507939e+003,2.165273e-002
3.509867e+003,2.135286e-002
3.511796e+003,2.090979e-002
3.513724e+003,2.045313e-002
3.515653e+003,2.019008e-002
3.517581e+003,1.998101e-002
3.519510e+003,1.971722e-002
3.521438e+003,1.940101e-002
3.523367e+003,1.900471e-002
3.525295e+003,1.845755e-002
3.527224e+003,1.809566e-002
3.529152e+003,1.774817e-002
3.531081e+003,1.728585e-002
3.533009e+003,1.677065e-002
3.534938e+003,1.643316e-002
3.536866e+003,1.610303e-002
3.538795e+003,1.568225e-002
3.540723e+003,1.525032e-002
3.542652e+003,1.491351e-002
3.544580e+003,1.461647e-002
3.546509e+003,1.432709e-002
3.548437e+003,1.397498e-002
3.550366e+003,1.366033e-002
3.552294e+003,1.334389e-002
3.554223e+003,1.283193e-002
3.556151e+003,1.242523e-002
3.558080e+003,1.206505e-002
3.560008e+003,1.179545e-002
3.561937e+003,1.155507e-002
3.563865e+003,1.137659e-002
3.565794e+003,1.125968e-002
3.567722e+003,1.082222e-002
3.569651e+003,1.019704e-002
3.571579e+003,9.766795e-003
3.573508e+003,9.370841e-003
3.575436e+003,8.982159e-003
3.577365e+003,8.805037e-003
3.579293e+003,8.621141e-003
3.581222e+003,8.225076e-003
3.583150e+003,7.920459e-003
3.585079e+003,7.811174e-003
3.587007e+003,7.954642e-003
3.588936e+003,7.599890e-003
3.590864e+003,7.271089e-003
3.592793e+003,7.343322e-003
3.594721e+003,7.216029e-003
3.596650e+003,6.959811e-003
3.598578e+003,6.921656e-003
3.600507e+003,6.868169e-003
3.602435e+003,6.483935e-003
3.604364e+003,6.253324e-003
3.606292e+003,6.179288e-003
3.608221e+003,5.963370e-003
3.610149e+003,5.714953e-003
3.612078e+003,5.736798e-003
3.614006e+003,5.112678e-003
3.615935e+003,4.261695e-003
3.617863e+003,3.993206e-003
3.619792e+003,4.011087e-003
3.621720e+003,3.454454e-003
3.623649e+003,3.017522e-003
3.625577e+003,2.777554e-003
3.627506e+003,3.122434e-003
3.629434e+003,3.214255e-003
3.631363e+003,2.589360e-003
3.633291e+003,2.354614e-003
3.635220e+003,1.964033e-003
3.637148e+003,1.772590e-003
3.639077e+003,1.914367e-003
3.641005e+003,1.733571e-003
3.642934e+003,1.439549e-003
3.644862e+003,1.383826e-003
3.646791e+003,1.816042e-003
3.648719e+003,1.766644e-003
3.650648e+003,1.318917e-003
3.652576e+003,7.152185e-004
3.654505e+003,7.236153e-004
3.656433e+003,5.404875e-004
3.658362e+003,2.674684e-004
3.660290e+003,2.311915e-004
3.662219e+003,-8.314848e-005
3.664147e+003,-4.000515e-004
3.666076e+003,-3.317520e-004
3.668004e+003,9.968877e-006
3.669933e+003,5.736202e-004
3.671861e+003,1.437962e-004
3.673790e+003,3.028736e-004
3.675718e+003,4.292279e-004
3.677647e+003,-4.105493e-004
3.679575e+003,-4.379749e-004
3.681504e+003,-5.228668e-004
3.683432e+003,-5.999431e-004
3.685361e+003,-4.932359e-004
3.687289e+003,-2.037138e-004
3.689218e+003,-2.068281e-005
3.691146e+003,-5.512908e-004
3.693075e+003,-9.212345e-004
3.695003e+003,-8.292124e-004
3.696932e+003,-6.955490e-004
3.698860e+003,-7.333159e-004
3.700789e+003,-5.145222e-004
3.702717e+003,-4.694536e-004
3.704646e+003,-6.729886e-004
3.706574e+003,-7.112250e-004
3.708503e+003,-2.853423e-004
3.710431e+003,1.676232e-004
3.712360e+003,-2.979785e-004
3.714288e+003,-7.741228e-004
3.716217e+003,-8.215383e-004
3.718145e+003,-7.536709e-004
3.720074e+003,-5.935207e-004
3.722002e+003,-4.611909e-004
3.723931e+003,-5.697832e-004
3.725859e+003,-4.972592e-004
3.727788e+003,-6.202087e-004
3.729716e+003,-6.426871e-004
3.731645e+003,-1.843497e-004
3.733573e+003,3.570914e-004
3.735502e+003,9.773299e-004
3.737430e+003,2.896711e-004
3.739359e+003,-2.157092e-004
3.741287e+003,-3.536791e-004
3.743216e+003,6.823987e-005
3.745144e+003,3.988519e-004
3.747073e+003,-3.582984e-005
3.749001e+003,3.191009e-004
3.750930e+003,5.298629e-004
3.752858e+003,-1.818463e-004
3.754787e+003,-5.032867e-004
3.756715e+003,-3.933161e-004
3.758644e+003,-2.462119e-004
3.760572e+003,-3.408939e-004
3.762501e+003,-6.020293e-004
3.764429e+003,-5.704761e-004
3.766358e+003,-4.911125e-004
3.768286e+003,-3.921986e-004
3.770215e+003,-2.479330e-004
3.772143e+003,-5.225465e-004
3.774072e+003,-5.952120e-004
3.776000e+003,-5.871728e-004
3.777929e+003,-3.778934e-004
3.779857e+003,-2.651662e-005
3.781786e+003,-1.603812e-004
3.783714e+003,-2.514645e-004
3.785643e+003,-3.833473e-004
3.787571e+003,-5.111545e-004
3.789500e+003,-5.392134e-004
3.791428e+003,-4.521385e-004
3.793357e+003,-3.537685e-004
3.795285e+003,-1.068041e-004
3.797214e+003,1.316071e-004
3.799142e+003,1.815483e-004
3.801071e+003,7.367134e-004
3.802999e+003,2.981797e-004
3.804927e+003,-1.517683e-005
3.806856e+003,2.330095e-004
3.808785e+003,-1.151860e-004
3.810713e+003,-1.805350e-004
3.812642e+003,1.007095e-004
3.814570e+003,6.307662e-004
3.816499e+003,5.901456e-004
3.818427e+003,2.899021e-004
3.820355e+003,8.125529e-004
3.822284e+003,5.496144e-004
3.824213e+003,5.967170e-005
3.826141e+003,2.013147e-004
3.828070e+003,1.983196e-004
3.829998e+003,1.575947e-004
3.831927e+003,3.154576e-004
3.833855e+003,5.751550e-004
3.835783e+003,7.591099e-004
3.837712e+003,9.434074e-004
3.839641e+003,5.574524e-004
3.841569e+003,1.260042e-004
3.843498e+003,3.014952e-004
3.845426e+003,2.463385e-004
3.847354e+003,2.701432e-004
3.849283e+003,5.344152e-004
3.851211e+003,1.158930e-003
3.853140e+003,1.880005e-003
3.855069e+003,6.755590e-004
3.856997e+003,2.303049e-004
3.858926e+003,2.335161e-004
3.860854e+003,4.420057e-004
3.862782e+003,8.526668e-004
3.864711e+003,1.264505e-003
3.866640e+003,7.771477e-004
3.868568e+003,8.731708e-004
3.870497e+003,9.046420e-004
3.872425e+003,5.727783e-004
3.874354e+003,7.547289e-004
3.876282e+003,4.907027e-004
3.878210e+003,4.482418e-004
3.880139e+003,1.076274e-003
3.882068e+003,1.144722e-003
3.883996e+003,9.530708e-004
3.885925e+003,8.230433e-004
3.887853e+003,5.807355e-004
3.889781e+003,7.821694e-004
3.891710e+003,1.070172e-003
3.893638e+003,7.398576e-004
3.895567e+003,5.928800e-004
3.897496e+003,9.109378e-004
3.899424e+003,1.188889e-003
3.901353e+003,1.146048e-003
3.903281e+003,1.252644e-003
3.905209e+003,1.034454e-003
3.907138e+003,6.706342e-004
3.909066e+003,6.035566e-004
3.910995e+003,7.017776e-004
3.912924e+003,7.373393e-004
3.914852e+003,8.285046e-004
3.916781e+003,8.927211e-004
3.918709e+003,7.410645e-004
3.920637e+003,7.207468e-004
3.922566e+003,9.094551e-004
3.924494e+003,1.073033e-003
3.926423e+003,8.648112e-004
3.928352e+003,8.447766e-004
3.930280e+003,9.101331e-004
3.932208e+003,8.969083e-004
3.934137e+003,6.957054e-004
3.936065e+003,5.693436e-004
3.937994e+003,6.379485e-004
3.939922e+003,7.145554e-004
3.941851e+003,8.364022e-004
3.943780e+003,6.913319e-004
3.945708e+003,5.613416e-004
3.947636e+003,6.372035e-004
3.949565e+003,4.830733e-004
3.951493e+003,3.545731e-004
3.953422e+003,4.827157e-004
3.955351e+003,5.684271e-004
3.957279e+003,5.407333e-004
3.959208e+003,5.975440e-004
3.961136e+003,6.405264e-004
3.963064e+003,5.628616e-004
3.964993e+003,5.228370e-004
3.966921e+003,6.381348e-004
3.968850e+003,7.297024e-004
3.970779e+003,7.795841e-004
3.972707e+003,8.093640e-004
3.974635e+003,7.812083e-004
3.976564e+003,7.483289e-004
3.978492e+003,6.334856e-004
3.980421e+003,6.395951e-004
3.982349e+003,7.567555e-004
3.984278e+003,7.842258e-004
3.986207e+003,6.438419e-004
3.988135e+003,5.537122e-004
3.990063e+003,5.597696e-004
3.991992e+003,5.383939e-004
3.993920e+003,7.137880e-004
3.995849e+003,6.903782e-004
3.997777e+003,5.668402e-004
3.999706e+003,5.376339e-004
4.001635e+003,0.000000e+000
