3.991992e+002,0.000000e+000
4.011277e+002,0.000000e+000
4.030562e+002,0.000000e+000
4.049846e+002,0.000000e+000
4.069131e+002,0.000000e+000
4.088416e+002,0.000000e+000
4.107701e+002,0.000000e+000
4.126986e+002,0.000000e+000
4.146271e+002,0.000000e+000
4.165556e+002,0.000000e+000
4.184841e+002,0.000000e+000
4.204126e+002,0.000000e+000
4.223411e+002,0.000000e+000
4.242697e+002,0.000000e+000
4.261982e+002,0.000000e+000
4.281266e+002,0.000000e+000
4.300551e+002,0.000000e+000
4.319836e+002,0.000000e+000
4.339121e+002,0.000000e+000
4.358406e+002,0.000000e+000
4.377691e+002,0.000000e+000
4.396976e+002,0.000000e+000
4.416261e+002,0.000000e+000
4.435546e+002,0.000000e+000
4.454831e+002,0.000000e+000
4.474116e+002,0.000000e+000
4.493401e+002,0.000000e+000
4.512686e+002,0.000000e+000
4.531971e+002,0.000000e+000
4.551256e+002,0.000000e+000
4.570541e+002,0.000000e+000
4.589826e+002,0.000000e+000
4.609111e+002,0.000000e+000
4.628396e+002,0.000000e+000
4.647681e+002,0.000000e+000
4.666966e+002,0.000000e+000
4.686251e+002,0.000000e+000
4.705536e+002,0.000000e+000
4.724821e+002,0.000000e+000
4.744106e+002,0.000000e+000
4.763391e+002,0.000000e+000
4.782676e+002,0.000000e+000
4.801961e+002,0.000000e+000
4.821246e+002,0.000000e+000
4.840531e+002,0.000000e+000
4.859816e+002,0.000000e+000
4.879101e+002,0.000000e+000
4.898386e+002,0.000000e+000
4.917671e+002,0.000000e+000
4.936956e+002,0.000000e+000
4.956241e+002,0.000000e+000
4.975526e+002,0.000000e+000
4.994811e+002,0.000000e+000
5.014096e+002,0.000000e+000
5.033381e+002,0.000000e+000
5.052666e+002,0.000000e+000
5.071951e+002,0.000000e+000
5.091236e+002,0.000000e+000
5.110521e+002,0.000000e+000
5.129806e+002,0.000000e+000
5.149091e+002,0.000000e+000
5.168376e+002,0.000000e+000
5.187661e+002,0.000000e+000
5.206946e+002,0.000000e+000
5.226230e+002,0.000000e+000
5.245516e+002,1.678271e-004
5.264800e+002,5.497830e-005
5.284086e+002,1.251688e-004
5.303370e+002,1.103417e-004
5.322656e+002,1.698420e-004
5.341940e+002,1.301453e-004
5.361226e+002,5.829148e-005
5.380510e+002,-1.996197e-005
5.399796e+002,5.218899e-005
5.419081e+002,1.660055e-004
5.438365e+002,8.524582e-005
5.457650e+002,-1.201779e-005
5.476935e+002,-2.699718e-005
5.496221e+002,2.351869e-005
5.515505e+002,2.366053e-004
5.534790e+002,5.897544e-004
5.554075e+002,7.506805e-004
5.573361e+002,4.519857e-004
5.592645e+002,1.234477e-004
5.611931e+002,1.374413e-004
5.631215e+002,2.569933e-004
5.650500e+002,1.425915e-004
5.669785e+002,8.025533e-005
5.689070e+002,-5.916692e-006
5.708355e+002,-1.157071e-004
5.727640e+002,-9.742612e-005
5.746925e+002,-1.288429e-004
5.766210e+002,-2.307277e-004
5.785495e+002,-1.806039e-004
5.804780e+002,-2.416787e-004
5.824065e+002,-2.298569e-004
5.843350e+002,-2.147979e-004
5.862635e+002,-3.113812e-004
5.881920e+002,-2.980605e-004
5.901205e+002,-1.291772e-004
5.920490e+002,-1.043887e-004
5.939775e+002,-1.254082e-004
5.959060e+002,-1.608110e-004
5.978345e+002,-1.892755e-004
5.997630e+002,-1.028702e-004
6.016915e+002,-9.242306e-005
6.036200e+002,-6.923592e-005
6.055485e+002,1.814216e-005
6.074770e+002,4.616892e-005
6.094055e+002,1.262017e-004
6.113340e+002,1.047784e-004
6.132625e+002,7.880619e-005
6.151910e+002,-2.239365e-006
6.171195e+002,-1.720246e-005
6.190480e+002,-9.763055e-006
6.209765e+002,1.254957e-004
6.229050e+002,2.602260e-004
6.248335e+002,4.688790e-004
6.267620e+002,5.902094e-004
6.286905e+002,5.630269e-004
6.306190e+002,4.087281e-004
6.325475e+002,4.409202e-004
6.344760e+002,5.632662e-004
6.364045e+002,7.559089e-004
6.383330e+002,8.733557e-004
6.402615e+002,9.794738e-004
6.421899e+002,9.785900e-004
6.441185e+002,8.845450e-004
6.460470e+002,7.602060e-004
6.479755e+002,7.359539e-004
6.499039e+002,6.674519e-004
6.518325e+002,6.856676e-004
6.537610e+002,6.175372e-004
6.556895e+002,6.631906e-004
6.576179e+002,8.015120e-004
6.595464e+002,8.935337e-004
6.614750e+002,8.352599e-004
6.634034e+002,8.721221e-004
6.653319e+002,7.840213e-004
6.672604e+002,8.923369e-004
6.691890e+002,9.995745e-004
6.711174e+002,1.017745e-003
6.730460e+002,1.012003e-003
6.749745e+002,1.154577e-003
6.769030e+002,1.185171e-003
6.788314e+002,1.294880e-003
6.807599e+002,1.469200e-003
6.826885e+002,1.691724e-003
6.846169e+002,1.746201e-003
6.865454e+002,1.944871e-003
6.884739e+002,2.107587e-003
6.904025e+002,2.339312e-003
6.923309e+002,2.674733e-003
6.942594e+002,3.140184e-003
6.961879e+002,3.584794e-003
6.981165e+002,4.351776e-003
7.000449e+002,5.303518e-003
7.019734e+002,6.605123e-003
7.039019e+002,8.189447e-003
7.058304e+002,1.042019e-002
7.077589e+002,1.350805e-002
7.096874e+002,1.826294e-002
7.116159e+002,2.576172e-002
7.135444e+002,3.982177e-002
7.154729e+002,6.533489e-002
7.174014e+002,1.010783e-001
7.193299e+002,1.156288e-001
7.212584e+002,8.512268e-002
7.231869e+002,5.571300e-002
7.251154e+002,4.535151e-002
7.270439e+002,4.935118e-002
7.289724e+002,6.525530e-002
7.309009e+002,6.325246e-002
7.328294e+002,3.623525e-002
7.347579e+002,1.808930e-002
7.366864e+002,1.171136e-002
7.386149e+002,9.060884e-003
7.405434e+002,7.615560e-003
7.424719e+002,6.786415e-003
7.444004e+002,6.032141e-003
7.463289e+002,5.535446e-003
7.482574e+002,5.042672e-003
7.501859e+002,4.662810e-003
7.521144e+002,4.349890e-003
7.540428e+002,4.113616e-003
7.559714e+002,3.766846e-003
7.578999e+002,3.529475e-003
7.598284e+002,3.356491e-003
7.617568e+002,3.202682e-003
7.636854e+002,2.976161e-003
7.656139e+002,2.806571e-003
7.675424e+002,2.691922e-003
7.694709e+002,2.582642e-003
7.713994e+002,2.497933e-003
7.733279e+002,2.442546e-003
7.752563e+002,2.332926e-003
7.771849e+002,2.260249e-003
7.791134e+002,2.223497e-003
7.810419e+002,2.225897e-003
7.829703e+002,2.229549e-003
7.848989e+002,2.183167e-003
7.868274e+002,2.112811e-003
7.887559e+002,2.131225e-003
7.906843e+002,2.128021e-003
7.926129e+002,2.088910e-003
7.945414e+002,2.066333e-003
7.964698e+002,2.053080e-003
7.983983e+002,2.004188e-003
8.003268e+002,1.993026e-003
8.022554e+002,2.025472e-003
8.041838e+002,1.973695e-003
8.061123e+002,1.899049e-003
8.080408e+002,1.884306e-003
8.099694e+002,1.855590e-003
8.118978e+002,1.779463e-003
8.138263e+002,1.716219e-003
8.157548e+002,1.632889e-003
8.176833e+002,1.554714e-003
8.196118e+002,1.533559e-003
8.215403e+002,1.532617e-003
8.234689e+002,1.504637e-003
8.253973e+002,1.391516e-003
8.273258e+002,1.286156e-003
8.292543e+002,1.303143e-003
8.311829e+002,1.322349e-003
8.331113e+002,1.264940e-003
8.350398e+002,1.246520e-003
8.369683e+002,1.322522e-003
8.388969e+002,1.402705e-003
8.408253e+002,1.452982e-003
8.427538e+002,1.400130e-003
8.446823e+002,1.391801e-003
8.466108e+002,1.416971e-003
8.485393e+002,1.416838e-003
8.504678e+002,1.468235e-003
8.523963e+002,1.492119e-003
8.543248e+002,1.471359e-003
8.562533e+002,1.415186e-003
8.581818e+002,1.366360e-003
8.601103e+002,1.377790e-003
8.620388e+002,1.454534e-003
8.639673e+002,1.551027e-003
8.658958e+002,1.516850e-003
8.678243e+002,1.479585e-003
8.697528e+002,1.544991e-003
8.716813e+002,1.602164e-003
8.736098e+002,1.554938e-003
8.755383e+002,1.622842e-003
8.774668e+002,1.671065e-003
8.793953e+002,1.726571e-003
8.813238e+002,1.749104e-003
8.832523e+002,1.736291e-003
8.851808e+002,1.801291e-003
8.871093e+002,1.906132e-003
8.890378e+002,1.963772e-003
8.909663e+002,1.958073e-003
8.928948e+002,1.842216e-003
8.948232e+002,1.757526e-003
8.967518e+002,1.690409e-003
8.986803e+002,1.712463e-003
9.006088e+002,1.809644e-003
9.025372e+002,1.939795e-003
9.044658e+002,2.118879e-003
9.063943e+002,2.527000e-003
9.083228e+002,2.821272e-003
9.102512e+002,2.663030e-003
9.121797e+002,2.248107e-003
9.141083e+002,1.940316e-003
9.160367e+002,1.700955e-003
9.179653e+002,1.623965e-003
9.198937e+002,1.559374e-003
9.218223e+002,1.531007e-003
9.237507e+002,1.490793e-003
9.256793e+002,1.429326e-003
9.276077e+002,1.346156e-003
9.295363e+002,1.380399e-003
9.314647e+002,1.411571e-003
9.333932e+002,1.461700e-003
9.353217e+002,1.472924e-003
9.372502e+002,1.412772e-003
9.391787e+002,1.342264e-003
9.411072e+002,1.373825e-003
9.430358e+002,1.431485e-003
9.449642e+002,1.438185e-003
9.468928e+002,1.409009e-003
9.488212e+002,1.422206e-003
9.507498e+002,1.400024e-003
9.526782e+002,1.454988e-003
9.546068e+002,1.485431e-003
9.565352e+002,1.550877e-003
9.584637e+002,1.611951e-003
9.603922e+002,1.696307e-003
9.623207e+002,1.663021e-003
9.642492e+002,1.729819e-003
9.661777e+002,1.782869e-003
9.681062e+002,1.783184e-003
9.700347e+002,1.796022e-003
9.719632e+002,1.841587e-003
9.738917e+002,1.823477e-003
9.758202e+002,1.841141e-003
9.777487e+002,1.777030e-003
9.796772e+002,1.784551e-003
9.816057e+002,1.834943e-003
9.835342e+002,1.906634e-003
9.854627e+002,1.973334e-003
9.873912e+002,2.068193e-003
9.893197e+002,2.163368e-003
9.912482e+002,2.276668e-003
9.931767e+002,2.262584e-003
9.951052e+002,2.205675e-003
9.970337e+002,2.176265e-003
9.989622e+002,2.218047e-003
1.000891e+003,2.193738e-003
1.002819e+003,2.229611e-003
1.004748e+003,2.248946e-003
1.006676e+003,2.298825e-003
1.008605e+003,2.385203e-003
1.010533e+003,2.480256e-003
1.012462e+003,2.514515e-003
1.014390e+003,2.600894e-003
1.016319e+003,2.686780e-003
1.018247e+003,2.753071e-003
1.020176e+003,2.809688e-003
1.022104e+003,2.854222e-003
1.024033e+003,2.779234e-003
1.025961e+003,2.774953e-003
1.027890e+003,2.759686e-003
1.029818e+003,2.758582e-003
1.031747e+003,2.774648e-003
1.033675e+003,2.825413e-003
1.035604e+003,2.841851e-003
1.037532e+003,2.926295e-003
1.039461e+003,2.964401e-003
1.041389e+003,3.048579e-003
1.043318e+003,3.118750e-003
1.045246e+003,3.151568e-003
1.047175e+003,3.227295e-003
1.049103e+003,3.378937e-003
1.051032e+003,3.423696e-003
1.052960e+003,3.405337e-003
1.054889e+003,3.303682e-003
1.056817e+003,3.334759e-003
1.058746e+003,3.436518e-003
1.060674e+003,3.562762e-003
1.062603e+003,3.628381e-003
1.064531e+003,3.675337e-003
1.066460e+003,3.606048e-003
1.068388e+003,3.584268e-003
1.070317e+003,3.662981e-003
1.072245e+003,3.901846e-003
1.074174e+003,4.054113e-003
1.076102e+003,4.194862e-003
1.078031e+003,4.278244e-003
1.079959e+003,4.298435e-003
1.081888e+003,4.254738e-003
1.083816e+003,4.252748e-003
1.085745e+003,4.124540e-003
1.087673e+003,4.005013e-003
1.089602e+003,3.903756e-003
1.091530e+003,3.862770e-003
1.093459e+003,3.787525e-003
1.095387e+003,3.715126e-003
1.097316e+003,3.637118e-003
1.099244e+003,3.620391e-003
1.101173e+003,3.549838e-003
1.103101e+003,3.523417e-003
1.105030e+003,3.462343e-003
1.106958e+003,3.472959e-003
1.108887e+003,3.454086e-003
1.110815e+003,3.466667e-003
1.112744e+003,3.419443e-003
1.114672e+003,3.397333e-003
1.116601e+003,3.379359e-003
1.118529e+003,3.401819e-003
1.120458e+003,3.385466e-003
1.122386e+003,3.439487e-003
1.124315e+003,3.491758e-003
1.126243e+003,3.560154e-003
1.128172e+003,3.642156e-003
1.130100e+003,3.802474e-003
1.132029e+003,3.872227e-003
1.133957e+003,4.023097e-003
1.135885e+003,4.156752e-003
1.137814e+003,4.307541e-003
1.139743e+003,4.497145e-003
1.141671e+003,4.911406e-003
1.143600e+003,5.447534e-003
1.145528e+003,6.257661e-003
1.147457e+003,7.351778e-003
1.149385e+003,8.782377e-003
1.151314e+003,1.017632e-002
1.153242e+003,1.109687e-002
1.155171e+003,1.141422e-002
1.157099e+003,1.139955e-002
1.159028e+003,1.124621e-002
1.160956e+003,1.109940e-002
1.162885e+003,1.086418e-002
1.164813e+003,1.055393e-002
1.166742e+003,1.008143e-002
1.168670e+003,9.573430e-003
1.170599e+003,8.879642e-003
1.172527e+003,8.187653e-003
1.174456e+003,7.567073e-003
1.176384e+003,7.064267e-003
1.178313e+003,6.466681e-003
1.180241e+003,5.996279e-003
1.182170e+003,5.703954e-003
1.184098e+003,5.653450e-003
1.186027e+003,5.708175e-003
1.187955e+003,5.849225e-003
1.189884e+003,6.007168e-003
1.191812e+003,6.272221e-003
1.193740e+003,6.545861e-003
1.195669e+003,6.995461e-003
1.197598e+003,7.478617e-003
1.199526e+003,8.114724e-003
1.201455e+003,8.830727e-003
1.203383e+003,9.632819e-003
1.205312e+003,1.038980e-002
1.207240e+003,1.109471e-002
1.209168e+003,1.160813e-002
1.211097e+003,1.205549e-002
1.213026e+003,1.235993e-002
1.214954e+003,1.262819e-002
1.216883e+003,1.285466e-002
1.218811e+003,1.310335e-002
1.220740e+003,1.330768e-002
1.222668e+003,1.355445e-002
1.224596e+003,1.380753e-002
1.226525e+003,1.406944e-002
1.228453e+003,1.428663e-002
1.230382e+003,1.454965e-002
1.232311e+003,1.476664e-002
1.234239e+003,1.502614e-002
1.236167e+003,1.517991e-002
1.238096e+003,1.531633e-002
1.240025e+003,1.531307e-002
1.241953e+003,1.525590e-002
1.243882e+003,1.506601e-002
1.245810e+003,1.478905e-002
1.247739e+003,1.434502e-002
1.249667e+003,1.383355e-002
1.251595e+003,1.321552e-002
1.253524e+003,1.261607e-002
1.255453e+003,1.191013e-002
1.257381e+003,1.116738e-002
1.259310e+003,1.031482e-002
1.261238e+003,9.473450e-003
1.263167e+003,8.681352e-003
1.265095e+003,8.134124e-003
1.267023e+003,7.709032e-003
1.268952e+003,7.487228e-003
1.270880e+003,7.316835e-003
1.272809e+003,7.201870e-003
1.274738e+003,7.032202e-003
1.276666e+003,7.009466e-003
1.278594e+003,7.011836e-003
1.280523e+003,7.116165e-003
1.282451e+003,7.166858e-003
1.284380e+003,7.306805e-003
1.286308e+003,7.485088e-003
1.288237e+003,7.794312e-003
1.290166e+003,8.032788e-003
1.292094e+003,8.372617e-003
1.294022e+003,8.709569e-003
1.295951e+003,9.167032e-003
1.297879e+003,9.464568e-003
1.299808e+003,9.748166e-003
1.301736e+003,9.872474e-003
1.303665e+003,9.887585e-003
1.305594e+003,9.757276e-003
1.307522e+003,9.658650e-003
1.309450e+003,9.331360e-003
1.311379e+003,9.010491e-003
1.313307e+003,8.577714e-003
1.315236e+003,8.130778e-003
1.317164e+003,7.701867e-003
1.319093e+003,7.331843e-003
1.321021e+003,6.809206e-003
1.322950e+003,6.478758e-003
1.324878e+003,6.219437e-003
1.326807e+003,6.103864e-003
1.328735e+003,6.004728e-003
1.330664e+003,6.093362e-003
1.332592e+003,6.226820e-003
1.334521e+003,6.676810e-003
1.336449e+003,7.346142e-003
1.338378e+003,8.403968e-003
1.340306e+003,9.041157e-003
1.342235e+003,9.216283e-003
1.344163e+003,9.490609e-003
1.346092e+003,1.013217e-002
1.348021e+003,1.085354e-002
1.349949e+003,1.158599e-002
1.351877e+003,1.189771e-002
1.353806e+003,1.199441e-002
1.355734e+003,1.179334e-002
1.357663e+003,1.181138e-002
1.359591e+003,1.215233e-002
1.361520e+003,1.315172e-002
1.363448e+003,1.429166e-002
1.365377e+003,1.514958e-002
1.367305e+003,1.587137e-002
1.369234e+003,1.595516e-002
1.371162e+003,1.501617e-002
1.373091e+003,1.432986e-002
1.375019e+003,1.420679e-002
1.376948e+003,1.404852e-002
1.378876e+003,1.214076e-002
1.380805e+003,9.179080e-003
1.382733e+003,7.014828e-003
1.384662e+003,6.221856e-003
1.386590e+003,5.959869e-003
1.388519e+003,5.670391e-003
1.390447e+003,5.200231e-003
1.392376e+003,5.236774e-003
1.394304e+003,5.471204e-003
1.396233e+003,5.697234e-003
1.398161e+003,5.572232e-003
1.400090e+003,5.470012e-003
1.402018e+003,5.163147e-003
1.403947e+003,5.522066e-003
1.405875e+003,5.488496e-003
1.407804e+003,5.574052e-003
1.409732e+003,5.703016e-003
1.411661e+003,6.053312e-003
1.413589e+003,6.065628e-003
1.415518e+003,6.543540e-003
1.417446e+003,7.081385e-003
1.419375e+003,8.021371e-003
1.421303e+003,8.173891e-003
1.423232e+003,9.253928e-003
1.425160e+003,1.048222e-002
1.427089e+003,1.221590e-002
1.429017e+003,1.469956e-002
1.430946e+003,1.822039e-002
1.432874e+003,2.099292e-002
1.434803e+003,2.386608e-002
1.436731e+003,2.694165e-002
1.438660e+003,2.927661e-002
1.440588e+003,3.051337e-002
1.442517e+003,3.248792e-002
1.444445e+003,3.401532e-002
1.446374e+003,3.655310e-002
1.448302e+003,4.002284e-002
1.450231e+003,4.514463e-002
1.452159e+003,5.293603e-002
1.454088e+003,6.340927e-002
1.456016e+003,7.467031e-002
1.457945e+003,1.016377e-001
1.459873e+003,1.490932e-001
1.461802e+003,1.947843e-001
1.463730e+003,1.905779e-001
1.465659e+003,1.444359e-001
1.467587e+003,1.305928e-001
1.469516e+003,1.278228e-001
1.471444e+003,1.461796e-001
1.473373e+003,1.317268e-001
1.475301e+003,7.136437e-002
1.477230e+003,3.122274e-002
1.479158e+003,1.963458e-002
1.481087e+003,1.437832e-002
1.483015e+003,1.185655e-002
1.484944e+003,9.927705e-003
1.486872e+003,9.763218e-003
1.488801e+003,9.086251e-003
1.490729e+003,8.735117e-003
1.492658e+003,7.176093e-003
1.494586e+003,7.188905e-003
1.496515e+003,6.767951e-003
1.498443e+003,6.769048e-003
1.500372e+003,5.884960e-003
1.502300e+003,5.687874e-003
1.504229e+003,5.338987e-003
1.506157e+003,6.904147e-003
1.508086e+003,6.688060e-003
1.510014e+003,6.135335e-003
1.511943e+003,5.174020e-003
1.513871e+003,5.166546e-003
1.515800e+003,5.241141e-003
1.517728e+003,5.394189e-003
1.519657e+003,5.058576e-003
1.521585e+003,5.851047e-003
1.523514e+003,5.226545e-003
1.525442e+003,5.403335e-003
1.527371e+003,4.838241e-003
1.529299e+003,4.486835e-003
1.531228e+003,4.272476e-003
1.533156e+003,4.827837e-003
1.535085e+003,4.266059e-003
1.537013e+003,4.338178e-003
1.538942e+003,4.813728e-003
1.540870e+003,6.281413e-003
1.542799e+003,5.641577e-003
1.544727e+003,5.215916e-003
1.546656e+003,4.048221e-003
1.548584e+003,4.082453e-003
1.550513e+003,3.994064e-003
1.552441e+003,3.953414e-003
1.554370e+003,3.929812e-003
1.556298e+003,4.192868e-003
1.558227e+003,5.027978e-003
1.560155e+003,4.992973e-003
1.562084e+003,3.759580e-003
1.564012e+003,3.614456e-003
1.565941e+003,3.387143e-003
1.567869e+003,3.655265e-003
1.569798e+003,3.816535e-003
1.571726e+003,3.468430e-003
1.573655e+003,3.291068e-003
1.575583e+003,3.981792e-003
1.577512e+003,3.929841e-003
1.579440e+003,3.511109e-003
1.581369e+003,3.262939e-003
1.583297e+003,3.272196e-003
1.585226e+003,3.159331e-003
1.587154e+003,3.227215e-003
1.589083e+003,3.224234e-003
1.591011e+003,3.305706e-003
1.592940e+003,3.286700e-003
1.594868e+003,3.360908e-003
1.596797e+003,3.156935e-003
1.598725e+003,3.117294e-003
1.600654e+003,3.116753e-003
1.602582e+003,3.219937e-003
1.604511e+003,3.059808e-003
1.606439e+003,3.230899e-003
1.608368e+003,3.354648e-003
1.610296e+003,3.291638e-003
1.612225e+003,3.052957e-003
1.614153e+003,3.236935e-003
1.616082e+003,3.578040e-003
1.618010e+003,3.597161e-003
1.619939e+003,3.316571e-003
1.621867e+003,3.617479e-003
1.623796e+003,3.745802e-003
1.625724e+003,3.600706e-003
1.627653e+003,3.565551e-003
1.629581e+003,3.464647e-003
1.631510e+003,3.251413e-003
1.633438e+003,3.453339e-003
1.635367e+003,4.330724e-003
1.637295e+003,4.717259e-003
1.639224e+003,4.236960e-003
1.641152e+003,4.096571e-003
1.643081e+003,4.112740e-003
1.645009e+003,4.622300e-003
1.646938e+003,5.032501e-003
1.648866e+003,4.225377e-003
1.650795e+003,3.877827e-003
1.652723e+003,4.877684e-003
1.654652e+003,4.433132e-003
1.656580e+003,3.689157e-003
1.658509e+003,3.166312e-003
1.660437e+003,3.173402e-003
1.662366e+003,3.249427e-003
1.664294e+003,2.922978e-003
1.666223e+003,2.695734e-003
1.668151e+003,3.176161e-003
1.670080e+003,3.427538e-003
1.672008e+003,3.131909e-003
1.673937e+003,2.942989e-003
1.675865e+003,2.758274e-003
1.677794e+003,2.382234e-003
1.679722e+003,2.592074e-003
1.681651e+003,2.617875e-003
1.683579e+003,3.156925e-003
1.685508e+003,2.848601e-003
1.687436e+003,2.606856e-003
1.689365e+003,2.301725e-003
1.691293e+003,1.816168e-003
1.693222e+003,1.522619e-003
1.695150e+003,2.012493e-003
1.697079e+003,2.374861e-003
1.699007e+003,2.511505e-003
1.700936e+003,2.392584e-003
1.702864e+003,2.235048e-003
1.704793e+003,2.213875e-003
1.706721e+003,2.009183e-003
1.708650e+003,1.558548e-003
1.710578e+003,1.397379e-003
1.712507e+003,1.352964e-003
1.714435e+003,1.858542e-003
1.716364e+003,2.363531e-003
1.718292e+003,2.383336e-003
1.720221e+003,1.455268e-003
1.722149e+003,1.211872e-003
1.724078e+003,9.879060e-004
1.726006e+003,7.365961e-004
1.727935e+003,6.229449e-004
1.729863e+003,8.122101e-004
1.731792e+003,8.322708e-004
1.733720e+003,1.120890e-003
1.735649e+003,-1.546927e-005
1.737577e+003,-5.427040e-004
1.739506e+003,-1.013903e-003
1.741434e+003,-1.357436e-003
1.743363e+003,-1.416057e-003
1.745291e+003,-1.213755e-003
1.747220e+003,-6.713513e-004
1.749148e+003,8.963235e-005
1.751077e+003,2.578776e-004
1.753005e+003,9.158999e-005
1.754934e+003,-2.015382e-006
1.756862e+003,3.146622e-004
1.758791e+003,2.122466e-004
1.760719e+003,4.174039e-004
1.762648e+003,3.911871e-004
1.764576e+003,2.717171e-004
1.766505e+003,3.346205e-004
1.768433e+003,4.811864e-004
1.770362e+003,6.266013e-004
1.772290e+003,1.036566e-003
1.774219e+003,6.606858e-004
1.776147e+003,3.993250e-004
1.778076e+003,2.276879e-004
1.780004e+003,4.447680e-004
1.781933e+003,2.930481e-004
1.783861e+003,3.028512e-004
1.785790e+003,6.895512e-005
1.787718e+003,-9.077415e-005
1.789646e+003,7.340685e-005
1.791575e+003,6.299391e-004
1.793504e+003,4.906878e-004
1.795432e+003,4.523750e-004
1.797361e+003,2.793577e-004
1.799289e+003,3.772806e-004
1.801218e+003,3.613457e-004
1.803146e+003,1.461823e-004
1.805074e+003,-1.877602e-004
1.807003e+003,-1.989920e-004
1.808932e+003,-1.745448e-004
1.810860e+003,2.399087e-006
1.812789e+003,-2.624281e-004
1.814717e+003,-5.422123e-004
1.816646e+003,-7.051602e-004
1.818574e+003,-4.793741e-004
1.820502e+003,-4.716367e-004
1.822431e+003,-3.124587e-004
1.824360e+003,-2.266970e-004
1.826288e+003,-2.031680e-004
1.828217e+003,-1.432151e-004
1.830145e+003,-1.437422e-004
1.832073e+003,-6.830897e-004
1.834002e+003,-7.651299e-004
1.835931e+003,-8.505397e-004
1.837859e+003,-8.322597e-004
1.839788e+003,-1.146734e-003
1.841716e+003,-1.020167e-003
1.843645e+003,-8.403026e-004
1.845573e+003,-5.150400e-004
1.847501e+003,-7.176921e-004
1.849430e+003,-8.621663e-004
1.851359e+003,-9.797327e-004
1.853287e+003,-9.505302e-004
1.855216e+003,-1.200607e-003
1.857144e+003,-1.077749e-003
1.859073e+003,-1.114504e-003
1.861001e+003,-1.099335e-003
1.862929e+003,-1.310678e-003
1.864858e+003,-1.135767e-003
1.866787e+003,-9.226799e-004
1.868715e+003,-5.459450e-004
1.870644e+003,-9.139702e-004
1.872572e+003,-1.074923e-003
1.874500e+003,-1.180245e-003
1.876429e+003,-1.067201e-003
1.878357e+003,-1.183525e-003
1.880286e+003,-1.130266e-003
1.882215e+003,-1.263656e-003
1.884143e+003,-9.777527e-004
1.886072e+003,-1.015672e-003
1.888000e+003,-7.326305e-004
1.889928e+003,-4.866328e-004
1.891857e+003,-1.545586e-004
1.893785e+003,-1.906194e-004
1.895714e+003,-2.704840e-004
1.897643e+003,-5.472451e-004
1.899571e+003,-5.146228e-004
1.901500e+003,-5.087070e-004
1.903428e+003,-5.028024e-004
1.905356e+003,-4.969072e-004
1.907285e+003,-4.910249e-004
1.909213e+003,-4.851557e-004
1.911142e+003,-4.792977e-004
1.913071e+003,-4.734527e-004
1.914999e+003,-4.676152e-004
1.916927e+003,-4.617944e-004
1.918856e+003,-4.559830e-004
1.920784e+003,-4.501827e-004
1.922713e+003,-4.443936e-004
1.924641e+003,-4.386175e-004
1.926570e+003,-4.328527e-004
1.928499e+003,-4.270989e-004
1.930427e+003,-4.213583e-004
1.932355e+003,-4.156288e-004
1.934284e+003,-4.099123e-004
1.936212e+003,-4.042033e-004
1.938141e+003,-3.985092e-004
1.940070e+003,-3.928263e-004
1.941998e+003,-3.871545e-004
1.943927e+003,-3.814939e-004
1.945855e+003,-3.758464e-004
1.947783e+003,-3.702082e-004
1.949712e+003,-3.645848e-004
1.951640e+003,-3.589727e-004
1.953569e+003,-3.533717e-004
1.955498e+003,-3.477819e-004
1.957426e+003,-3.422014e-004
1.959354e+003,-3.366359e-004
1.961283e+003,-3.310814e-004
1.963211e+003,-3.255382e-004
1.965140e+003,-3.200080e-004
1.967068e+003,-3.144871e-004
1.968997e+003,-3.089774e-004
1.970926e+003,-3.034826e-004
1.972854e+003,-2.979971e-004
1.974782e+003,-2.925247e-004
1.976711e+003,-2.870634e-004
1.978639e+003,-2.816133e-004
1.980568e+003,-2.761763e-004
1.982496e+003,-2.707485e-004
1.984425e+003,-2.653357e-004
1.986354e+003,-2.599321e-004
1.988282e+003,-2.545398e-004
1.990210e+003,-2.491605e-004
1.992139e+003,-2.437923e-004
1.994067e+003,-2.384372e-004
1.995996e+003,-2.330914e-004
1.997924e+003,-2.277587e-004
1.999853e+003,-2.224371e-004
2.001781e+003,-2.171285e-004
2.003710e+003,-2.118275e-004
2.005638e+003,-2.065450e-004
2.007567e+003,-2.012663e-004
2.009495e+003,-1.960061e-004
2.011424e+003,-1.907535e-004
2.013352e+003,-1.855157e-004
2.015281e+003,-1.802873e-004
2.017209e+003,-1.750700e-004
2.019138e+003,-1.698639e-004
2.021066e+003,-1.646709e-004
2.022995e+003,-1.594909e-004
2.024923e+003,-1.543220e-004
2.026852e+003,-1.491643e-004
2.028781e+003,-1.440179e-004
2.030709e+003,-1.388825e-004
2.032637e+003,-1.337584e-004
2.034566e+003,-1.286473e-004
2.036494e+003,-1.235493e-004
2.038423e+003,-1.184605e-004
2.040351e+003,-1.133848e-004
2.042280e+003,-1.083203e-004
2.044208e+003,-1.032669e-004
2.046137e+003,-9.822659e-005
2.048065e+003,-9.319745e-005
2.049994e+003,-8.817762e-005
2.051922e+003,-8.317269e-005
2.053851e+003,-7.818080e-005
2.055779e+003,-7.319637e-005
2.057708e+003,-6.822310e-005
2.059636e+003,-6.326474e-005
2.061565e+003,-5.831756e-005
2.063493e+003,-5.338155e-005
2.065422e+003,-4.845485e-005
2.067350e+003,-4.353933e-005
2.069279e+003,-3.864244e-005
2.071207e+003,-3.375113e-005
2.073136e+003,-2.887473e-005
2.075064e+003,-2.400763e-005
2.076993e+003,-1.915358e-005
2.078921e+003,-1.430884e-005
2.080850e+003,-9.477139e-006
2.082778e+003,-4.658476e-006
2.084707e+003,1.490116e-007
2.086635e+003,4.945323e-006
2.088564e+003,9.728596e-006
2.090492e+003,1.450256e-005
2.092421e+003,1.926534e-005
2.094349e+003,2.401322e-005
2.096278e+003,2.874993e-005
2.098206e+003,3.347546e-005
2.100135e+003,3.818981e-005
2.102063e+003,4.289486e-005
2.103992e+003,4.758500e-005
2.105920e+003,5.226582e-005
2.107849e+003,5.693175e-005
2.109777e+003,6.158836e-005
2.111706e+003,6.623380e-005
2.113634e+003,7.086433e-005
2.115563e+003,7.548369e-005
2.117491e+003,8.009560e-005
2.119420e+003,8.469447e-005
2.121348e+003,8.928031e-005
2.123277e+003,9.385310e-005
2.125205e+003,9.841472e-005
2.127134e+003,1.029689e-004
2.129062e+003,1.075063e-004
2.130991e+003,1.120381e-004
2.132919e+003,1.165513e-004
2.134848e+003,1.210570e-004
2.136776e+003,1.255479e-004
2.138705e+003,1.300313e-004
2.140633e+003,1.344997e-004
2.142562e+003,1.389571e-004
2.144490e+003,1.434032e-004
2.146419e+003,1.478381e-004
2.148347e+003,1.522601e-004
2.150276e+003,1.566708e-004
2.152204e+003,1.610704e-004
2.154133e+003,1.654588e-004
2.156061e+003,1.698323e-004
2.157990e+003,1.741983e-004
2.159918e+003,1.785513e-004
2.161847e+003,1.828913e-004
2.163775e+003,1.872219e-004
2.165704e+003,1.915414e-004
2.167632e+003,1.958460e-004
2.169561e+003,2.001394e-004
2.171489e+003,2.044216e-004
2.173418e+003,2.086926e-004
2.175346e+003,2.129506e-004
2.177275e+003,2.171993e-004
2.179203e+003,2.214350e-004
2.181132e+003,2.256613e-004
2.183060e+003,2.298728e-004
2.184989e+003,2.340730e-004
2.186917e+003,2.382621e-004
2.188846e+003,2.424400e-004
2.190774e+003,2.466086e-004
2.192703e+003,2.507623e-004
2.194631e+003,2.549030e-004
2.196560e+003,2.590343e-004
2.198488e+003,2.631564e-004
2.200417e+003,2.672598e-004
2.202345e+003,2.713576e-004
2.204274e+003,2.754405e-004
2.206202e+003,2.795141e-004
2.208131e+003,2.835747e-004
2.210059e+003,2.876259e-004
2.211988e+003,2.916623e-004
2.213916e+003,2.956912e-004
2.215845e+003,2.997052e-004
2.217773e+003,3.037062e-004
2.219702e+003,3.076978e-004
2.221630e+003,3.116783e-004
2.223559e+003,3.156438e-004
2.225487e+003,3.196001e-004
2.227416e+003,3.235433e-004
2.229344e+003,3.274772e-004
2.231273e+003,3.313962e-004
2.233201e+003,3.353059e-004
2.235130e+003,3.392026e-004
2.237058e+003,3.430881e-004
2.238987e+003,3.469624e-004
2.240915e+003,3.508274e-004
2.242844e+003,3.546793e-004
2.244772e+003,3.585164e-004
2.246701e+003,3.623422e-004
2.248629e+003,3.661569e-004
2.250558e+003,3.699623e-004
2.252486e+003,3.737547e-004
2.254415e+003,3.775358e-004
2.256343e+003,3.813058e-004
2.258272e+003,3.850628e-004
2.260200e+003,3.888085e-004
2.262129e+003,3.925432e-004
2.264057e+003,3.962647e-004
2.265986e+003,3.999788e-004
2.267914e+003,4.036762e-004
2.269843e+003,4.073642e-004
2.271771e+003,4.110392e-004
2.273700e+003,4.147049e-004
2.275628e+003,4.183538e-004
2.277557e+003,4.219972e-004
2.279485e+003,4.256256e-004
2.281414e+003,4.292447e-004
2.283342e+003,4.328508e-004
2.285271e+003,4.364438e-004
2.287199e+003,4.400257e-004
2.289128e+003,4.435945e-004
2.291056e+003,4.471522e-004
2.292985e+003,4.507042e-004
2.294913e+003,4.542377e-004
2.296842e+003,4.577637e-004
2.298770e+003,4.612748e-004
2.300699e+003,4.647765e-004
2.302627e+003,4.682615e-004
2.304556e+003,4.717428e-004
2.306484e+003,4.752055e-004
2.308413e+003,4.786607e-004
2.310341e+003,4.821029e-004
2.312270e+003,4.855376e-004
2.314198e+003,4.889555e-004
2.316127e+003,4.923623e-004
2.318055e+003,4.957598e-004
2.319984e+003,4.991405e-004
2.321912e+003,5.025119e-004
2.323841e+003,5.058739e-004
2.325769e+003,5.092230e-004
2.327698e+003,5.125590e-004
2.329626e+003,5.158857e-004
2.331555e+003,5.191993e-004
2.333483e+003,5.225036e-004
2.335412e+003,5.257931e-004
2.337340e+003,5.290732e-004
2.339269e+003,5.323384e-004
2.341197e+003,5.355943e-004
2.343126e+003,5.388409e-004
2.345054e+003,5.420744e-004
2.346983e+003,5.452931e-004
2.348911e+003,5.485024e-004
2.350840e+003,5.516987e-004
2.352768e+003,5.548839e-004
2.354697e+003,5.580597e-004
2.356625e+003,5.612224e-004
2.358554e+003,5.643722e-004
2.360482e+003,5.675107e-004
2.362411e+003,5.706400e-004
2.364339e+003,5.737524e-004
2.366268e+003,5.768556e-004
2.368196e+003,5.799495e-004
2.370125e+003,5.830284e-004
2.372053e+003,5.860981e-004
2.373982e+003,5.891584e-004
2.375910e+003,5.922019e-004
2.377839e+003,5.952343e-004
2.379767e+003,5.982555e-004
2.381696e+003,6.012674e-004
2.383624e+003,6.042663e-004
2.385553e+003,6.072540e-004
2.387481e+003,6.102286e-004
2.389410e+003,6.131921e-004
2.391338e+003,6.161444e-004
2.393267e+003,6.190855e-004
2.395195e+003,6.220136e-004
2.397124e+003,6.249342e-004
2.399052e+003,6.278381e-004
2.400981e+003,6.561242e-004
2.402909e+003,6.170124e-004
2.404838e+003,6.791912e-004
2.406766e+003,9.341538e-004
2.408695e+003,1.245752e-003
2.410623e+003,1.366151e-003
2.412552e+003,1.304118e-003
2.414480e+003,1.032902e-003
2.416409e+003,9.422656e-004
2.418337e+003,9.809211e-004
2.420266e+003,1.096042e-003
2.422194e+003,1.181783e-003
2.424123e+003,1.176909e-003
2.426051e+003,9.982344e-004
2.427979e+003,7.924903e-004
2.429908e+003,7.112101e-004
2.431837e+003,9.111017e-004
2.433765e+003,9.559207e-004
2.435694e+003,7.455386e-004
2.437622e+003,6.154943e-004
2.439551e+003,7.568263e-004
2.441479e+003,8.393526e-004
2.443407e+003,9.275470e-004
2.445336e+003,9.001233e-004
2.447265e+003,9.906385e-004
2.449193e+003,1.055766e-003
2.451122e+003,1.084635e-003
2.453050e+003,1.082640e-003
2.454979e+003,1.233140e-003
2.456907e+003,1.302881e-003
2.458836e+003,1.293710e-003
2.460764e+003,1.208408e-003
2.462693e+003,1.197144e-003
2.464621e+003,1.102924e-003
2.466550e+003,1.088435e-003
2.468478e+003,1.135003e-003
2.470406e+003,1.334878e-003
2.472335e+003,1.383318e-003
2.474264e+003,1.297886e-003
2.476192e+003,1.355663e-003
2.478121e+003,1.440739e-003
2.480049e+003,1.460630e-003
2.481978e+003,1.512144e-003
2.483906e+003,1.458392e-003
2.485835e+003,1.503533e-003
2.487763e+003,1.462013e-003
2.489692e+003,1.557877e-003
2.491620e+003,1.660595e-003
2.493549e+003,1.697134e-003
2.495477e+003,1.652772e-003
2.497406e+003,1.656167e-003
2.499334e+003,1.674872e-003
2.501263e+003,1.803111e-003
2.503191e+003,1.861218e-003
2.505120e+003,1.951165e-003
2.507048e+003,1.968672e-003
2.508977e+003,1.983359e-003
2.510905e+003,2.063988e-003
2.512833e+003,2.207967e-003
2.514762e+003,2.321681e-003
2.516691e+003,2.347199e-003
2.518619e+003,2.204668e-003
2.520548e+003,2.214178e-003
2.522476e+003,2.431294e-003
2.524405e+003,2.629379e-003
2.526333e+003,2.765577e-003
2.528261e+003,3.009718e-003
2.530190e+003,3.039887e-003
2.532119e+003,2.937082e-003
2.534047e+003,2.787586e-003
2.535976e+003,2.756918e-003
2.537904e+003,2.720179e-003
2.539833e+003,2.916899e-003
2.541761e+003,3.153123e-003
2.543689e+003,3.206715e-003
2.545618e+003,3.295332e-003
2.547547e+003,3.478361e-003
2.549475e+003,3.677830e-003
2.551404e+003,3.883183e-003
2.553332e+003,3.978085e-003
2.555260e+003,4.119692e-003
2.557189e+003,4.157938e-003
2.559117e+003,4.270386e-003
2.561046e+003,4.272519e-003
2.562975e+003,4.314363e-003
2.564903e+003,4.530434e-003
2.566832e+003,4.629333e-003
2.568760e+003,4.669689e-003
2.570688e+003,4.871184e-003
2.572617e+003,4.919475e-003
2.574546e+003,5.120564e-003
2.576474e+003,5.299956e-003
2.578403e+003,5.613646e-003
2.580331e+003,5.892873e-003
2.582260e+003,5.939670e-003
2.584188e+003,6.162522e-003
2.586116e+003,6.361667e-003
2.588045e+003,6.542856e-003
2.589974e+003,6.762782e-003
2.591902e+003,7.073052e-003
2.593831e+003,7.315412e-003
2.595759e+003,7.515980e-003
2.597688e+003,7.684274e-003
2.599616e+003,7.800393e-003
2.601544e+003,8.023607e-003
2.603473e+003,8.231144e-003
2.605402e+003,8.375466e-003
2.607330e+003,8.670429e-003
2.609259e+003,8.990409e-003
2.611187e+003,9.278558e-003
2.613115e+003,9.585103e-003
2.615044e+003,9.896699e-003
2.616972e+003,1.027848e-002
2.618901e+003,1.069576e-002
2.620830e+003,1.110445e-002
2.622758e+003,1.141321e-002
2.624687e+003,1.181202e-002
2.626615e+003,1.237868e-002
2.628543e+003,1.290324e-002
2.630472e+003,1.333472e-002
2.632400e+003,1.366746e-002
2.634329e+003,1.390764e-002
2.636258e+003,1.402475e-002
2.638186e+003,1.403380e-002
2.640115e+003,1.400876e-002
2.642043e+003,1.400972e-002
2.643971e+003,1.399377e-002
2.645900e+003,1.397309e-002
2.647828e+003,1.404225e-002
2.649757e+003,1.425790e-002
2.651686e+003,1.439514e-002
2.653614e+003,1.447864e-002
2.655542e+003,1.461187e-002
2.657471e+003,1.478894e-002
2.659399e+003,1.487838e-002
2.661328e+003,1.478747e-002
2.663256e+003,1.465600e-002
2.665185e+003,1.450450e-002
2.667114e+003,1.434711e-002
2.669042e+003,1.415887e-002
2.670970e+003,1.395577e-002
2.672899e+003,1.380283e-002
2.674827e+003,1.363688e-002
2.676756e+003,1.349787e-002
2.678685e+003,1.337585e-002
2.680613e+003,1.325155e-002
2.682542e+003,1.306559e-002
2.684470e+003,1.291673e-002
2.686398e+003,1.281671e-002
2.688327e+003,1.268328e-002
2.690255e+003,1.254060e-002
2.692184e+003,1.244167e-002
2.694113e+003,1.239212e-002
2.696041e+003,1.244419e-002
2.697969e+003,1.247241e-002
2.699898e+003,1.252573e-002
2.701826e+003,1.262474e-002
2.703755e+003,1.275644e-002
2.705683e+003,1.298584e-002
2.707612e+003,1.317641e-002
2.709541e+003,1.336550e-002
2.711469e+003,1.351241e-002
2.713397e+003,1.368976e-002
2.715326e+003,1.389210e-002
2.717254e+003,1.400740e-002
2.719183e+003,1.418176e-002
2.721111e+003,1.442663e-002
2.723040e+003,1.467859e-002
2.724969e+003,1.496282e-002
2.726897e+003,1.530734e-002
2.728825e+003,1.560570e-002
2.730754e+003,1.586565e-002
2.732682e+003,1.609783e-002
2.734611e+003,1.630022e-002
2.736539e+003,1.643255e-002
2.738468e+003,1.650134e-002
2.740396e+003,1.659781e-002
2.742325e+003,1.670127e-002
2.744253e+003,1.673213e-002
2.746182e+003,1.671397e-002
2.748110e+003,1.672788e-002
2.750039e+003,1.679868e-002
2.751967e+003,1.696888e-002
2.753896e+003,1.719496e-002
2.755824e+003,1.747977e-002
2.757753e+003,1.785212e-002
2.759681e+003,1.825103e-002
2.761610e+003,1.862935e-002
2.763538e+003,1.905657e-002
2.765467e+003,1.948287e-002
2.767395e+003,1.996602e-002
2.769324e+003,2.059868e-002
2.771252e+003,2.125846e-002
2.773181e+003,2.197591e-002
2.775109e+003,2.278037e-002
2.777038e+003,2.364330e-002
2.778966e+003,2.458607e-002
2.780895e+003,2.566402e-002
2.782823e+003,2.686342e-002
2.784752e+003,2.817998e-002
2.786680e+003,2.964213e-002
2.788609e+003,3.114211e-002
2.790537e+003,3.274381e-002
2.792466e+003,3.449200e-002
2.794394e+003,3.621458e-002
2.796323e+003,3.798533e-002
2.798251e+003,3.978013e-002
2.800180e+003,4.166562e-002
2.802108e+003,4.379158e-002
2.804037e+003,4.612274e-002
2.805965e+003,4.865720e-002
2.807894e+003,5.143062e-002
2.809822e+003,5.443929e-002
2.811751e+003,5.783255e-002
2.813679e+003,6.177985e-002
2.815608e+003,6.632876e-002
2.817536e+003,7.161132e-002
2.819465e+003,7.786492e-002
2.821393e+003,8.532070e-002
2.823322e+003,9.436245e-002
2.825250e+003,1.054874e-001
2.827179e+003,1.196819e-001
2.829107e+003,1.379742e-001
2.831036e+003,1.621042e-001
2.832964e+003,1.949521e-001
2.834893e+003,2.411293e-001
2.836821e+003,3.067628e-001
2.838750e+003,4.020066e-001
2.840678e+003,5.439142e-001
2.842607e+003,7.543371e-001
2.844535e+003,1.042920e+000
2.846464e+003,1.331079e+000
2.848392e+003,1.359690e+000
2.850321e+003,1.083254e+000
2.852249e+003,7.877225e-001
2.854178e+003,5.841776e-001
2.856106e+003,4.472078e-001
2.858035e+003,3.503333e-001
2.859963e+003,2.815196e-001
2.861892e+003,2.338802e-001
2.863820e+003,2.022172e-001
2.865749e+003,1.829024e-001
2.867677e+003,1.731441e-001
2.869606e+003,1.700350e-001
2.871534e+003,1.714776e-001
2.873463e+003,1.772164e-001
2.875391e+003,1.884357e-001
2.877320e+003,2.059519e-001
2.879248e+003,2.292056e-001
2.881177e+003,2.569685e-001
2.883105e+003,2.880229e-001
2.885034e+003,3.217620e-001
2.886962e+003,3.577785e-001
2.888891e+003,3.952434e-001
2.890819e+003,4.330210e-001
2.892748e+003,4.704830e-001
2.894676e+003,5.075493e-001
2.896605e+003,5.448629e-001
2.898533e+003,5.840192e-001
2.900462e+003,6.279386e-001
2.902390e+003,6.812682e-001
2.904319e+003,7.507587e-001
2.906247e+003,8.456792e-001
2.908176e+003,9.768257e-001
2.910104e+003,1.151846e+000
2.912033e+003,1.357718e+000
2.913961e+003,1.521921e+000
2.915890e+003,1.528655e+000
2.917818e+003,1.367071e+000
2.919747e+003,1.148173e+000
2.921675e+003,9.486360e-001
2.923604e+003,7.861814e-001
2.925532e+003,6.572682e-001
2.927461e+003,5.533299e-001
2.929389e+003,4.669359e-001
2.931318e+003,3.936572e-001
2.933246e+003,3.310587e-001
2.935175e+003,2.778035e-001
2.937103e+003,2.328337e-001
2.939032e+003,1.950919e-001
2.940960e+003,1.638047e-001
2.942889e+003,1.384802e-001
2.944817e+003,1.188430e-001
2.946746e+003,1.044583e-001
2.948674e+003,9.446421e-002
2.950603e+003,8.750422e-002
2.952531e+003,8.202924e-002
2.954460e+003,7.680862e-002
2.956388e+003,7.143112e-002
2.958317e+003,6.588481e-002
2.960245e+003,6.019662e-002
2.962174e+003,5.430629e-002
2.964102e+003,4.835325e-002
2.966031e+003,4.260055e-002
2.967959e+003,3.750367e-002
2.969888e+003,3.312072e-002
2.971816e+003,2.941809e-002
2.973745e+003,2.644771e-002
2.975673e+003,2.400095e-002
2.977602e+003,2.192383e-002
2.979530e+003,2.019960e-002
2.981459e+003,1.881990e-002
2.983387e+003,1.762964e-002
2.985316e+003,1.651338e-002
2.987244e+003,1.550936e-002
2.989173e+003,1.468130e-002
2.991101e+003,1.394319e-002
2.993030e+003,1.327047e-002
2.994958e+003,1.263749e-002
2.996887e+003,1.196283e-002
2.998815e+003,1.138183e-002
3.000744e+003,1.086268e-002
3.002672e+003,1.038071e-002
3.004601e+003,9.974215e-003
3.006529e+003,9.700781e-003
3.008458e+003,9.428021e-003
3.010386e+003,9.274896e-003
3.012315e+003,9.200508e-003
3.014243e+003,9.040164e-003
3.016172e+003,8.808093e-003
3.018100e+003,8.673403e-003
3.020029e+003,8.626800e-003
3.021957e+003,8.527502e-003
3.023886e+003,8.424921e-003
3.025814e+003,8.324368e-003
3.027743e+003,8.096252e-003
3.029671e+003,7.944014e-003
3.031600e+003,7.757111e-003
3.033528e+003,7.500974e-003
3.035457e+003,7.301427e-003
3.037385e+003,6.961631e-003
3.039314e+003,6.624257e-003
3.041242e+003,6.300393e-003
3.043171e+003,6.007394e-003
3.045099e+003,5.790291e-003
3.047028e+003,5.547451e-003
3.048956e+003,5.418232e-003
3.050885e+003,5.248049e-003
3.052813e+003,5.096449e-003
3.054742e+003,4.961248e-003
3.056670e+003,4.807398e-003
3.058599e+003,4.556490e-003
3.060527e+003,4.323117e-003
3.062456e+003,4.210828e-003
3.064384e+003,4.193742e-003
3.066313e+003,4.075648e-003
3.068241e+003,3.845030e-003
3.070170e+003,3.653957e-003
3.072098e+003,3.644047e-003
3.074027e+003,3.574779e-003
3.075955e+003,3.484938e-003
3.077884e+003,3.405180e-003
3.079812e+003,3.349140e-003
3.081741e+003,3.239959e-003
3.083669e+003,3.108412e-003
3.085598e+003,2.950147e-003
3.087526e+003,2.741665e-003
3.089455e+003,2.558125e-003
3.091383e+003,2.387425e-003
3.093312e+003,2.163606e-003
3.095240e+003,2.020117e-003
3.097169e+003,1.779057e-003
3.099097e+003,1.487752e-003
3.101026e+003,1.307815e-003
3.102954e+003,1.158670e-003
3.104883e+003,9.993818e-004
3.106811e+003,8.373819e-004
3.108740e+003,6.900262e-004
3.110668e+003,6.532427e-004
3.112597e+003,6.197412e-004
3.114525e+003,5.905367e-004
3.116454e+003,4.685409e-004
3.118382e+003,4.208013e-004
3.120311e+003,3.303196e-004
3.122239e+003,2.582408e-004
3.124168e+003,2.967753e-004
3.126096e+003,2.835654e-004
3.128025e+003,1.555569e-004
3.129953e+003,1.156554e-004
3.131882e+003,1.797676e-004
3.133810e+003,9.127706e-005
3.135739e+003,-1.176558e-004
3.137667e+003,-1.558922e-004
3.139596e+003,-1.339391e-004
3.141524e+003,8.091331e-006
3.143453e+003,5.880184e-005
3.145381e+003,-1.032092e-005
3.147310e+003,-2.169050e-005
3.149238e+003,-4.697591e-006
3.151167e+003,7.512048e-006
3.153095e+003,2.720021e-005
3.155024e+003,-3.674999e-005
3.156952e+003,-1.612529e-004
3.158881e+003,-2.191458e-004
3.160809e+003,-1.589954e-004
3.162738e+003,-3.377534e-005
3.164666e+003,-6.442145e-005
3.166594e+003,-9.326823e-005
3.168523e+003,-6.031618e-005
3.170452e+003,-8.035451e-005
3.172380e+003,-8.818135e-005
3.174309e+003,-6.092712e-006
3.176237e+003,5.973503e-005
3.178166e+003,1.093540e-004
3.180094e+003,7.223152e-005
3.182022e+003,2.175011e-005
3.183951e+003,1.186095e-004
3.185880e+003,1.494791e-004
3.187808e+003,1.362544e-004
3.189737e+003,1.964401e-004
3.191665e+003,2.212021e-004
3.193594e+003,5.661510e-005
3.195522e+003,-4.900433e-005
3.197450e+003,-5.215406e-007
3.199379e+003,6.130338e-005
3.201308e+003,5.605072e-005
3.203236e+003,-3.417954e-006
3.205165e+003,4.926324e-005
3.207093e+003,1.150053e-004
3.209021e+003,1.668837e-004
3.210950e+003,1.327246e-004
3.212878e+003,1.005027e-004
3.214807e+003,-1.618080e-005
3.216736e+003,-7.147901e-005
3.218664e+003,-1.038983e-005
3.220593e+003,-7.385388e-006
3.222521e+003,-6.957166e-005
3.224449e+003,-6.106682e-005
3.226378e+003,-6.631017e-006
3.228307e+003,2.536364e-005
3.230235e+003,-9.058043e-005
3.232164e+003,-1.350921e-004
3.234092e+003,-2.721138e-005
3.236021e+003,-6.408244e-005
3.237949e+003,-1.277775e-004
3.239877e+003,-1.348257e-004
3.241806e+003,-6.443076e-005
3.243735e+003,8.525886e-005
3.245663e+003,9.484030e-005
3.247592e+003,-9.015761e-005
3.249520e+003,-1.671724e-004
3.251448e+003,-1.479238e-004
3.253377e+003,1.795776e-005
3.255305e+003,1.708679e-004
3.257234e+003,1.229588e-004
3.259163e+003,8.096918e-006
3.261091e+003,7.201359e-005
3.263020e+003,3.718399e-005
3.264948e+003,6.063841e-005
3.266876e+003,2.370011e-004
3.268805e+003,2.635736e-004
3.270733e+003,2.342723e-004
3.272662e+003,3.135186e-004
3.274591e+003,3.389083e-004
3.276519e+003,2.612416e-004
3.278448e+003,2.592951e-004
3.280376e+003,3.055390e-004
3.282304e+003,2.517700e-004
3.284233e+003,1.771636e-004
3.286161e+003,1.882650e-004
3.288090e+003,2.829842e-004
3.290019e+003,3.294777e-004
3.291947e+003,3.030989e-004
3.293875e+003,1.840629e-004
3.295804e+003,1.495443e-004
3.297732e+003,1.656823e-004
3.299661e+003,2.648830e-004
3.301589e+003,2.892409e-004
3.303518e+003,2.642348e-004
3.305447e+003,2.146401e-004
3.307375e+003,2.531670e-004
3.309303e+003,3.209319e-004
3.311232e+003,3.123060e-004
3.313160e+003,3.260132e-004
3.315089e+003,3.561992e-004
3.317018e+003,3.584381e-004
3.318946e+003,3.243983e-004
3.320875e+003,2.651028e-004
3.322803e+003,2.961773e-004
3.324731e+003,3.158487e-004
3.326660e+003,3.211908e-004
3.328588e+003,2.684407e-004
3.330517e+003,2.012718e-004
3.332446e+003,2.023261e-004
3.334374e+003,2.869982e-004
3.336302e+003,4.351884e-004
3.338231e+003,4.784018e-004
3.340159e+003,4.370306e-004
3.342088e+003,4.426688e-004
3.344016e+003,4.019756e-004
3.345945e+003,3.926177e-004
3.347874e+003,3.641266e-004
3.349802e+003,2.388898e-004
3.351730e+003,1.857020e-004
3.353659e+003,3.074948e-004
3.355587e+003,4.710220e-004
3.357516e+003,4.184097e-004
3.359444e+003,4.396308e-004
3.361373e+003,5.253293e-004
3.363302e+003,4.428551e-004
3.365230e+003,3.942437e-004
3.367158e+003,4.735067e-004
3.369087e+003,5.566720e-004
3.371015e+003,5.016960e-004
3.372944e+003,4.199408e-004
3.374872e+003,3.833212e-004
3.376801e+003,4.219208e-004
3.378729e+003,4.071817e-004
3.380658e+003,3.937334e-004
3.382586e+003,4.287791e-004
3.384515e+003,4.697982e-004
3.386443e+003,3.792252e-004
3.388372e+003,3.473610e-004
3.390300e+003,4.675947e-004
3.392229e+003,5.867630e-004
3.394157e+003,4.960354e-004
3.396086e+003,4.622787e-004
3.398014e+003,4.010405e-004
3.399943e+003,3.034323e-004
3.401871e+003,2.634414e-004
3.403800e+003,2.639275e-004
3.405728e+003,1.924857e-004
3.407657e+003,8.790940e-005
3.409585e+003,-2.972409e-005
3.411514e+003,-1.007877e-004
3.413442e+003,-3.961101e-005
3.415371e+003,4.301593e-005
3.417299e+003,4.392117e-005
3.419228e+003,1.620725e-004
3.421156e+003,2.288707e-004
3.423085e+003,1.501366e-004
3.425013e+003,-3.046170e-005
3.426942e+003,-1.444407e-004
3.428870e+003,-1.851358e-004
3.430799e+003,-9.189174e-005
3.432727e+003,-9.385124e-005
3.434656e+003,-1.324788e-004
3.436584e+003,-1.137406e-004
3.438513e+003,-1.596697e-004
3.440441e+003,-1.221821e-004
3.442370e+003,-5.706027e-005
3.444298e+003,-1.270697e-004
3.446227e+003,1.220368e-004
3.448155e+003,6.389245e-005
3.450084e+003,-1.901761e-004
3.452012e+003,-3.577247e-004
3.453941e+003,-4.201382e-004
3.455869e+003,-4.780330e-004
3.457798e+003,-5.205125e-004
3.459726e+003,-4.497133e-004
3.461655e+003,-3.192015e-004
3.463583e+003,-3.380813e-004
3.465512e+003,-4.600585e-004
3.467440e+003,-6.253496e-004
3.469369e+003,-7.127300e-004
3.471297e+003,-6.255992e-004
3.473226e+003,-5.531274e-004
3.475154e+003,-6.307065e-004
3.477083e+003,-7.767007e-004
3.479011e+003,-6.528683e-004
3.480940e+003,-3.687777e-004
3.482868e+003,-4.502796e-004
3.484797e+003,-6.545074e-004
3.486725e+003,-5.331449e-004
3.488654e+003,-5.305745e-004
3.490582e+003,-8.102320e-004
3.492511e+003,-9.152964e-004
3.494439e+003,-8.898266e-004
3.496368e+003,-9.184107e-004
3.498296e+003,-9.514466e-004
3.500225e+003,-7.301457e-004
3.502153e+003,-1.748763e-004
3.504082e+003,-1.416393e-004
3.506010e+003,-5.512722e-004
3.507939e+003,-5.596317e-004
3.509867e+003,-4.965067e-004
3.511796e+003,-7.642210e-004
3.513724e+003,-9.936653e-004
3.515653e+003,-1.133289e-003
3.517581e+003,-1.152720e-003
3.519510e+003,-1.193631e-003
3.521438e+003,-8.237176e-004
3.523367e+003,-4.297607e-004
3.525295e+003,-4.661344e-004
3.527224e+003,-2.521686e-004
3.529152e+003,-3.717244e-004
3.531081e+003,-8.620471e-004
3.533009e+003,-1.347721e-003
3.534938e+003,-1.188345e-003
3.536866e+003,-1.058251e-003
3.538795e+003,-1.366712e-003
3.540723e+003,-1.399960e-003
3.542652e+003,-8.734316e-004
3.544580e+003,-7.747114e-005
3.546509e+003,8.098781e-006
3.548437e+003,-6.998479e-004
3.550366e+003,-8.638948e-004
3.552294e+003,-5.325191e-004
3.554223e+003,-8.734055e-004
3.556151e+003,-1.240656e-003
3.558080e+003,-1.286011e-003
3.560008e+003,-1.230061e-003
3.561937e+003,-1.274880e-003
3.563865e+003,-6.563887e-004
3.565794e+003,9.662099e-004
3.567722e+003,1.311315e-003
3.569651e+003,-4.344806e-005
3.571579e+003,-9.304471e-004
3.573508e+003,-1.220852e-003
3.575436e+003,-1.315128e-003
3.577365e+003,-1.158450e-003
3.579293e+003,-9.283386e-004
3.581222e+003,-1.179196e-003
3.583150e+003,-1.291905e-003
3.585079e+003,-4.796498e-004
3.587007e+003,1.222182e-003
3.588936e+003,6.703250e-004
3.590864e+003,-2.445132e-004
3.592793e+003,5.089492e-005
3.594721e+003,5.425103e-004
3.596650e+003,8.594878e-004
3.598578e+003,1.381207e-003
3.600507e+003,1.799408e-003
3.602435e+003,1.686893e-003
3.604364e+003,1.417577e-003
3.606292e+003,1.791829e-003
3.608221e+003,2.181472e-003
3.610149e+003,1.630805e-003
3.612078e+003,1.899356e-003
3.614006e+003,1.880107e-003
3.615935e+003,1.074417e-003
3.617863e+003,1.536705e-003
3.619792e+003,1.855042e-003
3.621720e+003,5.503893e-004
3.623649e+003,-3.408156e-004
3.625577e+003,-4.677959e-004
3.627506e+003,5.306564e-004
3.629434e+003,1.984080e-003
3.631363e+003,1.167111e-003
3.633291e+003,6.206818e-004
3.635220e+003,7.727742e-005
3.637148e+003,-2.446063e-004
3.639077e+003,-2.520420e-004
3.641005e+003,2.440438e-005
3.642934e+003,-4.406124e-004
3.644862e+003,-5.372241e-004
3.646791e+003,1.132034e-003
3.648719e+003,3.691699e-003
3.650648e+003,3.366459e-003
3.652576e+003,9.434596e-004
3.654505e+003,4.516467e-004
3.656433e+003,4.526153e-004
3.658362e+003,-6.453693e-005
3.660290e+003,-3.802404e-004
3.662219e+003,-6.616451e-004
3.664147e+003,-1.078337e-003
3.666076e+003,-1.363739e-003
3.668004e+003,-4.728287e-004
3.669933e+003,8.229911e-004
3.671861e+003,2.598614e-004
3.673790e+003,1.215674e-003
3.675718e+003,3.053291e-003
3.677647e+003,1.929859e-003
3.679575e+003,8.000433e-004
3.681504e+003,-2.214126e-004
3.683432e+003,-6.978437e-004
3.685361e+003,-8.926839e-004
3.687289e+003,-1.807138e-005
3.689218e+003,1.559645e-003
3.691146e+003,1.413632e-003
3.693075e+003,4.539713e-004
3.695003e+003,7.466972e-005
3.696932e+003,-1.814440e-004
3.698860e+003,-5.542599e-004
3.700789e+003,-2.593026e-004
3.702717e+003,-8.432567e-005
3.704646e+003,-4.866756e-004
3.706574e+003,-6.203838e-004
3.708503e+003,5.114824e-005
3.710431e+003,1.923967e-003
3.712360e+003,2.380341e-003
3.714288e+003,9.305626e-004
3.716217e+003,-7.293746e-005
3.718145e+003,-3.752485e-005
3.720074e+003,3.597401e-004
3.722002e+003,9.974129e-004
3.723931e+003,1.130506e-003
3.725859e+003,1.235530e-003
3.727788e+003,4.259311e-004
3.729716e+003,-1.179650e-004
3.731645e+003,3.633723e-004
3.733573e+003,2.445929e-003
3.735502e+003,4.420470e-003
3.737430e+003,2.955047e-003
3.739359e+003,1.563927e-003
3.741287e+003,8.309633e-004
3.743216e+003,1.389630e-003
3.745144e+003,2.434606e-003
3.747073e+003,2.222689e-003
3.749001e+003,2.795629e-003
3.750930e+003,4.480334e-003
3.752858e+003,3.118033e-003
3.754787e+003,1.803793e-003
3.756715e+003,1.567986e-003
3.758644e+003,1.351144e-003
3.760572e+003,7.521436e-004
3.762501e+003,1.482107e-004
3.764429e+003,1.473576e-004
3.766358e+003,1.829490e-004
3.768286e+003,8.079968e-004
3.770215e+003,1.421668e-003
3.772143e+003,6.206669e-004
3.774072e+003,-1.556613e-004
3.776000e+003,-3.792159e-004
3.777929e+003,3.165081e-004
3.779857e+003,7.523820e-004
3.781786e+003,5.460158e-004
3.783714e+003,8.825548e-004
3.785643e+003,8.789785e-004
3.787571e+003,3.317483e-004
3.789500e+003,-5.601719e-005
3.791428e+003,1.146272e-005
3.793357e+003,-2.453625e-004
3.795285e+003,1.022369e-004
3.797214e+003,6.709695e-004
3.799142e+003,1.017738e-003
3.801071e+003,2.480138e-003
3.802999e+003,1.894686e-003
3.804927e+003,1.736455e-003
3.806856e+003,2.403388e-003
3.808785e+003,1.409754e-003
3.810713e+003,4.981570e-004
3.812642e+003,1.353994e-004
3.814570e+003,6.607883e-004
3.816499e+003,1.321111e-003
3.818427e+003,1.783460e-003
3.820355e+003,3.441293e-003
3.822284e+003,3.140647e-003
3.824213e+003,2.092736e-003
3.826141e+003,1.778893e-003
3.828070e+003,9.277537e-004
3.829998e+003,4.648753e-004
3.831927e+003,6.694235e-004
3.833855e+003,1.002911e-003
3.835783e+003,1.863472e-003
3.837712e+003,3.445817e-003
3.839641e+003,4.129954e-003
3.841569e+003,3.241239e-003
3.843498e+003,2.437865e-003
3.845426e+003,1.278505e-003
3.847354e+003,4.478879e-004
3.849283e+003,2.143532e-004
3.851211e+003,1.120396e-003
3.853140e+003,4.212394e-003
3.855069e+003,4.217893e-003
3.856997e+003,2.902407e-003
3.858926e+003,1.521006e-003
3.860854e+003,1.261540e-003
3.862782e+003,1.858730e-003
3.864711e+003,2.381179e-003
3.866640e+003,1.409177e-003
3.868568e+003,2.205070e-003
3.870497e+003,3.493456e-003
3.872425e+003,3.408706e-003
3.874354e+003,3.024766e-003
3.876282e+003,1.575250e-003
3.878210e+003,1.094479e-003
3.880139e+003,1.818638e-003
3.882068e+003,1.816481e-003
3.883996e+003,2.085531e-003
3.885925e+003,2.382331e-003
3.887853e+003,1.545355e-003
3.889781e+003,1.790337e-003
3.891710e+003,2.450848e-003
3.893638e+003,1.644887e-003
3.895567e+003,7.930547e-004
3.897496e+003,9.921677e-004
3.899424e+003,1.715291e-003
3.901353e+003,2.610177e-003
3.903281e+003,3.818681e-003
3.905209e+003,3.581984e-003
3.907138e+003,2.135567e-003
3.909066e+003,1.178794e-003
3.910995e+003,7.512458e-004
3.912924e+003,3.514700e-004
3.914852e+003,8.251555e-004
3.916781e+003,1.676321e-003
3.918709e+003,1.603425e-003
3.920637e+003,1.372356e-003
3.922566e+003,1.582805e-003
3.924494e+003,1.829468e-003
3.926423e+003,1.168635e-003
3.928352e+003,9.762831e-004
3.930280e+003,1.368489e-003
3.932208e+003,1.895845e-003
3.934137e+003,1.412410e-003
3.936065e+003,8.897260e-004
3.937994e+003,6.124265e-004
3.939922e+003,4.678071e-004
3.941851e+003,1.184270e-003
3.943780e+003,1.280174e-003
3.945708e+003,9.194538e-004
3.947636e+003,1.241338e-003
3.949565e+003,1.236845e-003
3.951493e+003,7.951520e-004
3.953422e+003,4.230328e-004
3.955351e+003,4.122108e-004
3.957279e+003,4.538558e-004
3.959208e+003,5.954206e-004
3.961136e+003,7.622279e-004
3.963064e+003,5.710647e-004
3.964993e+003,3.119372e-004
3.966921e+003,3.495067e-004
3.968850e+003,4.717298e-004
3.970779e+003,4.749484e-004
3.972707e+003,4.835911e-004
3.974635e+003,4.855320e-004
3.976564e+003,4.482940e-004
3.978492e+003,4.752986e-004
3.980421e+003,4.613064e-004
3.982349e+003,4.149526e-004
3.984278e+003,4.559532e-004
3.986207e+003,4.416741e-004
3.988135e+003,4.671738e-004
3.990063e+003,6.085299e-004
3.991992e+003,5.359016e-004
3.993920e+003,5.359054e-004
3.995849e+003,3.938042e-004
3.997777e+003,3.021285e-004
3.999706e+003,2.529994e-004
4.001635e+003,0.000000e+000
