3.991992e+002,0.000000e+000
4.011277e+002,0.000000e+000
4.030562e+002,0.000000e+000
4.049846e+002,0.000000e+000
4.069131e+002,0.000000e+000
4.088416e+002,0.000000e+000
4.107701e+002,0.000000e+000
4.126986e+002,0.000000e+000
4.146271e+002,0.000000e+000
4.165556e+002,0.000000e+000
4.184841e+002,0.000000e+000
4.204126e+002,0.000000e+000
4.223411e+002,0.000000e+000
4.242697e+002,0.000000e+000
4.261982e+002,0.000000e+000
4.281266e+002,0.000000e+000
4.300551e+002,0.000000e+000
4.319836e+002,0.000000e+000
4.339121e+002,0.000000e+000
4.358406e+002,0.000000e+000
4.377691e+002,0.000000e+000
4.396976e+002,0.000000e+000
4.416261e+002,0.000000e+000
4.435546e+002,0.000000e+000
4.454831e+002,0.000000e+000
4.474116e+002,0.000000e+000
4.493401e+002,0.000000e+000
4.512686e+002,0.000000e+000
4.531971e+002,0.000000e+000
4.551256e+002,0.000000e+000
4.570541e+002,0.000000e+000
4.589826e+002,0.000000e+000
4.609111e+002,0.000000e+000
4.628396e+002,0.000000e+000
4.647681e+002,0.000000e+000
4.666966e+002,0.000000e+000
4.686251e+002,0.000000e+000
4.705536e+002,0.000000e+000
4.724821e+002,0.000000e+000
4.744106e+002,0.000000e+000
4.763391e+002,0.000000e+000
4.782676e+002,0.000000e+000
4.801961e+002,0.000000e+000
4.821246e+002,0.000000e+000
4.840531e+002,0.000000e+000
4.859816e+002,0.000000e+000
4.879101e+002,0.000000e+000
4.898386e+002,0.000000e+000
4.917671e+002,0.000000e+000
4.936956e+002,0.000000e+000
4.956241e+002,0.000000e+000
4.975526e+002,0.000000e+000
4.994811e+002,0.000000e+000
5.014096e+002,0.000000e+000
5.033381e+002,0.000000e+000
5.052666e+002,0.000000e+000
5.071951e+002,0.000000e+000
5.091236e+002,0.000000e+000
5.110521e+002,0.000000e+000
5.129806e+002,0.000000e+000
5.149091e+002,0.000000e+000
5.168376e+002,0.000000e+000
5.187661e+002,0.000000e+000
5.206946e+002,0.000000e+000
5.226230e+002,0.000000e+000
5.245516e+002,-1.955139e-004
5.264800e+002,-2.327235e-004
5.284086e+002,-2.698582e-004
5.303370e+002,-3.250996e-004
5.322656e+002,-2.691294e-004
5.341940e+002,-2.578464e-004
5.361226e+002,-2.259798e-004
5.380510e+002,-1.639286e-004
5.399796e+002,-1.637400e-004
5.419081e+002,-2.397276e-004
5.438365e+002,-1.701233e-004
5.457650e+002,-1.935386e-004
5.476935e+002,-1.770165e-004
5.496221e+002,-6.955210e-005
5.515505e+002,-2.996204e-005
5.534790e+002,1.416728e-005
5.554075e+002,1.725391e-004
5.573361e+002,1.588627e-004
5.592645e+002,7.617986e-005
5.611931e+002,6.863847e-007
5.631215e+002,2.271170e-005
5.650500e+002,2.490496e-005
5.669785e+002,4.859874e-005
5.689070e+002,3.114855e-005
5.708355e+002,-9.491248e-005
5.727640e+002,-1.783320e-004
5.746925e+002,-9.137113e-005
5.766210e+002,-5.218573e-005
5.785495e+002,-7.949863e-005
5.804780e+002,-1.984141e-004
5.824065e+002,-2.104403e-004
5.843350e+002,-1.318213e-004
5.862635e+002,-2.686866e-007
5.881920e+002,-4.200032e-005
5.901205e+002,-2.945773e-005
5.920490e+002,-3.647245e-005
5.939775e+002,5.237572e-005
5.959060e+002,7.669721e-005
5.978345e+002,1.101373e-004
5.997630e+002,1.242212e-004
6.016915e+002,2.122275e-004
6.036200e+002,2.718372e-004
6.055485e+002,3.485554e-004
6.074770e+002,3.310675e-004
6.094055e+002,2.824813e-004
6.113340e+002,2.201651e-004
6.132625e+002,2.452349e-004
6.151910e+002,1.825457e-004
6.171195e+002,1.717601e-004
6.190480e+002,2.200464e-004
6.209765e+002,3.511645e-004
6.229050e+002,4.098164e-004
6.248335e+002,4.845257e-004
6.267620e+002,4.678518e-004
6.286905e+002,5.512661e-004
6.306190e+002,6.130021e-004
6.325475e+002,6.768303e-004
6.344760e+002,6.343611e-004
6.364045e+002,7.133009e-004
6.383330e+002,8.312734e-004
6.402615e+002,9.313333e-004
6.421899e+002,9.198538e-004
6.441185e+002,9.695003e-004
6.460470e+002,9.666719e-004
6.479755e+002,9.962809e-004
6.499039e+002,9.785509e-004
6.518325e+002,1.029298e-003
6.537610e+002,1.052977e-003
6.556895e+002,1.204508e-003
6.576179e+002,1.305111e-003
6.595464e+002,1.373522e-003
6.614750e+002,1.346647e-003
6.634034e+002,1.403434e-003
6.653319e+002,1.414056e-003
6.672604e+002,1.507150e-003
6.691890e+002,1.583445e-003
6.711174e+002,1.725678e-003
6.730460e+002,1.788846e-003
6.749745e+002,1.912552e-003
6.769030e+002,2.056275e-003
6.788314e+002,2.259983e-003
6.807599e+002,2.273877e-003
6.826885e+002,2.446670e-003
6.846169e+002,2.571641e-003
6.865454e+002,2.805491e-003
6.884739e+002,2.997573e-003
6.904025e+002,3.273094e-003
6.923309e+002,3.591381e-003
6.942594e+002,4.135653e-003
6.961879e+002,4.677314e-003
6.981165e+002,5.448590e-003
7.000449e+002,6.337573e-003
7.019734e+002,7.616404e-003
7.039019e+002,9.144709e-003
7.058304e+002,1.141380e-002
7.077589e+002,1.438343e-002
7.096874e+002,1.890850e-002
7.116159e+002,2.609191e-002
7.135444e+002,3.934221e-002
7.154729e+002,6.393114e-002
7.174014e+002,1.009307e-001
7.193299e+002,1.171608e-001
7.212584e+002,8.623685e-002
7.231869e+002,5.640913e-002
7.251154e+002,4.593555e-002
7.270439e+002,4.999176e-002
7.289724e+002,6.560108e-002
7.309009e+002,6.332005e-002
7.328294e+002,3.650706e-002
7.347579e+002,1.851918e-002
7.366864e+002,1.213746e-002
7.386149e+002,9.574790e-003
7.405434e+002,8.095872e-003
7.424719e+002,7.198669e-003
7.444004e+002,6.402750e-003
7.463289e+002,5.826421e-003
7.482574e+002,5.380130e-003
7.501859e+002,5.060517e-003
7.521144e+002,4.703802e-003
7.540428e+002,4.425354e-003
7.559714e+002,4.073401e-003
7.578999e+002,3.882006e-003
7.598284e+002,3.705512e-003
7.617568e+002,3.547891e-003
7.636854e+002,3.369640e-003
7.656139e+002,3.230926e-003
7.675424e+002,3.051746e-003
7.694709e+002,2.946669e-003
7.713994e+002,2.861919e-003
7.733279e+002,2.752044e-003
7.752563e+002,2.709741e-003
7.771849e+002,2.702916e-003
7.791134e+002,2.661468e-003
7.810419e+002,2.683796e-003
7.829703e+002,2.715580e-003
7.848989e+002,2.790561e-003
7.868274e+002,2.869423e-003
7.887559e+002,2.992517e-003
7.906843e+002,3.098717e-003
7.926129e+002,3.272726e-003
7.945414e+002,3.489315e-003
7.964698e+002,3.671535e-003
7.983983e+002,3.764340e-003
8.003268e+002,3.837881e-003
8.022554e+002,3.900644e-003
8.041838e+002,3.922987e-003
8.061123e+002,3.881357e-003
8.080408e+002,3.755001e-003
8.099694e+002,3.625435e-003
8.118978e+002,3.522894e-003
8.138263e+002,3.371091e-003
8.157548e+002,3.230798e-003
8.176833e+002,3.086820e-003
8.196118e+002,2.951839e-003
8.215403e+002,2.814060e-003
8.234689e+002,2.594893e-003
8.253973e+002,2.308504e-003
8.273258e+002,2.075769e-003
8.292543e+002,1.929829e-003
8.311829e+002,1.872591e-003
8.331113e+002,1.794488e-003
8.350398e+002,1.761075e-003
8.369683e+002,1.728727e-003
8.388969e+002,1.669211e-003
8.408253e+002,1.682238e-003
8.427538e+002,1.716158e-003
8.446823e+002,1.751690e-003
8.466108e+002,1.747588e-003
8.485393e+002,1.727011e-003
8.504678e+002,1.773357e-003
8.523963e+002,1.810695e-003
8.543248e+002,1.815488e-003
8.562533e+002,1.885759e-003
8.581818e+002,1.926922e-003
8.601103e+002,1.962552e-003
8.620388e+002,1.992466e-003
8.639673e+002,2.004049e-003
8.658958e+002,2.005232e-003
8.678243e+002,2.035618e-003
8.697528e+002,2.050714e-003
8.716813e+002,2.105823e-003
8.736098e+002,2.064719e-003
8.755383e+002,1.998296e-003
8.774668e+002,2.001431e-003
8.793953e+002,2.057964e-003
8.813238e+002,2.043377e-003
8.832523e+002,2.093223e-003
8.851808e+002,2.140019e-003
8.871093e+002,2.233074e-003
8.890378e+002,2.264956e-003
8.909663e+002,2.194164e-003
8.928948e+002,2.082308e-003
8.948232e+002,1.993678e-003
8.967518e+002,1.951690e-003
8.986803e+002,1.970750e-003
9.006088e+002,2.041068e-003
9.025372e+002,2.218872e-003
9.044658e+002,2.514348e-003
9.063943e+002,2.975172e-003
9.083228e+002,3.256637e-003
9.102512e+002,3.136387e-003
9.121797e+002,2.769384e-003
9.141083e+002,2.485900e-003
9.160367e+002,2.212690e-003
9.179653e+002,2.101880e-003
9.198937e+002,2.102028e-003
9.218223e+002,2.078764e-003
9.237507e+002,2.081809e-003
9.256793e+002,2.071365e-003
9.276077e+002,2.025417e-003
9.295363e+002,2.008993e-003
9.314647e+002,1.950439e-003
9.333932e+002,1.942565e-003
9.353217e+002,1.910638e-003
9.372502e+002,1.945888e-003
9.391787e+002,1.994059e-003
9.411072e+002,2.007585e-003
9.430358e+002,1.957153e-003
9.449642e+002,1.987377e-003
9.468928e+002,1.989558e-003
9.488212e+002,2.041155e-003
9.507498e+002,2.090543e-003
9.526782e+002,2.106794e-003
9.546068e+002,2.143604e-003
9.565352e+002,2.285279e-003
9.584637e+002,2.405149e-003
9.603922e+002,2.557095e-003
9.623207e+002,2.733124e-003
9.642492e+002,2.891620e-003
9.661777e+002,2.984822e-003
9.681062e+002,3.046071e-003
9.700347e+002,3.095672e-003
9.719632e+002,3.142264e-003
9.738917e+002,3.145296e-003
9.758202e+002,3.197215e-003
9.777487e+002,3.251883e-003
9.796772e+002,3.326083e-003
9.816057e+002,3.393206e-003
9.835342e+002,3.557157e-003
9.854627e+002,3.810628e-003
9.873912e+002,4.124739e-003
9.893197e+002,4.326794e-003
9.912482e+002,4.464489e-003
9.931767e+002,4.572101e-003
9.951052e+002,4.724383e-003
9.970337e+002,4.883629e-003
9.989622e+002,5.037258e-003
1.000891e+003,5.176966e-003
1.002819e+003,5.359763e-003
1.004748e+003,5.597584e-003
1.006676e+003,5.964571e-003
1.008605e+003,6.319916e-003
1.010533e+003,6.728820e-003
1.012462e+003,7.086067e-003
1.014390e+003,7.516992e-003
1.016319e+003,7.966248e-003
1.018247e+003,8.342214e-003
1.020176e+003,8.592920e-003
1.022104e+003,8.844540e-003
1.024033e+003,9.124845e-003
1.025961e+003,9.370046e-003
1.027890e+003,9.555880e-003
1.029818e+003,9.830846e-003
1.031747e+003,1.007932e-002
1.033675e+003,1.031196e-002
1.035604e+003,1.041272e-002
1.037532e+003,1.050467e-002
1.039461e+003,1.056211e-002
1.041389e+003,1.064835e-002
1.043318e+003,1.068359e-002
1.045246e+003,1.072688e-002
1.047175e+003,1.084363e-002
1.049103e+003,1.104084e-002
1.051032e+003,1.109877e-002
1.052960e+003,1.101269e-002
1.054889e+003,1.088201e-002
1.056817e+003,1.086922e-002
1.058746e+003,1.092287e-002
1.060674e+003,1.097601e-002
1.062603e+003,1.091675e-002
1.064531e+003,1.086434e-002
1.066460e+003,1.080873e-002
1.068388e+003,1.080261e-002
1.070317e+003,1.080991e-002
1.072245e+003,1.098288e-002
1.074174e+003,1.116788e-002
1.076102e+003,1.142033e-002
1.078031e+003,1.160564e-002
1.079959e+003,1.177824e-002
1.081888e+003,1.188248e-002
1.083816e+003,1.200761e-002
1.085745e+003,1.207090e-002
1.087673e+003,1.216779e-002
1.089602e+003,1.224948e-002
1.091530e+003,1.237230e-002
1.093459e+003,1.239748e-002
1.095387e+003,1.241373e-002
1.097316e+003,1.238756e-002
1.099244e+003,1.236851e-002
1.101173e+003,1.225025e-002
1.103101e+003,1.213714e-002
1.105030e+003,1.197138e-002
1.106958e+003,1.187737e-002
1.108887e+003,1.177581e-002
1.110815e+003,1.162213e-002
1.112744e+003,1.139079e-002
1.114672e+003,1.123363e-002
1.116601e+003,1.099476e-002
1.118529e+003,1.074423e-002
1.120458e+003,1.041689e-002
1.122386e+003,1.005394e-002
1.124315e+003,9.614760e-003
1.126243e+003,9.256998e-003
1.128172e+003,9.002166e-003
1.130100e+003,8.907882e-003
1.132029e+003,8.855348e-003
1.133957e+003,8.879794e-003
1.135885e+003,8.957457e-003
1.137814e+003,9.127208e-003
1.139743e+003,9.266395e-003
1.141671e+003,9.427474e-003
1.143600e+003,9.566928e-003
1.145528e+003,9.751658e-003
1.147457e+003,9.991219e-003
1.149385e+003,1.037779e-002
1.151314e+003,1.073901e-002
1.153242e+003,1.114788e-002
1.155171e+003,1.153817e-002
1.157099e+003,1.187278e-002
1.159028e+003,1.198681e-002
1.160956e+003,1.206011e-002
1.162885e+003,1.203550e-002
1.164813e+003,1.187779e-002
1.166742e+003,1.154106e-002
1.168670e+003,1.122959e-002
1.170599e+003,1.082381e-002
1.172527e+003,1.041197e-002
1.174456e+003,1.009261e-002
1.176384e+003,9.884329e-003
1.178313e+003,9.517202e-003
1.180241e+003,9.191910e-003
1.182170e+003,8.925883e-003
1.184098e+003,8.767589e-003
1.186027e+003,8.645657e-003
1.187955e+003,8.583713e-003
1.189884e+003,8.528129e-003
1.191812e+003,8.547368e-003
1.193740e+003,8.550722e-003
1.195669e+003,8.651965e-003
1.197598e+003,8.737792e-003
1.199526e+003,8.873083e-003
1.201455e+003,8.976248e-003
1.203383e+003,9.165766e-003
1.205312e+003,9.372856e-003
1.207240e+003,9.658057e-003
1.209168e+003,9.876283e-003
1.211097e+003,1.009205e-002
1.213026e+003,1.026906e-002
1.214954e+003,1.049788e-002
1.216883e+003,1.069486e-002
1.218811e+003,1.093401e-002
1.220740e+003,1.117690e-002
1.222668e+003,1.147443e-002
1.224596e+003,1.169759e-002
1.226525e+003,1.192611e-002
1.228453e+003,1.212403e-002
1.230382e+003,1.237561e-002
1.232311e+003,1.258541e-002
1.234239e+003,1.276312e-002
1.236167e+003,1.283731e-002
1.238096e+003,1.288927e-002
1.240025e+003,1.281980e-002
1.241953e+003,1.272260e-002
1.243882e+003,1.254317e-002
1.245810e+003,1.236646e-002
1.247739e+003,1.212550e-002
1.249667e+003,1.194840e-002
1.251595e+003,1.179663e-002
1.253524e+003,1.186872e-002
1.255453e+003,1.212390e-002
1.257381e+003,1.257182e-002
1.259310e+003,1.293417e-002
1.261238e+003,1.309774e-002
1.263167e+003,1.283251e-002
1.265095e+003,1.228859e-002
1.267023e+003,1.154706e-002
1.268952e+003,1.094339e-002
1.270880e+003,1.046986e-002
1.272809e+003,1.023808e-002
1.274738e+003,1.011814e-002
1.276666e+003,1.009998e-002
1.278594e+003,1.005920e-002
1.280523e+003,1.009688e-002
1.282451e+003,1.011721e-002
1.284380e+003,1.024522e-002
1.286308e+003,1.033023e-002
1.288237e+003,1.053632e-002
1.290166e+003,1.079455e-002
1.292094e+003,1.118652e-002
1.294022e+003,1.153930e-002
1.295951e+003,1.194440e-002
1.297879e+003,1.227532e-002
1.299808e+003,1.255008e-002
1.301736e+003,1.263245e-002
1.303665e+003,1.271781e-002
1.305594e+003,1.265346e-002
1.307522e+003,1.254433e-002
1.309450e+003,1.228493e-002
1.311379e+003,1.198350e-002
1.313307e+003,1.151513e-002
1.315236e+003,1.115457e-002
1.317164e+003,1.074660e-002
1.319093e+003,1.031507e-002
1.321021e+003,9.799345e-003
1.322950e+003,9.463938e-003
1.324878e+003,9.171025e-003
1.326807e+003,9.054387e-003
1.328735e+003,8.938961e-003
1.330664e+003,9.024658e-003
1.332592e+003,9.199871e-003
1.334521e+003,9.612692e-003
1.336449e+003,1.014642e-002
1.338378e+003,1.098855e-002
1.340306e+003,1.170366e-002
1.342235e+003,1.214808e-002
1.344163e+003,1.254898e-002
1.346092e+003,1.324088e-002
1.348021e+003,1.395627e-002
1.349949e+003,1.468709e-002
1.351877e+003,1.501669e-002
1.353806e+003,1.507045e-002
1.355734e+003,1.488854e-002
1.357663e+003,1.499467e-002
1.359591e+003,1.538306e-002
1.361520e+003,1.622831e-002
1.363448e+003,1.740001e-002
1.365377e+003,1.852423e-002
1.367305e+003,1.931119e-002
1.369234e+003,1.936317e-002
1.371162e+003,1.837349e-002
1.373091e+003,1.733280e-002
1.375019e+003,1.702955e-002
1.376948e+003,1.716337e-002
1.378876e+003,1.557691e-002
1.380805e+003,1.284682e-002
1.382733e+003,1.074069e-002
1.384662e+003,9.831411e-003
1.386590e+003,9.297951e-003
1.388519e+003,9.043802e-003
1.390447e+003,8.760666e-003
1.392376e+003,8.788131e-003
1.394304e+003,8.725382e-003
1.396233e+003,8.869904e-003
1.398161e+003,8.819548e-003
1.400090e+003,9.038994e-003
1.402018e+003,8.969722e-003
1.403947e+003,9.184297e-003
1.405875e+003,9.219968e-003
1.407804e+003,9.478498e-003
1.409732e+003,9.616751e-003
1.411661e+003,1.002560e-002
1.413589e+003,1.019952e-002
1.415518e+003,1.064931e-002
1.417446e+003,1.084483e-002
1.419375e+003,1.149136e-002
1.421303e+003,1.176236e-002
1.423232e+003,1.271261e-002
1.425160e+003,1.404051e-002
1.427089e+003,1.588953e-002
1.429017e+003,1.830079e-002
1.430946e+003,2.189641e-002
1.432874e+003,2.482587e-002
1.434803e+003,2.767253e-002
1.436731e+003,3.067083e-002
1.438660e+003,3.332116e-002
1.440588e+003,3.475821e-002
1.442517e+003,3.672096e-002
1.444445e+003,3.821158e-002
1.446374e+003,4.050366e-002
1.448302e+003,4.387381e-002
1.450231e+003,4.920497e-002
1.452159e+003,5.723825e-002
1.454088e+003,6.765591e-002
1.456016e+003,7.847887e-002
1.457945e+003,1.066008e-001
1.459873e+003,1.568127e-001
1.461802e+003,2.032065e-001
1.463730e+003,1.967170e-001
1.465659e+003,1.468974e-001
1.467587e+003,1.315416e-001
1.469516e+003,1.268958e-001
1.471444e+003,1.420600e-001
1.473373e+003,1.277937e-001
1.475301e+003,7.059904e-002
1.477230e+003,3.214961e-002
1.479158e+003,2.112279e-002
1.481087e+003,1.593287e-002
1.483015e+003,1.357057e-002
1.484944e+003,1.164429e-002
1.486872e+003,1.104647e-002
1.488801e+003,9.696901e-003
1.490729e+003,9.452829e-003
1.492658e+003,8.524777e-003
1.494586e+003,8.588245e-003
1.496515e+003,7.885998e-003
1.498443e+003,8.027451e-003
1.500372e+003,7.457686e-003
1.502300e+003,7.521608e-003
1.504229e+003,7.153156e-003
1.506157e+003,7.647611e-003
1.508086e+003,6.908907e-003
1.510014e+003,7.364957e-003
1.511943e+003,7.124273e-003
1.513871e+003,7.389061e-003
1.515800e+003,7.252102e-003
1.517728e+003,7.613968e-003
1.519657e+003,7.324023e-003
1.521585e+003,7.703532e-003
1.523514e+003,7.370893e-003
1.525442e+003,7.713721e-003
1.527371e+003,7.618173e-003
1.529299e+003,7.818064e-003
1.531228e+003,7.724488e-003
1.533156e+003,8.100155e-003
1.535085e+003,8.015484e-003
1.537013e+003,8.306191e-003
1.538942e+003,8.269203e-003
1.540870e+003,8.789406e-003
1.542799e+003,8.386075e-003
1.544727e+003,8.575632e-003
1.546656e+003,8.244407e-003
1.548584e+003,8.256619e-003
1.550513e+003,7.995893e-003
1.552441e+003,7.965066e-003
1.554370e+003,7.697712e-003
1.556298e+003,7.779520e-003
1.558227e+003,7.443774e-003
1.560155e+003,7.302309e-003
1.562084e+003,6.895905e-003
1.564012e+003,6.880109e-003
1.565941e+003,6.670210e-003
1.567869e+003,6.760231e-003
1.569798e+003,6.622373e-003
1.571726e+003,6.596575e-003
1.573655e+003,6.496750e-003
1.575583e+003,6.742988e-003
1.577512e+003,6.543112e-003
1.579440e+003,6.510355e-003
1.581369e+003,6.387716e-003
1.583297e+003,6.405478e-003
1.585226e+003,6.286061e-003
1.587154e+003,6.367170e-003
1.589083e+003,6.325091e-003
1.591011e+003,6.372729e-003
1.592940e+003,6.333821e-003
1.594868e+003,6.445599e-003
1.596797e+003,6.363217e-003
1.598725e+003,6.414881e-003
1.600654e+003,6.370313e-003
1.602582e+003,6.472474e-003
1.604511e+003,6.431756e-003
1.606439e+003,6.584303e-003
1.608368e+003,6.634401e-003
1.610296e+003,6.817158e-003
1.612225e+003,6.947550e-003
1.614153e+003,7.225001e-003
1.616082e+003,7.412432e-003
1.618010e+003,7.720022e-003
1.619939e+003,7.767759e-003
1.621867e+003,8.070614e-003
1.623796e+003,8.360650e-003
1.625724e+003,8.670500e-003
1.627653e+003,8.828292e-003
1.629581e+003,9.050822e-003
1.631510e+003,9.154880e-003
1.633438e+003,9.406939e-003
1.635367e+003,9.667476e-003
1.637295e+003,1.009389e-002
1.639224e+003,1.015313e-002
1.641152e+003,1.035934e-002
1.643081e+003,1.039477e-002
1.645009e+003,1.058070e-002
1.646938e+003,1.066026e-002
1.648866e+003,1.069042e-002
1.650795e+003,1.055019e-002
1.652723e+003,1.072867e-002
1.654652e+003,1.037756e-002
1.656580e+003,1.018661e-002
1.658509e+003,9.917935e-003
1.660437e+003,9.744406e-003
1.662366e+003,9.358909e-003
1.664294e+003,9.095222e-003
1.666223e+003,8.837952e-003
1.668151e+003,8.686562e-003
1.670080e+003,8.171710e-003
1.672008e+003,7.986587e-003
1.673937e+003,7.698541e-003
1.675865e+003,7.447085e-003
1.677794e+003,7.100011e-003
1.679722e+003,6.912430e-003
1.681651e+003,6.533729e-003
1.683579e+003,6.313007e-003
1.685508e+003,5.893595e-003
1.687436e+003,5.820080e-003
1.689365e+003,5.453415e-003
1.691293e+003,5.229057e-003
1.693222e+003,5.045485e-003
1.695150e+003,5.009248e-003
1.697079e+003,4.724273e-003
1.699007e+003,4.715437e-003
1.700936e+003,4.597963e-003
1.702864e+003,4.644986e-003
1.704793e+003,4.547907e-003
1.706721e+003,4.788626e-003
1.708650e+003,4.927449e-003
1.710578e+003,5.166711e-003
1.712507e+003,5.255859e-003
1.714435e+003,5.488652e-003
1.716364e+003,5.506420e-003
1.718292e+003,5.701610e-003
1.720221e+003,5.700632e-003
1.722149e+003,5.802256e-003
1.724078e+003,5.846873e-003
1.726006e+003,6.048588e-003
1.727935e+003,6.230717e-003
1.729863e+003,6.688250e-003
1.731792e+003,6.976176e-003
1.733720e+003,7.616263e-003
1.735649e+003,8.214272e-003
1.737577e+003,8.765001e-003
1.739506e+003,9.670990e-003
1.741434e+003,1.060603e-002
1.743363e+003,1.132574e-002
1.745291e+003,1.188924e-002
1.747220e+003,1.185198e-002
1.749148e+003,1.133497e-002
1.751077e+003,9.919909e-003
1.753005e+003,8.349393e-003
1.754934e+003,7.002391e-003
1.756862e+003,5.446200e-003
1.758791e+003,4.165242e-003
1.760719e+003,3.500802e-003
1.762648e+003,2.694508e-003
1.764576e+003,2.215330e-003
1.766505e+003,1.872732e-003
1.768433e+003,1.768942e-003
1.770362e+003,1.599716e-003
1.772290e+003,1.497668e-003
1.774219e+003,1.156316e-003
1.776147e+003,1.111249e-003
1.778076e+003,9.949561e-004
1.780004e+003,1.031904e-003
1.781933e+003,9.014187e-004
1.783861e+003,9.279931e-004
1.785790e+003,8.201944e-004
1.787718e+003,8.667624e-004
1.789646e+003,8.530403e-004
1.791575e+003,9.771967e-004
1.793504e+003,7.535685e-004
1.795432e+003,6.914940e-004
1.797361e+003,5.961321e-004
1.799289e+003,7.845694e-004
1.801218e+003,7.078759e-004
1.803146e+003,5.999962e-004
1.805074e+003,4.359307e-004
1.807003e+003,4.435526e-004
1.808932e+003,2.843728e-004
1.810860e+003,2.730293e-004
1.812789e+003,4.688371e-005
1.814717e+003,-1.471154e-004
1.816646e+003,-3.328994e-004
1.818574e+003,-2.010912e-005
1.820502e+003,1.302622e-004
1.822431e+003,1.830701e-004
1.824360e+003,-6.274600e-005
1.826288e+003,-4.715752e-005
1.828217e+003,-1.813751e-004
1.830145e+003,-8.207653e-005
1.832073e+003,-2.719024e-004
1.834002e+003,-2.761614e-004
1.835931e+003,-3.200537e-004
1.837859e+003,-2.467679e-004
1.839788e+003,-4.531369e-004
1.841716e+003,-5.397620e-004
1.843645e+003,-6.517991e-004
1.845573e+003,-4.322985e-004
1.847501e+003,-4.963493e-004
1.849430e+003,-4.532253e-004
1.851359e+003,-5.285135e-004
1.853287e+003,-3.942242e-004
1.855216e+003,-5.163113e-004
1.857144e+003,-4.642401e-004
1.859073e+003,-5.631018e-004
1.861001e+003,-3.950717e-004
1.862929e+003,-4.804200e-004
1.864858e+003,-3.145309e-004
1.866787e+003,-4.379591e-004
1.868715e+003,-4.247986e-004
1.870644e+003,-5.100174e-004
1.872572e+003,-5.665272e-004
1.874500e+003,-7.563010e-004
1.876429e+003,-6.505959e-004
1.878357e+003,-7.655304e-004
1.880286e+003,-8.125454e-004
1.882215e+003,-9.731892e-004
1.884143e+003,-6.208206e-004
1.886072e+003,-4.986646e-004
1.888000e+003,-3.620004e-004
1.889928e+003,-7.467251e-004
1.891857e+003,-7.363604e-004
1.893785e+003,-8.027619e-004
1.895714e+003,-3.812769e-004
1.897643e+003,-4.181582e-004
1.899571e+003,-3.088750e-004
1.901500e+003,-3.015548e-004
1.903428e+003,-2.942476e-004
1.905356e+003,-2.869554e-004
1.907285e+003,-2.796799e-004
1.909213e+003,-2.724184e-004
1.911142e+003,-2.651671e-004
1.913071e+003,-2.579344e-004
1.914999e+003,-2.507167e-004
1.916927e+003,-2.435129e-004
1.918856e+003,-2.363212e-004
1.920784e+003,-2.291463e-004
1.922713e+003,-2.219863e-004
1.924641e+003,-2.148394e-004
1.926570e+003,-2.077064e-004
1.928499e+003,-2.005892e-004
1.930427e+003,-1.934879e-004
1.932355e+003,-1.863986e-004
1.934284e+003,-1.793243e-004
1.936212e+003,-1.722658e-004
1.938141e+003,-1.652213e-004
1.940070e+003,-1.581889e-004
1.941998e+003,-1.511732e-004
1.943927e+003,-1.441725e-004
1.945855e+003,-1.371857e-004
1.947783e+003,-1.302138e-004
1.949712e+003,-1.232559e-004
1.951640e+003,-1.163129e-004
1.953569e+003,-1.093838e-004
1.955498e+003,-1.024688e-004
1.957426e+003,-9.557046e-005
1.959354e+003,-8.868519e-005
1.961283e+003,-8.181389e-005
1.963211e+003,-7.495750e-005
1.965140e+003,-6.811693e-005
1.967068e+003,-6.128848e-005
1.968997e+003,-5.447678e-005
1.970926e+003,-4.767813e-005
1.972854e+003,-4.089437e-005
1.974782e+003,-3.412552e-005
1.976711e+003,-2.737157e-005
1.978639e+003,-2.063066e-005
1.980568e+003,-1.390558e-005
1.982496e+003,-7.194467e-006
1.984425e+003,-4.963949e-007
1.986354e+003,6.186776e-006
1.988282e+003,1.285318e-005
1.990210e+003,1.950655e-005
1.992139e+003,2.614595e-005
1.994067e+003,3.276858e-005
1.995996e+003,3.937818e-005
1.997924e+003,4.597288e-005
1.999853e+003,5.255546e-005
2.001781e+003,5.912036e-005
2.003710e+003,6.567221e-005
2.005638e+003,7.220730e-005
2.007567e+003,7.873122e-005
2.009495e+003,8.523837e-005
2.011424e+003,9.173248e-005
2.013352e+003,9.821262e-005
2.015281e+003,1.046769e-004
2.017209e+003,1.111263e-004
2.019138e+003,1.175608e-004
2.021066e+003,1.239823e-004
2.022995e+003,1.303889e-004
2.024923e+003,1.367806e-004
2.026852e+003,1.431573e-004
2.028781e+003,1.495220e-004
2.030709e+003,1.558689e-004
2.032637e+003,1.622029e-004
2.034566e+003,1.685219e-004
2.036494e+003,1.748269e-004
2.038423e+003,1.811180e-004
2.040351e+003,1.873914e-004
2.042280e+003,1.936555e-004
2.044208e+003,1.999009e-004
2.046137e+003,2.061334e-004
2.048065e+003,2.123509e-004
2.049994e+003,2.185535e-004
2.051922e+003,2.247421e-004
2.053851e+003,2.309186e-004
2.055779e+003,2.370784e-004
2.057708e+003,2.432223e-004
2.059636e+003,2.493532e-004
2.061565e+003,2.554683e-004
2.063493e+003,2.615694e-004
2.065422e+003,2.676575e-004
2.067350e+003,2.737297e-004
2.069279e+003,2.797889e-004
2.071207e+003,2.858322e-004
2.073136e+003,2.918616e-004
2.075064e+003,2.978761e-004
2.076993e+003,3.038757e-004
2.078921e+003,3.098622e-004
2.080850e+003,3.158310e-004
2.082778e+003,3.217887e-004
2.084707e+003,3.277324e-004
2.086635e+003,3.336594e-004
2.088564e+003,3.395742e-004
2.090492e+003,3.454713e-004
2.092421e+003,3.513563e-004
2.094349e+003,3.572237e-004
2.096278e+003,3.630789e-004
2.098206e+003,3.689220e-004
2.100135e+003,3.747465e-004
2.102063e+003,3.805580e-004
2.103992e+003,3.863554e-004
2.105920e+003,3.921371e-004
2.107849e+003,3.979038e-004
2.109777e+003,4.036576e-004
2.111706e+003,4.093973e-004
2.113634e+003,4.151231e-004
2.115563e+003,4.208330e-004
2.117491e+003,4.265280e-004
2.119420e+003,4.322082e-004
2.121348e+003,4.378743e-004
2.123277e+003,4.435256e-004
2.125205e+003,4.491620e-004
2.127134e+003,4.547853e-004
2.129062e+003,4.603956e-004
2.130991e+003,4.659900e-004
2.132919e+003,4.715677e-004
2.134848e+003,4.771333e-004
2.136776e+003,4.826840e-004
2.138705e+003,4.882179e-004
2.140633e+003,4.937388e-004
2.142562e+003,4.992485e-004
2.144490e+003,5.047396e-004
2.146419e+003,5.102167e-004
2.148347e+003,5.156808e-004
2.150276e+003,5.211281e-004
2.152204e+003,5.265633e-004
2.154133e+003,5.319826e-004
2.156061e+003,5.373899e-004
2.157990e+003,5.427804e-004
2.159918e+003,5.481550e-004
2.161847e+003,5.535167e-004
2.163775e+003,5.588634e-004
2.165704e+003,5.641952e-004
2.167632e+003,5.695140e-004
2.169561e+003,5.748160e-004
2.171489e+003,5.801059e-004
2.173418e+003,5.853828e-004
2.175346e+003,5.906429e-004
2.177275e+003,5.958872e-004
2.179203e+003,6.011184e-004
2.181132e+003,6.063357e-004
2.183060e+003,6.115371e-004
2.184989e+003,6.167237e-004
2.186917e+003,6.218981e-004
2.188846e+003,6.270567e-004
2.190774e+003,6.322004e-004
2.192703e+003,6.373301e-004
2.194631e+003,6.424440e-004
2.196560e+003,6.475458e-004
2.198488e+003,6.526317e-004
2.200417e+003,6.577047e-004
2.202345e+003,6.627617e-004
2.204274e+003,6.678039e-004
2.206202e+003,6.728312e-004
2.208131e+003,6.778445e-004
2.210059e+003,6.828429e-004
2.211988e+003,6.878264e-004
2.213916e+003,6.927960e-004
2.215845e+003,6.977497e-004
2.217773e+003,7.026941e-004
2.219702e+003,7.076198e-004
2.221630e+003,7.125307e-004
2.223559e+003,7.174285e-004
2.225487e+003,7.223114e-004
2.227416e+003,7.271795e-004
2.229344e+003,7.320326e-004
2.231273e+003,7.368736e-004
2.233201e+003,7.416997e-004
2.235130e+003,7.465072e-004
2.237058e+003,7.513035e-004
2.238987e+003,7.560849e-004
2.240915e+003,7.608505e-004
2.242844e+003,7.656021e-004
2.244772e+003,7.703425e-004
2.246701e+003,7.750662e-004
2.248629e+003,7.797740e-004
2.250558e+003,7.844679e-004
2.252486e+003,7.891478e-004
2.254415e+003,7.938128e-004
2.256343e+003,7.984629e-004
2.258272e+003,8.030981e-004
2.260200e+003,8.077202e-004
2.262129e+003,8.123294e-004
2.264057e+003,8.169217e-004
2.265986e+003,8.214982e-004
2.267914e+003,8.260626e-004
2.269843e+003,8.306103e-004
2.271771e+003,8.351449e-004
2.273700e+003,8.396655e-004
2.275628e+003,8.441731e-004
2.277557e+003,8.486640e-004
2.279485e+003,8.531399e-004
2.281414e+003,8.576009e-004
2.283342e+003,8.620480e-004
2.285271e+003,8.664802e-004
2.287199e+003,8.708993e-004
2.289128e+003,8.753045e-004
2.291056e+003,8.796956e-004
2.292985e+003,8.840691e-004
2.294913e+003,8.884296e-004
2.296842e+003,8.927761e-004
2.298770e+003,8.971067e-004
2.300699e+003,9.014234e-004
2.302627e+003,9.057280e-004
2.304556e+003,9.100167e-004
2.306484e+003,9.142896e-004
2.308413e+003,9.185467e-004
2.310341e+003,9.227917e-004
2.312270e+003,9.270208e-004
2.314198e+003,9.312369e-004
2.316127e+003,9.354362e-004
2.318055e+003,9.396225e-004
2.319984e+003,9.437967e-004
2.321912e+003,9.479532e-004
2.323841e+003,9.520948e-004
2.325769e+003,9.562243e-004
2.327698e+003,9.603379e-004
2.329626e+003,9.644367e-004
2.331555e+003,9.685205e-004
2.333483e+003,9.725932e-004
2.335412e+003,9.766482e-004
2.337340e+003,9.806883e-004
2.339269e+003,9.847153e-004
2.341197e+003,9.887284e-004
2.343126e+003,9.927247e-004
2.345054e+003,9.967079e-004
2.346983e+003,1.000679e-003
2.348911e+003,1.004633e-003
2.350840e+003,1.008572e-003
2.352768e+003,1.012496e-003
2.354697e+003,1.016408e-003
2.356625e+003,1.020303e-003
2.358554e+003,1.024184e-003
2.360482e+003,1.028051e-003
2.362411e+003,1.031904e-003
2.364339e+003,1.035742e-003
2.366268e+003,1.039566e-003
2.368196e+003,1.043376e-003
2.370125e+003,1.047170e-003
2.372053e+003,1.050948e-003
2.373982e+003,1.054714e-003
2.375910e+003,1.058465e-003
2.377839e+003,1.062203e-003
2.379767e+003,1.065926e-003
2.381696e+003,1.069632e-003
2.383624e+003,1.073325e-003
2.385553e+003,1.077003e-003
2.387481e+003,1.080667e-003
2.389410e+003,1.084317e-003
2.391338e+003,1.087953e-003
2.393267e+003,1.091573e-003
2.395195e+003,1.095179e-003
2.397124e+003,1.098771e-003
2.399052e+003,1.102348e-003
2.400981e+003,1.098871e-003
2.402909e+003,1.172766e-003
2.404838e+003,1.230604e-003
2.406766e+003,1.415745e-003
2.408695e+003,1.759359e-003
2.410623e+003,1.825269e-003
2.412552e+003,1.867091e-003
2.414480e+003,1.898495e-003
2.416409e+003,1.955058e-003
2.418337e+003,1.882906e-003
2.420266e+003,1.782950e-003
2.422194e+003,1.737913e-003
2.424123e+003,1.824568e-003
2.426051e+003,1.903033e-003
2.427979e+003,1.937016e-003
2.429908e+003,1.716156e-003
2.431837e+003,1.718438e-003
2.433765e+003,1.867842e-003
2.435694e+003,1.885058e-003
2.437622e+003,1.708029e-003
2.439551e+003,1.629280e-003
2.441479e+003,1.689920e-003
2.443407e+003,1.868194e-003
2.445336e+003,1.904512e-003
2.447265e+003,1.883821e-003
2.449193e+003,1.802192e-003
2.451122e+003,1.897063e-003
2.453050e+003,2.003470e-003
2.454979e+003,2.055191e-003
2.456907e+003,1.939244e-003
2.458836e+003,1.955560e-003
2.460764e+003,2.092369e-003
2.462693e+003,2.104418e-003
2.464621e+003,1.916450e-003
2.466550e+003,1.944377e-003
2.468478e+003,1.993764e-003
2.470406e+003,2.158027e-003
2.472335e+003,2.324725e-003
2.474264e+003,2.432728e-003
2.476192e+003,2.283929e-003
2.478121e+003,2.259837e-003
2.480049e+003,2.386872e-003
2.481978e+003,2.517784e-003
2.483906e+003,2.536345e-003
2.485835e+003,2.561787e-003
2.487763e+003,2.582397e-003
2.489692e+003,2.591714e-003
2.491620e+003,2.469089e-003
2.493549e+003,2.518011e-003
2.495477e+003,2.676481e-003
2.497406e+003,2.823437e-003
2.499334e+003,2.867764e-003
2.501263e+003,2.997240e-003
2.503191e+003,3.074385e-003
2.505120e+003,3.128437e-003
2.507048e+003,3.109433e-003
2.508977e+003,3.091231e-003
2.510905e+003,3.055571e-003
2.512833e+003,3.204873e-003
2.514762e+003,3.214283e-003
2.516691e+003,3.250655e-003
2.518619e+003,3.540469e-003
2.520548e+003,3.759518e-003
2.522476e+003,3.764493e-003
2.524405e+003,3.880333e-003
2.526333e+003,3.985882e-003
2.528261e+003,4.133182e-003
2.530190e+003,4.180126e-003
2.532119e+003,4.099581e-003
2.534047e+003,4.080676e-003
2.535976e+003,4.243338e-003
2.537904e+003,4.243910e-003
2.539833e+003,4.212441e-003
2.541761e+003,4.280331e-003
2.543689e+003,4.376367e-003
2.545618e+003,4.512297e-003
2.547547e+003,4.803039e-003
2.549475e+003,4.952861e-003
2.551404e+003,5.140021e-003
2.553332e+003,5.076375e-003
2.555260e+003,5.254077e-003
2.557189e+003,5.396325e-003
2.559117e+003,5.326457e-003
2.561046e+003,5.408352e-003
2.562975e+003,5.638150e-003
2.564903e+003,5.842086e-003
2.566832e+003,5.995719e-003
2.568760e+003,6.041488e-003
2.570688e+003,6.177358e-003
2.572617e+003,6.363837e-003
2.574546e+003,6.696172e-003
2.576474e+003,6.916035e-003
2.578403e+003,7.090319e-003
2.580331e+003,7.193774e-003
2.582260e+003,7.284367e-003
2.584188e+003,7.416772e-003
2.586116e+003,7.786509e-003
2.588045e+003,7.978877e-003
2.589974e+003,8.188812e-003
2.591902e+003,8.433120e-003
2.593831e+003,8.636735e-003
2.595759e+003,8.846030e-003
2.597688e+003,9.047741e-003
2.599616e+003,9.181622e-003
2.601544e+003,9.453617e-003
2.603473e+003,9.770174e-003
2.605402e+003,1.004082e-002
2.607330e+003,1.025560e-002
2.609259e+003,1.053982e-002
2.611187e+003,1.085649e-002
2.613115e+003,1.121278e-002
2.615044e+003,1.157946e-002
2.616972e+003,1.195859e-002
2.618901e+003,1.232496e-002
2.620830e+003,1.275518e-002
2.622758e+003,1.313892e-002
2.624687e+003,1.359731e-002
2.626615e+003,1.410496e-002
2.628543e+003,1.452813e-002
2.630472e+003,1.488463e-002
2.632400e+003,1.518026e-002
2.634329e+003,1.543206e-002
2.636258e+003,1.560721e-002
2.638186e+003,1.560821e-002
2.640115e+003,1.556980e-002
2.642043e+003,1.559610e-002
2.643971e+003,1.563933e-002
2.645900e+003,1.566612e-002
2.647828e+003,1.578600e-002
2.649757e+003,1.591823e-002
2.651686e+003,1.609255e-002
2.653614e+003,1.633903e-002
2.655542e+003,1.655158e-002
2.657471e+003,1.669188e-002
2.659399e+003,1.667519e-002
2.661328e+003,1.654133e-002
2.663256e+003,1.645765e-002
2.665185e+003,1.629754e-002
2.667114e+003,1.615237e-002
2.669042e+003,1.605218e-002
2.670970e+003,1.590661e-002
2.672899e+003,1.570120e-002
2.674827e+003,1.551290e-002
2.676756e+003,1.540062e-002
2.678685e+003,1.531854e-002
2.680613e+003,1.520484e-002
2.682542e+003,1.511964e-002
2.684470e+003,1.501018e-002
2.686398e+003,1.484258e-002
2.688327e+003,1.467731e-002
2.690255e+003,1.461972e-002
2.692184e+003,1.452448e-002
2.694113e+003,1.441937e-002
2.696041e+003,1.434812e-002
2.697969e+003,1.437964e-002
2.699898e+003,1.452341e-002
2.701826e+003,1.473375e-002
2.703755e+003,1.489132e-002
2.705683e+003,1.503024e-002
2.707612e+003,1.522686e-002
2.709541e+003,1.543142e-002
2.711469e+003,1.557276e-002
2.713397e+003,1.574553e-002
2.715326e+003,1.591642e-002
2.717254e+003,1.608663e-002
2.719183e+003,1.635574e-002
2.721111e+003,1.670289e-002
2.723040e+003,1.697942e-002
2.724969e+003,1.724132e-002
2.726897e+003,1.754129e-002
2.728825e+003,1.784377e-002
2.730754e+003,1.810331e-002
2.732682e+003,1.834982e-002
2.734611e+003,1.854667e-002
2.736539e+003,1.872100e-002
2.738468e+003,1.889876e-002
2.740396e+003,1.902184e-002
2.742325e+003,1.905348e-002
2.744253e+003,1.904626e-002
2.746182e+003,1.902081e-002
2.748110e+003,1.906625e-002
2.750039e+003,1.915445e-002
2.751967e+003,1.929793e-002
2.753896e+003,1.959521e-002
2.755824e+003,1.988175e-002
2.757753e+003,2.020982e-002
2.759681e+003,2.060597e-002
2.761610e+003,2.099994e-002
2.763538e+003,2.146716e-002
2.765467e+003,2.194636e-002
2.767395e+003,2.245642e-002
2.769324e+003,2.300712e-002
2.771252e+003,2.363212e-002
2.773181e+003,2.435309e-002
2.775109e+003,2.509117e-002
2.777038e+003,2.602684e-002
2.778966e+003,2.707996e-002
2.780895e+003,2.813599e-002
2.782823e+003,2.937948e-002
2.784752e+003,3.072766e-002
2.786680e+003,3.214705e-002
2.788609e+003,3.371474e-002
2.790537e+003,3.539586e-002
2.792466e+003,3.712809e-002
2.794394e+003,3.891913e-002
2.796323e+003,4.075357e-002
2.798251e+003,4.268342e-002
2.800180e+003,4.473321e-002
2.802108e+003,4.685924e-002
2.804037e+003,4.912543e-002
2.805965e+003,5.163433e-002
2.807894e+003,5.445689e-002
2.809822e+003,5.757074e-002
2.811751e+003,6.105848e-002
2.813679e+003,6.508073e-002
2.815608e+003,6.975873e-002
2.817536e+003,7.517594e-002
2.819465e+003,8.156733e-002
2.821393e+003,8.921257e-002
2.823322e+003,9.846461e-002
2.825250e+003,1.098539e-001
2.827179e+003,1.242188e-001
2.829107e+003,1.426756e-001
2.831036e+003,1.670237e-001
2.832964e+003,2.000809e-001
2.834893e+003,2.463443e-001
2.836821e+003,3.121157e-001
2.838750e+003,4.077022e-001
2.840678e+003,5.500646e-001
2.842607e+003,7.606457e-001
2.844535e+003,1.049478e+000
2.846464e+003,1.338788e+000
2.848392e+003,1.367750e+000
2.850321e+003,1.089142e+000
2.852249e+003,7.938555e-001
2.854178e+003,5.929121e-001
2.856106e+003,4.582174e-001
2.858035e+003,3.623977e-001
2.859963e+003,2.935423e-001
2.861892e+003,2.452659e-001
2.863820e+003,2.129158e-001
2.865749e+003,1.931065e-001
2.867677e+003,1.831429e-001
2.869606e+003,1.801370e-001
2.871534e+003,1.817135e-001
2.873463e+003,1.873174e-001
2.875391e+003,1.982162e-001
2.877320e+003,2.154268e-001
2.879248e+003,2.386029e-001
2.881177e+003,2.665145e-001
2.883105e+003,2.978668e-001
2.885034e+003,3.319850e-001
2.886962e+003,3.682278e-001
2.888891e+003,4.057858e-001
2.890819e+003,4.435520e-001
2.892748e+003,4.809377e-001
2.894676e+003,5.179211e-001
2.896605e+003,5.550739e-001
2.898533e+003,5.939563e-001
2.900462e+003,6.375456e-001
2.902390e+003,6.903650e-001
2.904319e+003,7.592961e-001
2.906247e+003,8.533483e-001
2.908176e+003,9.824349e-001
2.910104e+003,1.153361e+000
2.912033e+003,1.352472e+000
2.913961e+003,1.509994e+000
2.915890e+003,1.517168e+000
2.917818e+003,1.363181e+000
2.919747e+003,1.151258e+000
2.921675e+003,9.565098e-001
2.923604e+003,7.977642e-001
2.925532e+003,6.718922e-001
2.927461e+003,5.701091e-001
2.929389e+003,4.849377e-001
2.931318e+003,4.122065e-001
2.933246e+003,3.495988e-001
2.935175e+003,2.959569e-001
2.937103e+003,2.503376e-001
2.939032e+003,2.117223e-001
2.940960e+003,1.794953e-001
2.942889e+003,1.533437e-001
2.944817e+003,1.329517e-001
2.946746e+003,1.179491e-001
2.948674e+003,1.077441e-001
2.950603e+003,1.010252e-001
2.952531e+003,9.599755e-002
2.954460e+003,9.122072e-002
2.956388e+003,8.610786e-002
2.958317e+003,8.042176e-002
2.960245e+003,7.419433e-002
2.962174e+003,6.757428e-002
2.964102e+003,6.088740e-002
2.966031e+003,5.439608e-002
2.967959e+003,4.849502e-002
2.969888e+003,4.339192e-002
2.971816e+003,3.896761e-002
2.973745e+003,3.524797e-002
2.975673e+003,3.223155e-002
2.977602e+003,2.963385e-002
2.979530e+003,2.742253e-002
2.981459e+003,2.554084e-002
2.983387e+003,2.397948e-002
2.985316e+003,2.268785e-002
2.987244e+003,2.165096e-002
2.989173e+003,2.070954e-002
2.991101e+003,1.992691e-002
2.993030e+003,1.922125e-002
2.994958e+003,1.865214e-002
2.996887e+003,1.826321e-002
2.998815e+003,1.803778e-002
3.000744e+003,1.784522e-002
3.002672e+003,1.752399e-002
3.004601e+003,1.716094e-002
3.006529e+003,1.684707e-002
3.008458e+003,1.636678e-002
3.010386e+003,1.589536e-002
3.012315e+003,1.553718e-002
3.014243e+003,1.521666e-002
3.016172e+003,1.482408e-002
3.018100e+003,1.446918e-002
3.020029e+003,1.415322e-002
3.021957e+003,1.391344e-002
3.023886e+003,1.372043e-002
3.025814e+003,1.362622e-002
3.027743e+003,1.343383e-002
3.029671e+003,1.318995e-002
3.031600e+003,1.298780e-002
3.033528e+003,1.280859e-002
3.035457e+003,1.256732e-002
3.037385e+003,1.226133e-002
3.039314e+003,1.194737e-002
3.041242e+003,1.171460e-002
3.043171e+003,1.141115e-002
3.045099e+003,1.116221e-002
3.047028e+003,1.100578e-002
3.048956e+003,1.083582e-002
3.050885e+003,1.066988e-002
3.052813e+003,1.053107e-002
3.054742e+003,1.044842e-002
3.056670e+003,1.036783e-002
3.058599e+003,1.033035e-002
3.060527e+003,1.026035e-002
3.062456e+003,1.005232e-002
3.064384e+003,9.953383e-003
3.066313e+003,9.934528e-003
3.068241e+003,9.922078e-003
3.070170e+003,9.892022e-003
3.072098e+003,9.826420e-003
3.074027e+003,9.746246e-003
3.075955e+003,9.654190e-003
3.077884e+003,9.625927e-003
3.079812e+003,9.600226e-003
3.081741e+003,9.503387e-003
3.083669e+003,9.418121e-003
3.085598e+003,9.321654e-003
3.087526e+003,9.206351e-003
3.089455e+003,9.012327e-003
3.091383e+003,8.848330e-003
3.093312e+003,8.648945e-003
3.095240e+003,8.414755e-003
3.097169e+003,8.199900e-003
3.099097e+003,8.039022e-003
3.101026e+003,7.818665e-003
3.102954e+003,7.632278e-003
3.104883e+003,7.573592e-003
3.106811e+003,7.497596e-003
3.108740e+003,7.369127e-003
3.110668e+003,7.311199e-003
3.112597e+003,7.310664e-003
3.114525e+003,7.368481e-003
3.116454e+003,7.407803e-003
3.118382e+003,7.381774e-003
3.120311e+003,7.283621e-003
3.122239e+003,7.249335e-003
3.124168e+003,7.343795e-003
3.126096e+003,7.429169e-003
3.128025e+003,7.428089e-003
3.129953e+003,7.502383e-003
3.131882e+003,7.599644e-003
3.133810e+003,7.606903e-003
3.135739e+003,7.677289e-003
3.137667e+003,7.762076e-003
3.139596e+003,7.775053e-003
3.141524e+003,7.910904e-003
3.143453e+003,8.027039e-003
3.145381e+003,8.051347e-003
3.147310e+003,7.993983e-003
3.149238e+003,8.061970e-003
3.151167e+003,8.207995e-003
3.153095e+003,8.271063e-003
3.155024e+003,8.380763e-003
3.156952e+003,8.511221e-003
3.158881e+003,8.679165e-003
3.160809e+003,8.837476e-003
3.162738e+003,8.984527e-003
3.164666e+003,9.044945e-003
3.166594e+003,9.078735e-003
3.168523e+003,9.158693e-003
3.170452e+003,9.324865e-003
3.172380e+003,9.443855e-003
3.174309e+003,9.538900e-003
3.176237e+003,9.675916e-003
3.178166e+003,9.669339e-003
3.180094e+003,9.779548e-003
3.182022e+003,9.989090e-003
3.183951e+003,1.016578e-002
3.185880e+003,1.025090e-002
3.187808e+003,1.034216e-002
3.189737e+003,1.046295e-002
3.191665e+003,1.054048e-002
3.193594e+003,1.064376e-002
3.195522e+003,1.083504e-002
3.197450e+003,1.093819e-002
3.199379e+003,1.094500e-002
3.201308e+003,1.099241e-002
3.203236e+003,1.113155e-002
3.205165e+003,1.123565e-002
3.207093e+003,1.135900e-002
3.209021e+003,1.148425e-002
3.210950e+003,1.160311e-002
3.212878e+003,1.172113e-002
3.214807e+003,1.177656e-002
3.216736e+003,1.180661e-002
3.218664e+003,1.194515e-002
3.220593e+003,1.208594e-002
3.222521e+003,1.216355e-002
3.224449e+003,1.230146e-002
3.226378e+003,1.244358e-002
3.228307e+003,1.253413e-002
3.230235e+003,1.269817e-002
3.232164e+003,1.286152e-002
3.234092e+003,1.298136e-002
3.236021e+003,1.307452e-002
3.237949e+003,1.311027e-002
3.239877e+003,1.331663e-002
3.241806e+003,1.349021e-002
3.243735e+003,1.366091e-002
3.245663e+003,1.387650e-002
3.247592e+003,1.396278e-002
3.249520e+003,1.395472e-002
3.251448e+003,1.399856e-002
3.253377e+003,1.423278e-002
3.255305e+003,1.446751e-002
3.257234e+003,1.458315e-002
3.259163e+003,1.477606e-002
3.261091e+003,1.502211e-002
3.263020e+003,1.517225e-002
3.264948e+003,1.531535e-002
3.266876e+003,1.546972e-002
3.268805e+003,1.555566e-002
3.270733e+003,1.570624e-002
3.272662e+003,1.584096e-002
3.274591e+003,1.590395e-002
3.276519e+003,1.609291e-002
3.278448e+003,1.615588e-002
3.280376e+003,1.617101e-002
3.282304e+003,1.634804e-002
3.284233e+003,1.634841e-002
3.286161e+003,1.634931e-002
3.288090e+003,1.652774e-002
3.290019e+003,1.658965e-002
3.291947e+003,1.660780e-002
3.293875e+003,1.658490e-002
3.295804e+003,1.664332e-002
3.297732e+003,1.676344e-002
3.299661e+003,1.668977e-002
3.301589e+003,1.662284e-002
3.303518e+003,1.664570e-002
3.305447e+003,1.670852e-002
3.307375e+003,1.671859e-002
3.309303e+003,1.671502e-002
3.311232e+003,1.680862e-002
3.313160e+003,1.689928e-002
3.315089e+003,1.688413e-002
3.317018e+003,1.681845e-002
3.318946e+003,1.681789e-002
3.320875e+003,1.685192e-002
3.322803e+003,1.686731e-002
3.324731e+003,1.688292e-002
3.326660e+003,1.696550e-002
3.328588e+003,1.708886e-002
3.330517e+003,1.708972e-002
3.332446e+003,1.714699e-002
3.334374e+003,1.718692e-002
3.336302e+003,1.720678e-002
3.338231e+003,1.710759e-002
3.340159e+003,1.694708e-002
3.342088e+003,1.696677e-002
3.344016e+003,1.704867e-002
3.345945e+003,1.708220e-002
3.347874e+003,1.703674e-002
3.349802e+003,1.698745e-002
3.351730e+003,1.698307e-002
3.353659e+003,1.699282e-002
3.355587e+003,1.699354e-002
3.357516e+003,1.693765e-002
3.359444e+003,1.691783e-002
3.361373e+003,1.688893e-002
3.363302e+003,1.680295e-002
3.365230e+003,1.683969e-002
3.367158e+003,1.684665e-002
3.369087e+003,1.664930e-002
3.371015e+003,1.665257e-002
3.372944e+003,1.679020e-002
3.374872e+003,1.677055e-002
3.376801e+003,1.673223e-002
3.378729e+003,1.669040e-002
3.380658e+003,1.655262e-002
3.382586e+003,1.643092e-002
3.384515e+003,1.641323e-002
3.386443e+003,1.634582e-002
3.388372e+003,1.622838e-002
3.390300e+003,1.608992e-002
3.392229e+003,1.603707e-002
3.394157e+003,1.604977e-002
3.396086e+003,1.599716e-002
3.398014e+003,1.586538e-002
3.399943e+003,1.582126e-002
3.401871e+003,1.577709e-002
3.403800e+003,1.565871e-002
3.405728e+003,1.561668e-002
3.407657e+003,1.555465e-002
3.409585e+003,1.542479e-002
3.411514e+003,1.527656e-002
3.413442e+003,1.516648e-002
3.415371e+003,1.513468e-002
3.417299e+003,1.504321e-002
3.419228e+003,1.497395e-002
3.421156e+003,1.490332e-002
3.423085e+003,1.475356e-002
3.425013e+003,1.460643e-002
3.426942e+003,1.453895e-002
3.428870e+003,1.445052e-002
3.430799e+003,1.433305e-002
3.432727e+003,1.421800e-002
3.434656e+003,1.419437e-002
3.436584e+003,1.409324e-002
3.438513e+003,1.402659e-002
3.440441e+003,1.388770e-002
3.442370e+003,1.372280e-002
3.444298e+003,1.358582e-002
3.446227e+003,1.346414e-002
3.448155e+003,1.339456e-002
3.450084e+003,1.322187e-002
3.452012e+003,1.302801e-002
3.453941e+003,1.292920e-002
3.455869e+003,1.273156e-002
3.457798e+003,1.255474e-002
3.459726e+003,1.240932e-002
3.461655e+003,1.224495e-002
3.463583e+003,1.205429e-002
3.465512e+003,1.205376e-002
3.467440e+003,1.190232e-002
3.469369e+003,1.161061e-002
3.471297e+003,1.152463e-002
3.473226e+003,1.141804e-002
3.475154e+003,1.129541e-002
3.477083e+003,1.116297e-002
3.479011e+003,1.102165e-002
3.480940e+003,1.085466e-002
3.482868e+003,1.075188e-002
3.484797e+003,1.055172e-002
3.486725e+003,1.027628e-002
3.488654e+003,1.008040e-002
3.490582e+003,9.906573e-003
3.492511e+003,9.840870e-003
3.494439e+003,9.776749e-003
3.496368e+003,9.683760e-003
3.498296e+003,9.460475e-003
3.500225e+003,9.317501e-003
3.502153e+003,9.289479e-003
3.504082e+003,9.096269e-003
3.506010e+003,8.848462e-003
3.507939e+003,8.775551e-003
3.509867e+003,8.666774e-003
3.511796e+003,8.482466e-003
3.513724e+003,8.319139e-003
3.515653e+003,8.100776e-003
3.517581e+003,7.855872e-003
3.519510e+003,7.570103e-003
3.521438e+003,7.359978e-003
3.523367e+003,7.329324e-003
3.525295e+003,7.280141e-003
3.527224e+003,7.128485e-003
3.529152e+003,6.911106e-003
3.531081e+003,6.678948e-003
3.533009e+003,6.401509e-003
3.534938e+003,6.347002e-003
3.536866e+003,6.160617e-003
3.538795e+003,5.875802e-003
3.540723e+003,5.828813e-003
3.542652e+003,5.747508e-003
3.544580e+003,5.685767e-003
3.546509e+003,5.587865e-003
3.548437e+003,5.327689e-003
3.550366e+003,5.135179e-003
3.552294e+003,4.991572e-003
3.554223e+003,4.813943e-003
3.556151e+003,4.649235e-003
3.558080e+003,4.571622e-003
3.560008e+003,4.273485e-003
3.561937e+003,4.140604e-003
3.563865e+003,4.202707e-003
3.565794e+003,4.381225e-003
3.567722e+003,4.193932e-003
3.569651e+003,3.791388e-003
3.571579e+003,3.644628e-003
3.573508e+003,3.381532e-003
3.575436e+003,3.053144e-003
3.577365e+003,2.961453e-003
3.579293e+003,2.908923e-003
3.581222e+003,2.860561e-003
3.583150e+003,2.870794e-003
3.585079e+003,3.023446e-003
3.587007e+003,3.212484e-003
3.588936e+003,2.919326e-003
3.590864e+003,2.813490e-003
3.592793e+003,2.870135e-003
3.594721e+003,3.117701e-003
3.596650e+003,3.352817e-003
3.598578e+003,3.707550e-003
3.600507e+003,4.138751e-003
3.602435e+003,3.994416e-003
3.604364e+003,3.722489e-003
3.606292e+003,3.645390e-003
3.608221e+003,3.359627e-003
3.610149e+003,3.020840e-003
3.612078e+003,2.967270e-003
3.614006e+003,2.631268e-003
3.615935e+003,2.277650e-003
3.617863e+003,2.254603e-003
3.619792e+003,2.150439e-003
3.621720e+003,1.806222e-003
3.623649e+003,1.782877e-003
3.625577e+003,1.828114e-003
3.627506e+003,2.108224e-003
3.629434e+003,2.028659e-003
3.631363e+003,1.541749e-003
3.633291e+003,1.468554e-003
3.635220e+003,1.351884e-003
3.637148e+003,1.324994e-003
3.639077e+003,1.430981e-003
3.641005e+003,1.398440e-003
3.642934e+003,1.291914e-003
3.644862e+003,1.375904e-003
3.646791e+003,1.776842e-003
3.648719e+003,1.796583e-003
3.650648e+003,1.116762e-003
3.652576e+003,7.271841e-004
3.654505e+003,7.239487e-004
3.656433e+003,5.355719e-004
3.658362e+003,1.756456e-004
3.660290e+003,1.341011e-004
3.662219e+003,2.003815e-004
3.664147e+003,-1.048297e-005
3.666076e+003,-2.217926e-004
3.668004e+003,-7.405318e-005
3.669933e+003,2.094004e-004
3.671861e+003,-7.294677e-005
3.673790e+003,-6.960705e-005
3.675718e+003,3.784373e-004
3.677647e+003,-1.122560e-004
3.679575e+003,-4.304107e-004
3.681504e+003,-6.472822e-004
3.683432e+003,-7.818546e-004
3.685361e+003,-7.321071e-004
3.687289e+003,-4.930124e-004
3.689218e+003,-3.280845e-004
3.691146e+003,-4.551075e-004
3.693075e+003,-3.237091e-004
3.695003e+003,-3.499109e-004
3.696932e+003,-5.471446e-004
3.698860e+003,-4.941151e-004
3.700789e+003,-2.081040e-004
3.702717e+003,-2.557766e-004
3.704646e+003,-4.818588e-004
3.706574e+003,-6.589629e-004
3.708503e+003,-6.403513e-004
3.710431e+003,-3.322028e-004
3.712360e+003,-1.970679e-004
3.714288e+003,-6.372314e-004
3.716217e+003,-8.442961e-004
3.718145e+003,-7.450953e-004
3.720074e+003,-7.185973e-004
3.722002e+003,-6.147102e-004
3.723931e+003,-4.482213e-004
3.725859e+003,-4.978627e-004
3.727788e+003,-7.962137e-004
3.729716e+003,-9.199567e-004
3.731645e+003,-5.897637e-004
3.733573e+003,-1.596417e-004
3.735502e+003,1.112577e-004
3.737430e+003,-1.986455e-004
3.739359e+003,-3.130101e-004
3.741287e+003,-3.033075e-004
3.743216e+003,-5.125999e-005
3.745144e+003,1.930092e-004
3.747073e+003,7.844158e-005
3.749001e+003,2.305303e-004
3.750930e+003,2.440643e-004
3.752858e+003,-1.608450e-004
3.754787e+003,-3.069527e-004
3.756715e+003,-2.930537e-004
3.758644e+003,-2.776273e-004
3.760572e+003,-3.114864e-004
3.762501e+003,-4.233643e-004
3.764429e+003,-3.035832e-004
3.766358e+003,-3.714114e-004
3.768286e+003,-2.563056e-004
3.770215e+003,2.145581e-005
3.772143e+003,-1.605004e-004
3.774072e+003,-3.123656e-004
3.776000e+003,-3.392808e-004
3.777929e+003,-1.799483e-004
3.779857e+003,-7.955730e-005
3.781786e+003,-2.879277e-004
3.783714e+003,-2.503730e-004
3.785643e+003,-3.958754e-004
3.787571e+003,-4.844610e-004
3.789500e+003,-4.247446e-004
3.791428e+003,-3.488660e-004
3.793357e+003,-3.319792e-004
3.795285e+003,-1.231823e-004
3.797214e+003,-8.197501e-005
3.799142e+003,-2.983846e-004
3.801071e+003,-4.305746e-004
3.802999e+003,-4.484318e-004
3.804927e+003,-2.795942e-004
3.806856e+003,1.045503e-005
3.808785e+003,-2.596471e-004
3.810713e+003,-3.503002e-004
3.812642e+003,-1.720730e-004
3.814570e+003,1.312383e-004
3.816499e+003,2.223048e-004
3.818427e+003,1.422297e-004
3.820355e+003,5.838126e-004
3.822284e+003,3.116298e-004
3.824213e+003,3.134087e-005
3.826141e+003,3.278442e-005
3.828070e+003,-9.755231e-005
3.829998e+003,2.378039e-005
3.831927e+003,2.390444e-004
3.833855e+003,3.389679e-004
3.835783e+003,3.250260e-004
3.837712e+003,1.766142e-004
3.839641e+003,1.993440e-004
3.841569e+003,2.468377e-004
3.843498e+003,3.647618e-004
3.845426e+003,2.382211e-004
3.847354e+003,1.063738e-004
3.849283e+003,1.555812e-004
3.851211e+003,3.655050e-004
3.853140e+003,1.180097e-003
3.855069e+003,8.305218e-004
3.856997e+003,3.872588e-004
3.858926e+003,2.024751e-004
3.860854e+003,2.332516e-004
3.862782e+003,1.545046e-004
3.864711e+003,2.336297e-004
3.866640e+003,2.430733e-004
3.868568e+003,4.796777e-004
3.870497e+003,6.413478e-004
3.872425e+003,6.071106e-004
3.874354e+003,6.401446e-004
3.876282e+003,3.251527e-004
3.878210e+003,5.168673e-004
3.880139e+003,8.529164e-004
3.882068e+003,6.325785e-004
3.883996e+003,7.090550e-004
3.885925e+003,7.728972e-004
3.887853e+003,4.476625e-004
3.889781e+003,7.306896e-004
3.891710e+003,1.042275e-003
3.893638e+003,7.116385e-004
3.895567e+003,6.581228e-004
3.897496e+003,8.595213e-004
3.899424e+003,1.046671e-003
3.901353e+003,1.011396e-003
3.903281e+003,1.087904e-003
3.905209e+003,9.312425e-004
3.907138e+003,7.326398e-004
3.909066e+003,6.991085e-004
3.910995e+003,6.960165e-004
3.912924e+003,7.494241e-004
3.914852e+003,8.694567e-004
3.916781e+003,9.311941e-004
3.918709e+003,7.330421e-004
3.920637e+003,6.028190e-004
3.922566e+003,6.126203e-004
3.924494e+003,5.609933e-004
3.926423e+003,3.200304e-004
3.928352e+003,4.705638e-004
3.930280e+003,5.440824e-004
3.932208e+003,5.688481e-004
3.934137e+003,3.843307e-004
3.936065e+003,2.089404e-004
3.937994e+003,2.270583e-004
3.939922e+003,3.399476e-004
3.941851e+003,5.604140e-004
3.943780e+003,3.885888e-004
3.945708e+003,2.911463e-004
3.947636e+003,4.086774e-004
3.949565e+003,3.012866e-004
3.951493e+003,1.018103e-004
3.953422e+003,1.569893e-004
3.955351e+003,2.918821e-004
3.957279e+003,3.676414e-004
3.959208e+003,3.046840e-004
3.961136e+003,2.431404e-004
3.963064e+003,2.431609e-004
3.964993e+003,3.059208e-004
3.966921e+003,2.885703e-004
3.968850e+003,2.698619e-004
3.970779e+003,3.726333e-004
3.972707e+003,4.681423e-004
3.974635e+003,5.076807e-004
3.976564e+003,4.769564e-004
3.978492e+003,4.020296e-004
3.980421e+003,4.141908e-004
3.982349e+003,3.973339e-004
3.984278e+003,2.765488e-004
3.986207e+003,2.592020e-004
3.988135e+003,3.872924e-004
3.990063e+003,4.199203e-004
3.991992e+003,3.379527e-004
3.993920e+003,3.130417e-004
3.995849e+003,3.106222e-004
3.997777e+003,2.152603e-004
3.999706e+003,1.593363e-004
4.001635e+003,0.000000e+000
