3.991992e+002,0.000000e+000
4.011277e+002,0.000000e+000
4.030562e+002,0.000000e+000
4.049846e+002,0.000000e+000
4.069131e+002,0.000000e+000
4.088416e+002,0.000000e+000
4.107701e+002,0.000000e+000
4.126986e+002,0.000000e+000
4.146271e+002,0.000000e+000
4.165556e+002,0.000000e+000
4.184841e+002,0.000000e+000
4.204126e+002,0.000000e+000
4.223411e+002,0.000000e+000
4.242697e+002,0.000000e+000
4.261982e+002,0.000000e+000
4.281266e+002,0.000000e+000
4.300551e+002,0.000000e+000
4.319836e+002,0.000000e+000
4.339121e+002,0.000000e+000
4.358406e+002,0.000000e+000
4.377691e+002,0.000000e+000
4.396976e+002,0.000000e+000
4.416261e+002,0.000000e+000
4.435546e+002,0.000000e+000
4.454831e+002,0.000000e+000
4.474116e+002,0.000000e+000
4.493401e+002,0.000000e+000
4.512686e+002,0.000000e+000
4.531971e+002,0.000000e+000
4.551256e+002,0.000000e+000
4.570541e+002,0.000000e+000
4.589826e+002,0.000000e+000
4.609111e+002,0.000000e+000
4.628396e+002,0.000000e+000
4.647681e+002,0.000000e+000
4.666966e+002,0.000000e+000
4.686251e+002,0.000000e+000
4.705536e+002,0.000000e+000
4.724821e+002,0.000000e+000
4.744106e+002,0.000000e+000
4.763391e+002,0.000000e+000
4.782676e+002,0.000000e+000
4.801961e+002,0.000000e+000
4.821246e+002,0.000000e+000
4.840531e+002,0.000000e+000
4.859816e+002,0.000000e+000
4.879101e+002,0.000000e+000
4.898386e+002,0.000000e+000
4.917671e+002,0.000000e+000
4.936956e+002,0.000000e+000
4.956241e+002,0.000000e+000
4.975526e+002,0.000000e+000
4.994811e+002,0.000000e+000
5.014096e+002,0.000000e+000
5.033381e+002,0.000000e+000
5.052666e+002,0.000000e+000
5.071951e+002,0.000000e+000
5.091236e+002,0.000000e+000
5.110521e+002,0.000000e+000
5.129806e+002,0.000000e+000
5.149091e+002,0.000000e+000
5.168376e+002,0.000000e+000
5.187661e+002,0.000000e+000
5.206946e+002,0.000000e+000
5.226230e+002,0.000000e+000
5.245516e+002,6.078628e-004
5.264800e+002,7.939478e-004
5.284086e+002,8.057964e-004
5.303370e+002,6.687064e-004
5.322656e+002,4.552840e-004
5.341940e+002,1.947402e-004
5.361226e+002,-9.534485e-005
5.380510e+002,-8.825492e-005
5.399796e+002,-7.648626e-005
5.419081e+002,-1.395335e-004
5.438365e+002,-2.839339e-004
5.457650e+002,-1.842594e-004
5.476935e+002,-1.096781e-004
5.496221e+002,1.195003e-005
5.515505e+002,-6.977934e-006
5.534790e+002,7.524854e-005
5.554075e+002,1.767883e-006
5.573361e+002,-1.583428e-004
5.592645e+002,-3.497240e-004
5.611931e+002,-3.794739e-004
5.631215e+002,-4.121822e-004
5.650500e+002,-3.285115e-004
5.669785e+002,-2.423434e-004
5.689070e+002,-1.022089e-004
5.708355e+002,-2.943473e-004
5.727640e+002,-3.934656e-004
5.746925e+002,-3.583159e-004
5.766210e+002,-2.960525e-004
5.785495e+002,-3.342775e-004
5.804780e+002,-3.954256e-004
5.824065e+002,-5.181232e-004
5.843350e+002,-4.718781e-004
5.862635e+002,-5.360888e-004
5.881920e+002,-4.691768e-004
5.901205e+002,-5.096104e-004
5.920490e+002,-5.512009e-004
5.939775e+002,-5.180093e-004
5.959060e+002,-3.998131e-004
5.978345e+002,-4.043756e-004
5.997630e+002,-3.797614e-004
6.016915e+002,-3.526954e-004
6.036200e+002,-3.239827e-004
6.055485e+002,-3.212651e-004
6.074770e+002,-2.704849e-004
6.094055e+002,-3.268318e-004
6.113340e+002,-1.955368e-004
6.132625e+002,-2.795865e-004
6.151910e+002,-4.267767e-004
6.171195e+002,-4.894275e-004
6.190480e+002,-3.540211e-004
6.209765e+002,-2.957229e-004
6.229050e+002,-1.853995e-004
6.248335e+002,-1.482191e-004
6.267620e+002,-6.903056e-005
6.286905e+002,-5.203509e-005
6.306190e+002,4.011788e-005
6.325475e+002,9.336043e-005
6.344760e+002,1.127275e-004
6.364045e+002,9.441050e-006
6.383330e+002,4.756823e-005
6.402615e+002,1.142907e-004
6.421899e+002,2.247801e-004
6.441185e+002,1.418684e-004
6.460470e+002,8.831569e-005
6.479755e+002,2.132542e-005
6.499039e+002,4.021637e-005
6.518325e+002,-9.613112e-006
6.537610e+002,-7.652212e-006
6.556895e+002,-1.018355e-005
6.576179e+002,-4.483853e-005
6.595464e+002,-8.605467e-005
6.614750e+002,1.906604e-005
6.634034e+002,-2.907868e-005
6.653319e+002,-1.156698e-004
6.672604e+002,-2.278364e-004
6.691890e+002,-2.032102e-004
6.711174e+002,-2.625992e-004
6.730460e+002,-2.464138e-004
6.749745e+002,-2.884597e-004
6.769030e+002,-2.307128e-004
6.788314e+002,-2.578998e-004
6.807599e+002,-2.255014e-004
6.826885e+002,-2.069925e-004
6.846169e+002,-2.516413e-004
6.865454e+002,-2.614532e-004
6.884739e+002,-1.142086e-004
6.904025e+002,-9.962893e-005
6.923309e+002,-1.534005e-005
6.942594e+002,4.966580e-005
6.961879e+002,6.477628e-005
6.981165e+002,-3.259629e-006
7.000449e+002,6.299443e-005
7.019734e+002,5.068118e-005
7.039019e+002,8.956832e-005
7.058304e+002,6.455998e-005
7.077589e+002,1.062895e-004
7.096874e+002,1.045119e-004
7.116159e+002,1.018329e-004
7.135444e+002,5.746912e-005
7.154729e+002,3.152015e-005
7.174014e+002,2.886937e-005
7.193299e+002,1.265453e-004
7.212584e+002,1.095908e-004
7.231869e+002,1.591851e-004
7.251154e+002,1.776812e-004
7.270439e+002,1.889826e-004
7.289724e+002,1.452575e-004
7.309009e+002,1.935437e-004
7.328294e+002,1.726095e-004
7.347579e+002,2.296411e-004
7.366864e+002,2.553111e-004
7.386149e+002,2.699425e-004
7.405434e+002,2.155032e-004
7.424719e+002,2.762971e-004
7.444004e+002,2.952800e-004
7.463289e+002,3.013459e-004
7.482574e+002,2.268190e-004
7.501859e+002,2.390996e-004
7.521144e+002,2.340942e-004
7.540428e+002,3.387714e-004
7.559714e+002,3.803524e-004
7.578999e+002,4.356699e-004
7.598284e+002,4.399233e-004
7.617568e+002,4.607020e-004
7.636854e+002,4.309500e-004
7.656139e+002,4.916294e-004
7.675424e+002,5.490712e-004
7.694709e+002,5.687845e-004
7.713994e+002,5.778556e-004
7.733279e+002,6.687231e-004
7.752563e+002,6.856052e-004
7.771849e+002,7.594780e-004
7.791134e+002,8.413391e-004
7.810419e+002,1.011536e-003
7.829703e+002,1.138713e-003
7.848989e+002,1.403116e-003
7.868274e+002,1.664476e-003
7.887559e+002,1.970772e-003
7.906843e+002,2.265515e-003
7.926129e+002,2.623598e-003
7.945414e+002,2.923497e-003
7.964698e+002,3.297259e-003
7.983983e+002,3.685994e-003
8.003268e+002,4.238751e-003
8.022554e+002,5.066880e-003
8.041838e+002,6.791905e-003
8.061123e+002,9.420641e-003
8.080408e+002,1.168133e-002
8.099694e+002,1.149890e-002
8.118978e+002,9.129507e-003
8.138263e+002,6.437792e-003
8.157548e+002,4.819817e-003
8.176833e+002,4.048048e-003
8.196118e+002,3.703260e-003
8.215403e+002,3.474231e-003
8.234689e+002,3.573328e-003
8.253973e+002,3.800823e-003
8.273258e+002,4.126133e-003
8.292543e+002,4.538434e-003
8.311829e+002,5.178664e-003
8.331113e+002,6.030689e-003
8.350398e+002,7.894434e-003
8.369683e+002,1.272892e-002
8.388969e+002,2.339673e-002
8.408253e+002,2.985867e-002
8.427538e+002,2.154214e-002
8.446823e+002,1.144905e-002
8.466108e+002,6.971244e-003
8.485393e+002,5.162171e-003
8.504678e+002,4.280483e-003
8.523963e+002,3.742164e-003
8.543248e+002,3.372459e-003
8.562533e+002,3.114708e-003
8.581818e+002,2.936223e-003
8.601103e+002,2.629946e-003
8.620388e+002,2.552543e-003
8.639673e+002,2.502280e-003
8.658958e+002,2.458334e-003
8.678243e+002,2.310734e-003
8.697528e+002,2.235279e-003
8.716813e+002,2.164640e-003
8.736098e+002,2.161425e-003
8.755383e+002,2.117963e-003
8.774668e+002,2.109325e-003
8.793953e+002,2.086128e-003
8.813238e+002,2.179972e-003
8.832523e+002,2.226905e-003
8.851808e+002,2.359963e-003
8.871093e+002,2.544846e-003
8.890378e+002,2.842462e-003
8.909663e+002,3.166554e-003
8.928948e+002,4.019108e-003
8.948232e+002,5.724066e-003
8.967518e+002,8.348090e-003
8.986803e+002,1.017709e-002
9.006088e+002,9.354828e-003
9.025372e+002,6.654747e-003
9.044658e+002,4.434688e-003
9.063943e+002,3.153561e-003
9.083228e+002,2.561207e-003
9.102512e+002,2.246800e-003
9.121797e+002,2.116148e-003
9.141083e+002,1.976588e-003
9.160367e+002,1.948059e-003
9.179653e+002,1.903754e-003
9.198937e+002,1.892170e-003
9.218223e+002,1.855681e-003
9.237507e+002,1.960719e-003
9.256793e+002,2.026935e-003
9.276077e+002,2.087992e-003
9.295363e+002,2.162352e-003
9.314647e+002,2.265864e-003
9.333932e+002,2.365947e-003
9.353217e+002,2.861275e-003
9.372502e+002,3.661302e-003
9.391787e+002,4.399779e-003
9.411072e+002,4.437632e-003
9.430358e+002,3.977868e-003
9.449642e+002,3.517444e-003
9.468928e+002,3.433181e-003
9.488212e+002,3.449688e-003
9.507498e+002,3.624282e-003
9.526782e+002,3.844857e-003
9.546068e+002,4.197743e-003
9.565352e+002,4.633956e-003
9.584637e+002,5.328360e-003
9.603922e+002,6.110629e-003
9.623207e+002,7.250613e-003
9.642492e+002,9.059670e-003
9.661777e+002,1.232059e-002
9.681062e+002,1.868968e-002
9.700347e+002,2.922991e-002
9.719632e+002,3.742447e-002
9.738917e+002,3.483900e-002
9.758202e+002,2.568225e-002
9.777487e+002,1.746961e-002
9.796772e+002,1.192847e-002
9.816057e+002,8.867007e-003
9.835342e+002,7.512615e-003
9.854627e+002,7.276026e-003
9.873912e+002,7.764137e-003
9.893197e+002,9.328444e-003
9.912482e+002,1.232976e-002
9.931767e+002,1.803050e-002
9.951052e+002,2.676293e-002
9.970337e+002,3.349816e-002
9.989622e+002,3.060713e-002
1.000891e+003,2.128566e-002
1.002819e+003,1.375238e-002
1.004748e+003,9.762743e-003
1.006676e+003,7.628934e-003
1.008605e+003,6.504846e-003
1.010533e+003,5.877888e-003
1.012462e+003,5.571565e-003
1.014390e+003,5.330230e-003
1.016319e+003,5.202750e-003
1.018247e+003,5.012660e-003
1.020176e+003,4.888562e-003
1.022104e+003,4.759515e-003
1.024033e+003,4.656114e-003
1.025961e+003,4.540793e-003
1.027890e+003,4.527629e-003
1.029818e+003,4.500141e-003
1.031747e+003,4.644894e-003
1.033675e+003,4.835362e-003
1.035604e+003,5.033444e-003
1.037532e+003,5.093174e-003
1.039461e+003,5.342755e-003
1.041389e+003,5.918677e-003
1.043318e+003,6.590410e-003
1.045246e+003,6.566750e-003
1.047175e+003,5.938713e-003
1.049103e+003,5.181637e-003
1.051032e+003,4.698392e-003
1.052960e+003,4.321157e-003
1.054889e+003,4.129497e-003
1.056817e+003,3.995205e-003
1.058746e+003,3.922396e-003
1.060674e+003,3.831991e-003
1.062603e+003,3.828294e-003
1.064531e+003,3.775006e-003
1.066460e+003,3.830887e-003
1.068388e+003,3.843152e-003
1.070317e+003,3.885779e-003
1.072245e+003,3.852600e-003
1.074174e+003,3.947242e-003
1.076102e+003,4.047628e-003
1.078031e+003,4.157252e-003
1.079959e+003,4.270697e-003
1.081888e+003,4.466955e-003
1.083816e+003,4.529101e-003
1.085745e+003,4.585742e-003
1.087673e+003,4.626243e-003
1.089602e+003,4.799003e-003
1.091530e+003,5.025491e-003
1.093459e+003,5.352354e-003
1.095387e+003,5.763538e-003
1.097316e+003,6.520030e-003
1.099244e+003,7.511629e-003
1.101173e+003,8.438542e-003
1.103101e+003,8.541595e-003
1.105030e+003,7.785127e-003
1.106958e+003,6.690031e-003
1.108887e+003,5.910718e-003
1.110815e+003,5.403015e-003
1.112744e+003,5.187042e-003
1.114672e+003,5.007776e-003
1.116601e+003,4.936594e-003
1.118529e+003,4.833688e-003
1.120458e+003,4.807102e-003
1.122386e+003,4.767580e-003
1.124315e+003,4.828584e-003
1.126243e+003,4.841722e-003
1.128172e+003,4.940164e-003
1.130100e+003,5.062714e-003
1.132029e+003,5.342766e-003
1.133957e+003,5.670082e-003
1.135885e+003,6.159443e-003
1.137814e+003,6.741419e-003
1.139743e+003,7.700758e-003
1.141671e+003,8.867347e-003
1.143600e+003,1.034993e-002
1.145528e+003,1.214568e-002
1.147457e+003,1.449976e-002
1.149385e+003,1.717625e-002
1.151314e+003,1.958358e-002
1.153242e+003,2.092759e-002
1.155171e+003,2.167459e-002
1.157099e+003,2.250186e-002
1.159028e+003,2.400222e-002
1.160956e+003,2.639640e-002
1.162885e+003,3.025792e-002
1.164813e+003,3.501020e-002
1.166742e+003,3.800066e-002
1.168670e+003,3.507190e-002
1.170599e+003,2.702015e-002
1.172527e+003,1.888924e-002
1.174456e+003,1.340301e-002
1.176384e+003,1.011523e-002
1.178313e+003,8.262651e-003
1.180241e+003,7.116487e-003
1.182170e+003,6.530872e-003
1.184098e+003,6.193806e-003
1.186027e+003,6.109086e-003
1.187955e+003,6.144229e-003
1.189884e+003,6.351218e-003
1.191812e+003,6.494155e-003
1.193740e+003,6.748086e-003
1.195669e+003,6.984556e-003
1.197598e+003,7.291726e-003
1.199526e+003,7.653007e-003
1.201455e+003,8.162679e-003
1.203383e+003,8.640602e-003
1.205312e+003,9.202058e-003
1.207240e+003,9.660947e-003
1.209168e+003,1.009875e-002
1.211097e+003,1.049696e-002
1.213026e+003,1.102191e-002
1.214954e+003,1.152176e-002
1.216883e+003,1.206353e-002
1.218811e+003,1.234987e-002
1.220740e+003,1.229101e-002
1.222668e+003,1.185606e-002
1.224596e+003,1.149612e-002
1.226525e+003,1.128877e-002
1.228453e+003,1.128233e-002
1.230382e+003,1.129950e-002
1.232311e+003,1.141516e-002
1.234239e+003,1.144669e-002
1.236167e+003,1.155234e-002
1.238096e+003,1.160592e-002
1.240025e+003,1.172045e-002
1.241953e+003,1.175329e-002
1.243882e+003,1.186183e-002
1.245810e+003,1.186226e-002
1.247739e+003,1.199029e-002
1.249667e+003,1.230686e-002
1.251595e+003,1.332756e-002
1.253524e+003,1.488451e-002
1.255453e+003,1.538145e-002
1.257381e+003,1.352886e-002
1.259310e+003,1.116283e-002
1.261238e+003,9.376654e-003
1.263167e+003,8.271177e-003
1.265095e+003,7.419296e-003
1.267023e+003,6.861333e-003
1.268952e+003,6.424011e-003
1.270880e+003,6.222257e-003
1.272809e+003,6.043220e-003
1.274738e+003,6.027433e-003
1.276666e+003,6.008408e-003
1.278594e+003,6.121373e-003
1.280523e+003,6.217615e-003
1.282451e+003,6.424236e-003
1.284380e+003,6.586880e-003
1.286308e+003,6.964311e-003
1.288237e+003,7.376281e-003
1.290166e+003,8.045571e-003
1.292094e+003,8.839995e-003
1.294022e+003,9.721046e-003
1.295951e+003,1.016289e-002
1.297879e+003,1.024723e-002
1.299808e+003,1.048158e-002
1.301736e+003,1.204404e-002
1.303665e+003,1.386441e-002
1.305594e+003,1.304223e-002
1.307522e+003,9.834174e-003
1.309450e+003,7.703335e-003
1.311379e+003,6.871629e-003
1.313307e+003,6.778541e-003
1.315236e+003,6.821275e-003
1.317164e+003,7.152528e-003
1.319093e+003,7.396264e-003
1.321021e+003,7.945402e-003
1.322950e+003,8.682378e-003
1.324878e+003,9.863609e-003
1.326807e+003,1.069601e-002
1.328735e+003,1.122914e-002
1.330664e+003,1.084726e-002
1.332592e+003,1.014605e-002
1.334521e+003,9.467565e-003
1.336449e+003,9.426341e-003
1.338378e+003,9.532624e-003
1.340306e+003,1.003581e-002
1.342235e+003,1.043602e-002
1.344163e+003,1.149670e-002
1.346092e+003,1.272837e-002
1.348021e+003,1.471348e-002
1.349949e+003,1.721732e-002
1.351877e+003,2.124492e-002
1.353806e+003,2.706739e-002
1.355734e+003,3.551463e-002
1.357663e+003,4.174648e-002
1.359591e+003,4.227032e-002
1.361520e+003,3.726853e-002
1.363448e+003,3.298777e-002
1.365377e+003,3.251872e-002
1.367305e+003,3.877308e-002
1.369234e+003,5.622800e-002
1.371162e+003,8.909398e-002
1.373091e+003,1.391529e-001
1.375019e+003,1.863866e-001
1.376948e+003,1.643537e-001
1.378876e+003,1.087758e-001
1.380805e+003,6.559248e-002
1.382733e+003,3.947275e-002
1.384662e+003,2.465867e-002
1.386590e+003,1.653234e-002
1.388519e+003,1.220186e-002
1.390447e+003,1.018091e-002
1.392376e+003,9.477813e-003
1.394304e+003,8.797465e-003
1.396233e+003,8.463392e-003
1.398161e+003,8.056827e-003
1.400090e+003,7.948306e-003
1.402018e+003,7.723778e-003
1.403947e+003,7.858498e-003
1.405875e+003,7.790389e-003
1.407804e+003,7.951492e-003
1.409732e+003,8.087035e-003
1.411661e+003,8.348958e-003
1.413589e+003,8.525075e-003
1.415518e+003,8.902125e-003
1.417446e+003,9.252357e-003
1.419375e+003,9.738039e-003
1.421303e+003,1.016983e-002
1.423232e+003,1.095208e-002
1.425160e+003,1.207720e-002
1.427089e+003,1.348797e-002
1.429017e+003,1.628645e-002
1.430946e+003,2.224158e-002
1.432874e+003,3.095102e-002
1.434803e+003,3.818143e-002
1.436731e+003,3.940611e-002
1.438660e+003,3.877620e-002
1.440588e+003,4.211732e-002
1.442517e+003,5.030886e-002
1.444445e+003,6.394877e-002
1.446374e+003,8.104640e-002
1.448302e+003,9.969512e-002
1.450231e+003,1.080095e-001
1.452159e+003,1.103470e-001
1.454088e+003,1.101463e-001
1.456016e+003,1.098882e-001
1.457945e+003,1.049563e-001
1.459873e+003,1.006228e-001
1.461802e+003,9.479530e-002
1.463730e+003,8.596238e-002
1.465659e+003,6.854290e-002
1.467587e+003,5.447113e-002
1.469516e+003,4.309492e-002
1.471444e+003,3.343191e-002
1.473373e+003,2.199006e-002
1.475301e+003,1.682771e-002
1.477230e+003,1.296138e-002
1.479158e+003,1.083418e-002
1.481087e+003,9.177836e-003
1.483015e+003,7.880736e-003
1.484944e+003,6.990844e-003
1.486872e+003,6.449483e-003
1.488801e+003,5.866172e-003
1.490729e+003,5.333394e-003
1.492658e+003,4.821348e-003
1.494586e+003,4.699669e-003
1.496515e+003,4.504269e-003
1.498443e+003,4.277230e-003
1.500372e+003,4.000775e-003
1.502300e+003,3.900325e-003
1.504229e+003,3.882962e-003
1.506157e+003,4.164985e-003
1.508086e+003,3.897760e-003
1.510014e+003,3.641040e-003
1.511943e+003,3.402416e-003
1.513871e+003,3.385114e-003
1.515800e+003,3.566757e-003
1.517728e+003,3.561030e-003
1.519657e+003,3.478860e-003
1.521585e+003,3.383861e-003
1.523514e+003,3.237038e-003
1.525442e+003,3.251095e-003
1.527371e+003,3.182311e-003
1.529299e+003,3.085179e-003
1.531228e+003,3.111562e-003
1.533156e+003,3.358332e-003
1.535085e+003,3.314166e-003
1.537013e+003,3.374762e-003
1.538942e+003,3.620135e-003
1.540870e+003,3.595594e-003
1.542799e+003,3.484243e-003
1.544727e+003,3.422578e-003
1.546656e+003,3.138987e-003
1.548584e+003,3.230060e-003
1.550513e+003,3.330141e-003
1.552441e+003,3.347642e-003
1.554370e+003,3.380654e-003
1.556298e+003,3.330651e-003
1.558227e+003,3.160657e-003
1.560155e+003,2.758342e-003
1.562084e+003,2.783241e-003
1.564012e+003,2.827164e-003
1.565941e+003,2.788444e-003
1.567869e+003,2.856461e-003
1.569798e+003,2.820011e-003
1.571726e+003,2.636108e-003
1.573655e+003,2.700529e-003
1.575583e+003,2.852557e-003
1.577512e+003,2.656745e-003
1.579440e+003,2.487060e-003
1.581369e+003,2.466058e-003
1.583297e+003,2.491459e-003
1.585226e+003,2.520887e-003
1.587154e+003,2.549730e-003
1.589083e+003,2.601258e-003
1.591011e+003,2.675236e-003
1.592940e+003,2.714467e-003
1.594868e+003,2.753349e-003
1.596797e+003,2.714650e-003
1.598725e+003,2.705203e-003
1.600654e+003,2.758106e-003
1.602582e+003,2.826162e-003
1.604511e+003,2.877425e-003
1.606439e+003,2.931920e-003
1.608368e+003,3.002279e-003
1.610296e+003,3.092770e-003
1.612225e+003,3.125349e-003
1.614153e+003,3.178774e-003
1.616082e+003,3.302233e-003
1.618010e+003,3.195827e-003
1.619939e+003,3.209054e-003
1.621867e+003,3.431297e-003
1.623796e+003,3.538066e-003
1.625724e+003,3.502111e-003
1.627653e+003,3.629121e-003
1.629581e+003,3.662862e-003
1.631510e+003,3.702960e-003
1.633438e+003,3.876465e-003
1.635367e+003,4.168899e-003
1.637295e+003,4.093254e-003
1.639224e+003,3.992050e-003
1.641152e+003,3.993731e-003
1.643081e+003,4.163267e-003
1.645009e+003,4.477382e-003
1.646938e+003,4.718956e-003
1.648866e+003,4.401824e-003
1.650795e+003,4.306138e-003
1.652723e+003,4.313455e-003
1.654652e+003,4.052741e-003
1.656580e+003,3.895411e-003
1.658509e+003,3.900149e-003
1.660437e+003,4.028838e-003
1.662366e+003,4.094031e-003
1.664294e+003,3.916486e-003
1.666223e+003,3.876506e-003
1.668151e+003,4.012230e-003
1.670080e+003,3.913920e-003
1.672008e+003,3.614414e-003
1.673937e+003,3.652463e-003
1.675865e+003,3.561319e-003
1.677794e+003,3.501249e-003
1.679722e+003,3.681416e-003
1.681651e+003,3.783631e-003
1.683579e+003,3.966375e-003
1.685508e+003,3.388728e-003
1.687436e+003,3.248249e-003
1.689365e+003,3.208223e-003
1.691293e+003,3.069884e-003
1.693222e+003,3.123994e-003
1.695150e+003,3.380801e-003
1.697079e+003,3.338276e-003
1.699007e+003,3.109187e-003
1.700936e+003,2.585317e-003
1.702864e+003,2.612021e-003
1.704793e+003,2.629632e-003
1.706721e+003,2.387083e-003
1.708650e+003,2.322155e-003
1.710578e+003,2.349183e-003
1.712507e+003,2.469235e-003
1.714435e+003,2.700414e-003
1.716364e+003,2.771632e-003
1.718292e+003,2.431978e-003
1.720221e+003,2.051219e-003
1.722149e+003,2.052716e-003
1.724078e+003,2.032273e-003
1.726006e+003,1.998710e-003
1.727935e+003,2.078431e-003
1.729863e+003,2.246824e-003
1.731792e+003,2.306058e-003
1.733720e+003,2.306139e-003
1.735649e+003,1.899065e-003
1.737577e+003,1.880461e-003
1.739506e+003,1.851734e-003
1.741434e+003,1.798396e-003
1.743363e+003,1.803968e-003
1.745291e+003,1.783433e-003
1.747220e+003,1.883520e-003
1.749148e+003,1.817690e-003
1.751077e+003,1.530377e-003
1.753005e+003,1.302320e-003
1.754934e+003,1.296384e-003
1.756862e+003,1.337897e-003
1.758791e+003,1.269499e-003
1.760719e+003,1.325944e-003
1.762648e+003,1.074370e-003
1.764576e+003,9.453436e-004
1.766505e+003,1.083350e-003
1.768433e+003,1.141138e-003
1.770362e+003,1.183890e-003
1.772290e+003,1.127117e-003
1.774219e+003,7.955781e-004
1.776147e+003,6.650854e-004
1.778076e+003,7.173582e-004
1.780004e+003,9.631435e-004
1.781933e+003,8.404474e-004
1.783861e+003,8.297460e-004
1.785790e+003,8.094613e-004
1.787718e+003,7.823724e-004
1.789646e+003,9.844210e-004
1.791575e+003,1.186410e-003
1.793504e+003,8.154716e-004
1.795432e+003,7.368107e-004
1.797361e+003,6.499919e-004
1.799289e+003,6.374684e-004
1.801218e+003,6.178087e-004
1.803146e+003,4.953267e-004
1.805074e+003,3.420860e-004
1.807003e+003,2.984875e-004
1.808932e+003,3.548353e-004
1.810860e+003,3.703507e-004
1.812789e+003,4.881527e-006
1.814717e+003,-4.204274e-004
1.816646e+003,-5.901679e-004
1.818574e+003,-1.551560e-004
1.820502e+003,1.499993e-004
1.822431e+003,2.836487e-004
1.824360e+003,4.018117e-004
1.826288e+003,4.041982e-004
1.828217e+003,3.996207e-004
1.830145e+003,3.238716e-004
1.832073e+003,6.712181e-005
1.834002e+003,6.827293e-005
1.835931e+003,7.309439e-005
1.837859e+003,7.644622e-005
1.839788e+003,2.647750e-006
1.841716e+003,8.357689e-005
1.843645e+003,4.919199e-005
1.845573e+003,-8.539297e-005
1.847501e+003,-1.578392e-004
1.849430e+003,-1.836480e-004
1.851359e+003,-3.372962e-004
1.853287e+003,-3.979267e-004
1.855216e+003,-4.788041e-004
1.857144e+003,-4.374087e-004
1.859073e+003,-4.912745e-004
1.861001e+003,-5.391096e-004
1.862929e+003,-5.906536e-004
1.864858e+003,-4.674755e-004
1.866787e+003,-2.467139e-004
1.868715e+003,-1.016133e-004
1.870644e+003,-3.576321e-004
1.872572e+003,-5.440735e-004
1.874500e+003,-5.483269e-004
1.876429e+003,-3.960701e-004
1.878357e+003,-4.005712e-004
1.880286e+003,-3.840681e-004
1.882215e+003,-4.629442e-004
1.884143e+003,-5.698297e-004
1.886072e+003,-6.688107e-004
1.888000e+003,-3.691972e-004
1.889928e+003,-4.591946e-004
1.891857e+003,-5.189483e-004
1.893785e+003,-3.512097e-004
1.895714e+003,-4.972159e-004
1.897643e+003,-7.323152e-004
1.899571e+003,-9.778412e-004
1.901500e+003,-9.662607e-004
1.903428e+003,-9.546899e-004
1.905356e+003,-9.431285e-004
1.907285e+003,-9.315787e-004
1.909213e+003,-9.200377e-004
1.911142e+003,-9.085056e-004
1.913071e+003,-8.969852e-004
1.914999e+003,-8.854745e-004
1.916927e+003,-8.739731e-004
1.918856e+003,-8.624815e-004
1.920784e+003,-8.509997e-004
1.922713e+003,-8.395291e-004
1.924641e+003,-8.280682e-004
1.926570e+003,-8.166153e-004
1.928499e+003,-8.051749e-004
1.930427e+003,-7.937434e-004
1.932355e+003,-7.823221e-004
1.934284e+003,-7.709097e-004
1.936212e+003,-7.595089e-004
1.938141e+003,-7.481170e-004
1.940070e+003,-7.367339e-004
1.941998e+003,-7.253629e-004
1.943927e+003,-7.140008e-004
1.945855e+003,-7.026498e-004
1.947783e+003,-6.913068e-004
1.949712e+003,-6.799749e-004
1.951640e+003,-6.686533e-004
1.953569e+003,-6.573414e-004
1.955498e+003,-6.460384e-004
1.957426e+003,-6.347466e-004
1.959354e+003,-6.234646e-004
1.961283e+003,-6.121928e-004
1.963211e+003,-6.009298e-004
1.965140e+003,-5.896771e-004
1.967068e+003,-5.784351e-004
1.968997e+003,-5.672034e-004
1.970926e+003,-5.559796e-004
1.972854e+003,-5.447669e-004
1.974782e+003,-5.335654e-004
1.976711e+003,-5.223723e-004
1.978639e+003,-5.111885e-004
1.980568e+003,-5.000164e-004
1.982496e+003,-4.888535e-004
1.984425e+003,-4.777005e-004
1.986354e+003,-4.665572e-004
1.988282e+003,-4.554242e-004
1.990210e+003,-4.443019e-004
1.992139e+003,-4.331875e-004
1.994067e+003,-4.220852e-004
1.995996e+003,-4.109917e-004
1.997924e+003,-3.999085e-004
1.999853e+003,-3.888346e-004
2.001781e+003,-3.777714e-004
2.003710e+003,-3.667185e-004
2.005638e+003,-3.556754e-004
2.007567e+003,-3.446415e-004
2.009495e+003,-3.336174e-004
2.011424e+003,-3.226046e-004
2.013352e+003,-3.116005e-004
2.015281e+003,-3.006062e-004
2.017209e+003,-2.896227e-004
2.019138e+003,-2.786494e-004
2.021066e+003,-2.676845e-004
2.022995e+003,-2.567312e-004
2.024923e+003,-2.457872e-004
2.026852e+003,-2.348539e-004
2.028781e+003,-2.239291e-004
2.030709e+003,-2.130149e-004
2.032637e+003,-2.021110e-004
2.034566e+003,-1.912173e-004
2.036494e+003,-1.803320e-004
2.038423e+003,-1.694579e-004
2.040351e+003,-1.585940e-004
2.042280e+003,-1.477376e-004
2.044208e+003,-1.368946e-004
2.046137e+003,-1.260606e-004
2.048065e+003,-1.152358e-004
2.049994e+003,-1.044213e-004
2.051922e+003,-9.361701e-005
2.053851e+003,-8.282019e-005
2.055779e+003,-7.203547e-005
2.057708e+003,-6.126147e-005
2.059636e+003,-5.049678e-005
2.061565e+003,-3.974233e-005
2.063493e+003,-2.899766e-005
2.065422e+003,-1.826277e-005
2.067350e+003,-7.538125e-006
2.069279e+003,3.179535e-006
2.071207e+003,1.388416e-005
2.073136e+003,2.457947e-005
2.075064e+003,3.526453e-005
2.076993e+003,4.593935e-005
2.078921e+003,5.660439e-005
2.080850e+003,6.725919e-005
2.082778e+003,7.790420e-005
2.084707e+003,8.854177e-005
2.086635e+003,9.916723e-005
2.088564e+003,1.097829e-004
2.090492e+003,1.203874e-004
2.092421e+003,1.309835e-004
2.094349e+003,1.415685e-004
2.096278e+003,1.521441e-004
2.098206e+003,1.627128e-004
2.100135e+003,1.732679e-004
2.102063e+003,1.838137e-004
2.103992e+003,1.943498e-004
2.105920e+003,2.048747e-004
2.107849e+003,2.153916e-004
2.109777e+003,2.258969e-004
2.111706e+003,2.363930e-004
2.113634e+003,2.468810e-004
2.115563e+003,2.573580e-004
2.117491e+003,2.678237e-004
2.119420e+003,2.782792e-004
2.121348e+003,2.887254e-004
2.123277e+003,2.991613e-004
2.125205e+003,3.095889e-004
2.127134e+003,3.200052e-004
2.129062e+003,3.304132e-004
2.130991e+003,3.408100e-004
2.132919e+003,3.511962e-004
2.134848e+003,3.615730e-004
2.136776e+003,3.719395e-004
2.138705e+003,3.822958e-004
2.140633e+003,3.926428e-004
2.142562e+003,4.029819e-004
2.144490e+003,4.133084e-004
2.146419e+003,4.236251e-004
2.148347e+003,4.339325e-004
2.150276e+003,4.442292e-004
2.152204e+003,4.545171e-004
2.154133e+003,4.647938e-004
2.156061e+003,4.750625e-004
2.157990e+003,4.853201e-004
2.159918e+003,4.955670e-004
2.161847e+003,5.058041e-004
2.163775e+003,5.160319e-004
2.165704e+003,5.262489e-004
2.167632e+003,5.364558e-004
2.169561e+003,5.466538e-004
2.171489e+003,5.568415e-004
2.173418e+003,5.670204e-004
2.175346e+003,5.771890e-004
2.177275e+003,5.873470e-004
2.179203e+003,5.974942e-004
2.181132e+003,6.076321e-004
2.183060e+003,6.177593e-004
2.184989e+003,6.278781e-004
2.186917e+003,6.379876e-004
2.188846e+003,6.480855e-004
2.190774e+003,6.581740e-004
2.192703e+003,6.682519e-004
2.194631e+003,6.783195e-004
2.196560e+003,6.883778e-004
2.198488e+003,6.984258e-004
2.200417e+003,7.084673e-004
2.202345e+003,7.184958e-004
2.204274e+003,7.285140e-004
2.206202e+003,7.385220e-004
2.208131e+003,7.485207e-004
2.210059e+003,7.585092e-004
2.211988e+003,7.684873e-004
2.213916e+003,7.784553e-004
2.215845e+003,7.884139e-004
2.217773e+003,7.983651e-004
2.219702e+003,8.083042e-004
2.221630e+003,8.182330e-004
2.223559e+003,8.281516e-004
2.225487e+003,8.380609e-004
2.227416e+003,8.479599e-004
2.229344e+003,8.578496e-004
2.231273e+003,8.677309e-004
2.233201e+003,8.775992e-004
2.235130e+003,8.874591e-004
2.237058e+003,8.973079e-004
2.238987e+003,9.071473e-004
2.240915e+003,9.169765e-004
2.242844e+003,9.267945e-004
2.244772e+003,9.366069e-004
2.246701e+003,9.464063e-004
2.248629e+003,9.561963e-004
2.250558e+003,9.659762e-004
2.252486e+003,9.757457e-004
2.254415e+003,9.855060e-004
2.256343e+003,9.952560e-004
2.258272e+003,1.004995e-003
2.260200e+003,1.014724e-003
2.262129e+003,1.024447e-003
2.264057e+003,1.034156e-003
2.265986e+003,1.043856e-003
2.267914e+003,1.053547e-003
2.269843e+003,1.063227e-003
2.271771e+003,1.072897e-003
2.273700e+003,1.082557e-003
2.275628e+003,1.092209e-003
2.277557e+003,1.101850e-003
2.279485e+003,1.111480e-003
2.281414e+003,1.121100e-003
2.283342e+003,1.130710e-003
2.285271e+003,1.140310e-003
2.287199e+003,1.149902e-003
2.289128e+003,1.159484e-003
2.291056e+003,1.169056e-003
2.292985e+003,1.178616e-003
2.294913e+003,1.188166e-003
2.296842e+003,1.197706e-003
2.298770e+003,1.207238e-003
2.300699e+003,1.216759e-003
2.302627e+003,1.226272e-003
2.304556e+003,1.235773e-003
2.306484e+003,1.245265e-003
2.308413e+003,1.254746e-003
2.310341e+003,1.264217e-003
2.312270e+003,1.273678e-003
2.314198e+003,1.283128e-003
2.316127e+003,1.292569e-003
2.318055e+003,1.302001e-003
2.319984e+003,1.311425e-003
2.321912e+003,1.320836e-003
2.323841e+003,1.330238e-003
2.325769e+003,1.339630e-003
2.327698e+003,1.349011e-003
2.329626e+003,1.358382e-003
2.331555e+003,1.367744e-003
2.333483e+003,1.377097e-003
2.335412e+003,1.386440e-003
2.337340e+003,1.395772e-003
2.339269e+003,1.405095e-003
2.341197e+003,1.414406e-003
2.343126e+003,1.423707e-003
2.345054e+003,1.432999e-003
2.346983e+003,1.442283e-003
2.348911e+003,1.451556e-003
2.350840e+003,1.460819e-003
2.352768e+003,1.470071e-003
2.354697e+003,1.479314e-003
2.356625e+003,1.488545e-003
2.358554e+003,1.497768e-003
2.360482e+003,1.506980e-003
2.362411e+003,1.516183e-003
2.364339e+003,1.525378e-003
2.366268e+003,1.534560e-003
2.368196e+003,1.543732e-003
2.370125e+003,1.552895e-003
2.372053e+003,1.562049e-003
2.373982e+003,1.571191e-003
2.375910e+003,1.580324e-003
2.377839e+003,1.589448e-003
2.379767e+003,1.598561e-003
2.381696e+003,1.607664e-003
2.383624e+003,1.616757e-003
2.385553e+003,1.625841e-003
2.387481e+003,1.634914e-003
2.389410e+003,1.643977e-003
2.391338e+003,1.653033e-003
2.393267e+003,1.662076e-003
2.395195e+003,1.671108e-003
2.397124e+003,1.680133e-003
2.399052e+003,1.689146e-003
2.400981e+003,1.540558e-003
2.402909e+003,1.385960e-003
2.404838e+003,1.378896e-003
2.406766e+003,1.475842e-003
2.408695e+003,1.766542e-003
2.410623e+003,1.826785e-003
2.412552e+003,1.717087e-003
2.414480e+003,1.620305e-003
2.416409e+003,1.778471e-003
2.418337e+003,1.742661e-003
2.420266e+003,1.914955e-003
2.422194e+003,2.103031e-003
2.424123e+003,2.218062e-003
2.426051e+003,2.232562e-003
2.427979e+003,2.361297e-003
2.429908e+003,2.398457e-003
2.431837e+003,2.190014e-003
2.433765e+003,2.119854e-003
2.435694e+003,2.214205e-003
2.437622e+003,2.190450e-003
2.439551e+003,2.131781e-003
2.441479e+003,2.119761e-003
2.443407e+003,2.138471e-003
2.445336e+003,2.225401e-003
2.447265e+003,2.409243e-003
2.449193e+003,2.586019e-003
2.451122e+003,2.645610e-003
2.453050e+003,2.434426e-003
2.454979e+003,2.377639e-003
2.456907e+003,2.406975e-003
2.458836e+003,2.295974e-003
2.460764e+003,2.121696e-003
2.462693e+003,2.062000e-003
2.464621e+003,1.975805e-003
2.466550e+003,1.959239e-003
2.468478e+003,1.910746e-003
2.470406e+003,1.866141e-003
2.472335e+003,1.857127e-003
2.474264e+003,1.867964e-003
2.476192e+003,1.769087e-003
2.478121e+003,1.825559e-003
2.480049e+003,1.911583e-003
2.481978e+003,2.021752e-003
2.483906e+003,2.099003e-003
2.485835e+003,2.130182e-003
2.487763e+003,2.218540e-003
2.489692e+003,2.202587e-003
2.491620e+003,2.100683e-003
2.493549e+003,2.076252e-003
2.495477e+003,1.998399e-003
2.497406e+003,2.160112e-003
2.499334e+003,2.260665e-003
2.501263e+003,2.136180e-003
2.503191e+003,1.887416e-003
2.505120e+003,1.842463e-003
2.507048e+003,1.970888e-003
2.508977e+003,2.143869e-003
2.510905e+003,2.230040e-003
2.512833e+003,2.275451e-003
2.514762e+003,2.265013e-003
2.516691e+003,2.227588e-003
2.518619e+003,2.285560e-003
2.520548e+003,2.410804e-003
2.522476e+003,2.511496e-003
2.524405e+003,2.717277e-003
2.526333e+003,2.821507e-003
2.528261e+003,2.728375e-003
2.530190e+003,2.902263e-003
2.532119e+003,3.144318e-003
2.534047e+003,3.169457e-003
2.535976e+003,3.181963e-003
2.537904e+003,3.243133e-003
2.539833e+003,3.316734e-003
2.541761e+003,3.358324e-003
2.543689e+003,3.456843e-003
2.545618e+003,3.632233e-003
2.547547e+003,3.715999e-003
2.549475e+003,3.831180e-003
2.551404e+003,3.942857e-003
2.553332e+003,4.021307e-003
2.555260e+003,4.075793e-003
2.557189e+003,4.193570e-003
2.559117e+003,4.382700e-003
2.561046e+003,4.420559e-003
2.562975e+003,4.391570e-003
2.564903e+003,4.392300e-003
2.566832e+003,4.632964e-003
2.568760e+003,4.916109e-003
2.570688e+003,5.177995e-003
2.572617e+003,5.387709e-003
2.574546e+003,5.725493e-003
2.576474e+003,6.068544e-003
2.578403e+003,6.374335e-003
2.580331e+003,6.673977e-003
2.582260e+003,6.798226e-003
2.584188e+003,6.522160e-003
2.586116e+003,6.126944e-003
2.588045e+003,5.915401e-003
2.589974e+003,5.924814e-003
2.591902e+003,5.809722e-003
2.593831e+003,5.724519e-003
2.595759e+003,5.764208e-003
2.597688e+003,5.875765e-003
2.599616e+003,5.900502e-003
2.601544e+003,6.020884e-003
2.603473e+003,6.185714e-003
2.605402e+003,6.496338e-003
2.607330e+003,6.788825e-003
2.609259e+003,7.070133e-003
2.611187e+003,7.318278e-003
2.613115e+003,7.509689e-003
2.615044e+003,7.726568e-003
2.616972e+003,7.863916e-003
2.618901e+003,7.855872e-003
2.620830e+003,7.973836e-003
2.622758e+003,8.030359e-003
2.624687e+003,7.866823e-003
2.626615e+003,7.798159e-003
2.628543e+003,7.848970e-003
2.630472e+003,7.865055e-003
2.632400e+003,7.869814e-003
2.634329e+003,7.924389e-003
2.636258e+003,8.059778e-003
2.638186e+003,8.306021e-003
2.640115e+003,8.523951e-003
2.642043e+003,8.660462e-003
2.643971e+003,8.813647e-003
2.645900e+003,8.972500e-003
2.647828e+003,9.194304e-003
2.649757e+003,9.359136e-003
2.651686e+003,9.531276e-003
2.653614e+003,9.741871e-003
2.655542e+003,9.951542e-003
2.657471e+003,1.009935e-002
2.659399e+003,1.010463e-002
2.661328e+003,9.864870e-003
2.663256e+003,9.512787e-003
2.665185e+003,9.222873e-003
2.667114e+003,9.034385e-003
2.669042e+003,8.986783e-003
2.670970e+003,9.080257e-003
2.672899e+003,9.204482e-003
2.674827e+003,9.306981e-003
2.676756e+003,9.395917e-003
2.678685e+003,9.378560e-003
2.680613e+003,9.268585e-003
2.682542e+003,9.248639e-003
2.684470e+003,9.321178e-003
2.686398e+003,9.347285e-003
2.688327e+003,9.337367e-003
2.690255e+003,9.397767e-003
2.692184e+003,9.412156e-003
2.694113e+003,9.399408e-003
2.696041e+003,9.464031e-003
2.697969e+003,9.607835e-003
2.699898e+003,9.801258e-003
2.701826e+003,1.006903e-002
2.703755e+003,1.037753e-002
2.705683e+003,1.071666e-002
2.707612e+003,1.104191e-002
2.709541e+003,1.147745e-002
2.711469e+003,1.199743e-002
2.713397e+003,1.261636e-002
2.715326e+003,1.339867e-002
2.717254e+003,1.440480e-002
2.719183e+003,1.542056e-002
2.721111e+003,1.605462e-002
2.723040e+003,1.606554e-002
2.724969e+003,1.548732e-002
2.726897e+003,1.462595e-002
2.728825e+003,1.382663e-002
2.730754e+003,1.320356e-002
2.732682e+003,1.278194e-002
2.734611e+003,1.243144e-002
2.736539e+003,1.206067e-002
2.738468e+003,1.170640e-002
2.740396e+003,1.134877e-002
2.742325e+003,1.102569e-002
2.744253e+003,1.082304e-002
2.746182e+003,1.074424e-002
2.748110e+003,1.070843e-002
2.750039e+003,1.065679e-002
2.751967e+003,1.065518e-002
2.753896e+003,1.075053e-002
2.755824e+003,1.097523e-002
2.757753e+003,1.121963e-002
2.759681e+003,1.149710e-002
2.761610e+003,1.179066e-002
2.763538e+003,1.197272e-002
2.765467e+003,1.215336e-002
2.767395e+003,1.239876e-002
2.769324e+003,1.260898e-002
2.771252e+003,1.284030e-002
2.773181e+003,1.323317e-002
2.775109e+003,1.366377e-002
2.777038e+003,1.408374e-002
2.778966e+003,1.463953e-002
2.780895e+003,1.533266e-002
2.782823e+003,1.607964e-002
2.784752e+003,1.692816e-002
2.786680e+003,1.788837e-002
2.788609e+003,1.895245e-002
2.790537e+003,2.008852e-002
2.792466e+003,2.114320e-002
2.794394e+003,2.202840e-002
2.796323e+003,2.270596e-002
2.798251e+003,2.336038e-002
2.800180e+003,2.428664e-002
2.802108e+003,2.577640e-002
2.804037e+003,2.769186e-002
2.805965e+003,2.966107e-002
2.807894e+003,3.135038e-002
2.809822e+003,3.287056e-002
2.811751e+003,3.441688e-002
2.813679e+003,3.608881e-002
2.815608e+003,3.812566e-002
2.817536e+003,4.065698e-002
2.819465e+003,4.381409e-002
2.821393e+003,4.782055e-002
2.823322e+003,5.299720e-002
2.825250e+003,6.001452e-002
2.827179e+003,6.993967e-002
2.829107e+003,8.473433e-002
2.831036e+003,1.067624e-001
2.832964e+003,1.363379e-001
2.834893e+003,1.674767e-001
2.836821e+003,1.881546e-001
2.838750e+003,1.898622e-001
2.840678e+003,1.737545e-001
2.842607e+003,1.478524e-001
2.844535e+003,1.214189e-001
2.846464e+003,9.988751e-002
2.848392e+003,8.463980e-002
2.850321e+003,7.512792e-002
2.852249e+003,7.053584e-002
2.854178e+003,7.055581e-002
2.856106e+003,7.601553e-002
2.858035e+003,8.863531e-002
2.859963e+003,1.106457e-001
2.861892e+003,1.415008e-001
2.863820e+003,1.716215e-001
2.865749e+003,1.867215e-001
2.867677e+003,1.845291e-001
2.869606e+003,1.754295e-001
2.871534e+003,1.680950e-001
2.873463e+003,1.661727e-001
2.875391e+003,1.692526e-001
2.877320e+003,1.719024e-001
2.879248e+003,1.696895e-001
2.881177e+003,1.642807e-001
2.883105e+003,1.590088e-001
2.885034e+003,1.553109e-001
2.886962e+003,1.530559e-001
2.888891e+003,1.521934e-001
2.890819e+003,1.536395e-001
2.892748e+003,1.587757e-001
2.894676e+003,1.683227e-001
2.896605e+003,1.823890e-001
2.898533e+003,2.001623e-001
2.900462e+003,2.200551e-001
2.902390e+003,2.407282e-001
2.904319e+003,2.606732e-001
2.906247e+003,2.776700e-001
2.908176e+003,2.923649e-001
2.910104e+003,3.105411e-001
2.912033e+003,3.388460e-001
2.913961e+003,3.753293e-001
2.915890e+003,4.036297e-001
2.917818e+003,4.046728e-001
2.919747e+003,3.799870e-001
2.921675e+003,3.470038e-001
2.923604e+003,3.160481e-001
2.925532e+003,2.853753e-001
2.927461e+003,2.516645e-001
2.929389e+003,2.166044e-001
2.931318e+003,1.848661e-001
2.933246e+003,1.602314e-001
2.935175e+003,1.444679e-001
2.937103e+003,1.385704e-001
2.939032e+003,1.437341e-001
2.940960e+003,1.625033e-001
2.942889e+003,1.967540e-001
2.944817e+003,2.432147e-001
2.946746e+003,2.909563e-001
2.948674e+003,3.215901e-001
2.950603e+003,3.199140e-001
2.952531e+003,2.921220e-001
2.954460e+003,2.617054e-001
2.956388e+003,2.466651e-001
2.958317e+003,2.460983e-001
2.960245e+003,2.443654e-001
2.962174e+003,2.259083e-001
2.964102e+003,1.933346e-001
2.966031e+003,1.593018e-001
2.967959e+003,1.287987e-001
2.969888e+003,1.019320e-001
2.971816e+003,7.920289e-002
2.973745e+003,6.095133e-002
2.975673e+003,4.690693e-002
2.977602e+003,3.634343e-002
2.979530e+003,2.835609e-002
2.981459e+003,2.222275e-002
2.983387e+003,1.759836e-002
2.985316e+003,1.415840e-002
2.987244e+003,1.147442e-002
2.989173e+003,9.284315e-003
2.991101e+003,7.556430e-003
2.993030e+003,6.131904e-003
2.994958e+003,4.952616e-003
2.996887e+003,3.968904e-003
2.998815e+003,3.197288e-003
3.000744e+003,2.546499e-003
3.002672e+003,2.109933e-003
3.004601e+003,1.757065e-003
3.006529e+003,1.310821e-003
3.008458e+003,8.371659e-004
3.010386e+003,5.283505e-004
3.012315e+003,3.025457e-004
3.014243e+003,1.264950e-004
3.016172e+003,-7.326808e-005
3.018100e+003,-2.509551e-004
3.020029e+003,-3.966335e-004
3.021957e+003,-4.900526e-004
3.023886e+003,-5.557835e-004
3.025814e+003,-6.851237e-004
3.027743e+003,-8.608727e-004
3.029671e+003,-9.821448e-004
3.031600e+003,-1.013897e-003
3.033528e+003,-1.010813e-003
3.035457e+003,-1.073469e-003
3.037385e+003,-1.006063e-003
3.039314e+003,-9.949496e-004
3.041242e+003,-1.023160e-003
3.043171e+003,-1.004828e-003
3.045099e+003,-9.416891e-004
3.047028e+003,-8.528009e-004
3.048956e+003,-8.638836e-004
3.050885e+003,-8.888533e-004
3.052813e+003,-8.283388e-004
3.054742e+003,-7.299632e-004
3.056670e+003,-7.174015e-004
3.058599e+003,-6.981790e-004
3.060527e+003,-6.654281e-004
3.062456e+003,-7.264195e-004
3.064384e+003,-8.201730e-004
3.066313e+003,-8.873893e-004
3.068241e+003,-8.587912e-004
3.070170e+003,-8.114781e-004
3.072098e+003,-8.249078e-004
3.074027e+003,-8.225273e-004
3.075955e+003,-7.296531e-004
3.077884e+003,-6.303787e-004
3.079812e+003,-6.810157e-004
3.081741e+003,-7.297574e-004
3.083669e+003,-6.746370e-004
3.085598e+003,-6.858883e-004
3.087526e+003,-6.508054e-004
3.089455e+003,-5.869614e-004
3.091383e+003,-5.183844e-004
3.093312e+003,-4.927516e-004
3.095240e+003,-4.546689e-004
3.097169e+003,-4.467815e-004
3.099097e+003,-4.531899e-004
3.101026e+003,-4.488248e-004
3.102954e+003,-3.863443e-004
3.104883e+003,-4.134011e-004
3.106811e+003,-3.060345e-004
3.108740e+003,-2.184976e-004
3.110668e+003,-1.444779e-004
3.112597e+003,-1.126369e-004
3.114525e+003,-1.198296e-004
3.116454e+003,-7.511675e-005
3.118382e+003,7.417053e-006
3.120311e+003,1.844112e-005
3.122239e+003,7.314049e-005
3.124168e+003,2.502119e-004
3.126096e+003,3.343113e-004
3.128025e+003,3.639804e-004
3.129953e+003,4.454320e-004
3.131882e+003,5.183881e-004
3.133810e+003,6.377948e-004
3.135739e+003,7.035155e-004
3.137667e+003,7.388545e-004
3.139596e+003,7.815929e-004
3.141524e+003,8.559311e-004
3.143453e+003,8.554347e-004
3.145381e+003,8.151308e-004
3.147310e+003,7.848898e-004
3.149238e+003,8.623535e-004
3.151167e+003,8.722926e-004
3.153095e+003,7.973686e-004
3.155024e+003,8.205771e-004
3.156952e+003,9.789960e-004
3.158881e+003,9.459695e-004
3.160809e+003,8.866573e-004
3.162738e+003,8.372245e-004
3.164666e+003,7.794639e-004
3.166594e+003,8.491641e-004
3.168523e+003,9.479066e-004
3.170452e+003,1.015141e-003
3.172380e+003,9.615785e-004
3.174309e+003,8.613979e-004
3.176237e+003,9.204987e-004
3.178166e+003,1.019681e-003
3.180094e+003,1.091734e-003
3.182022e+003,1.227275e-003
3.183951e+003,1.262967e-003
3.185880e+003,1.224655e-003
3.187808e+003,1.319316e-003
3.189737e+003,1.418688e-003
3.191665e+003,1.487930e-003
3.193594e+003,1.545274e-003
3.195522e+003,1.598943e-003
3.197450e+003,1.493295e-003
3.199379e+003,1.417312e-003
3.201308e+003,1.440742e-003
3.203236e+003,1.452503e-003
3.205165e+003,1.393741e-003
3.207093e+003,1.450921e-003
3.209021e+003,1.441415e-003
3.210950e+003,1.282619e-003
3.212878e+003,1.224465e-003
3.214807e+003,1.156550e-003
3.216736e+003,1.042020e-003
3.218664e+003,9.988109e-004
3.220593e+003,9.859595e-004
3.222521e+003,8.236459e-004
3.224449e+003,6.415071e-004
3.226378e+003,5.166223e-004
3.228307e+003,4.483312e-004
3.230235e+003,4.884060e-004
3.232164e+003,4.798379e-004
3.234092e+003,3.756685e-004
3.236021e+003,3.483864e-004
3.237949e+003,3.268169e-004
3.239877e+003,3.936002e-004
3.241806e+003,3.988259e-004
3.243735e+003,4.164334e-004
3.245663e+003,4.993584e-004
3.247592e+003,4.892126e-004
3.249520e+003,4.277071e-004
3.251448e+003,3.721137e-004
3.253377e+003,4.802458e-004
3.255305e+003,5.898196e-004
3.257234e+003,6.382400e-004
3.259163e+003,5.659256e-004
3.261091e+003,5.735522e-004
3.263020e+003,5.797632e-004
3.264948e+003,6.794408e-004
3.266876e+003,8.332795e-004
3.268805e+003,9.116726e-004
3.270733e+003,9.295912e-004
3.272662e+003,9.217719e-004
3.274591e+003,9.129541e-004
3.276519e+003,9.381361e-004
3.278448e+003,8.833092e-004
3.280376e+003,8.746609e-004
3.282304e+003,9.063408e-004
3.284233e+003,9.450978e-004
3.286161e+003,9.761909e-004
3.288090e+003,1.080660e-003
3.290019e+003,1.161896e-003
3.291947e+003,1.119511e-003
3.293875e+003,1.063399e-003
3.295804e+003,1.075324e-003
3.297732e+003,1.098081e-003
3.299661e+003,1.141644e-003
3.301589e+003,1.122551e-003
3.303518e+003,1.155218e-003
3.305447e+003,1.233205e-003
3.307375e+003,1.207476e-003
3.309303e+003,1.099133e-003
3.311232e+003,1.083271e-003
3.313160e+003,1.028327e-003
3.315089e+003,8.528549e-004
3.317018e+003,9.047994e-004
3.318946e+003,1.040507e-003
3.320875e+003,9.241141e-004
3.322803e+003,9.199819e-004
3.324731e+003,1.056932e-003
3.326660e+003,1.184915e-003
3.328588e+003,1.229757e-003
3.330517e+003,1.206818e-003
3.332446e+003,1.122562e-003
3.334374e+003,1.221832e-003
3.336302e+003,1.361011e-003
3.338231e+003,1.240002e-003
3.340159e+003,1.099388e-003
3.342088e+003,1.209160e-003
3.344016e+003,1.242219e-003
3.345945e+003,1.269815e-003
3.347874e+003,1.274114e-003
3.349802e+003,1.171806e-003
3.351730e+003,1.136524e-003
3.353659e+003,1.221855e-003
3.355587e+003,1.226686e-003
3.357516e+003,1.156384e-003
3.359444e+003,1.066082e-003
3.361373e+003,1.133313e-003
3.363302e+003,1.149017e-003
3.365230e+003,1.131254e-003
3.367158e+003,1.046583e-003
3.369087e+003,1.025919e-003
3.371015e+003,9.047324e-004
3.372944e+003,9.181853e-004
3.374872e+003,1.051597e-003
3.376801e+003,9.964844e-004
3.378729e+003,8.343635e-004
3.380658e+003,7.912954e-004
3.382586e+003,8.825436e-004
3.384515e+003,9.206133e-004
3.386443e+003,8.710427e-004
3.388372e+003,7.527564e-004
3.390300e+003,7.691160e-004
3.392229e+003,7.675420e-004
3.394157e+003,6.559258e-004
3.396086e+003,7.228637e-004
3.398014e+003,8.360865e-004
3.399943e+003,7.848851e-004
3.401871e+003,7.320298e-004
3.403800e+003,7.569771e-004
3.405728e+003,8.541578e-004
3.407657e+003,8.770274e-004
3.409585e+003,7.973658e-004
3.411514e+003,7.310957e-004
3.413442e+003,7.859375e-004
3.415371e+003,8.796249e-004
3.417299e+003,8.842489e-004
3.419228e+003,8.761594e-004
3.421156e+003,8.444507e-004
3.423085e+003,6.969003e-004
3.425013e+003,6.029913e-004
3.426942e+003,5.713059e-004
3.428870e+003,4.562093e-004
3.430799e+003,4.937928e-004
3.432727e+003,4.889937e-004
3.434656e+003,4.594605e-004
3.436584e+003,4.340354e-004
3.438513e+003,3.738003e-004
3.440441e+003,3.921892e-004
3.442370e+003,4.731938e-004
3.444298e+003,4.865779e-004
3.446227e+003,5.747676e-004
3.448155e+003,5.168524e-004
3.450084e+003,2.943436e-004
3.452012e+003,6.329175e-005
3.453941e+003,4.408788e-005
3.455869e+003,3.839750e-005
3.457798e+003,9.371061e-005
3.459726e+003,2.021454e-004
3.461655e+003,2.282895e-004
3.463583e+003,7.156096e-005
3.465512e+003,2.234802e-005
3.467440e+003,-1.055375e-005
3.469369e+003,-3.420189e-005
3.471297e+003,-1.009945e-004
3.473226e+003,-5.565025e-005
3.475154e+003,-7.832050e-005
3.477083e+003,-1.348946e-004
3.479011e+003,-4.733540e-005
3.480940e+003,9.312481e-005
3.482868e+003,-1.074765e-004
3.484797e+003,-2.072509e-004
3.486725e+003,-1.125466e-004
3.488654e+003,-2.171099e-004
3.490582e+003,-3.867513e-004
3.492511e+003,-4.498344e-004
3.494439e+003,-3.643176e-004
3.496368e+003,-2.502576e-004
3.498296e+003,-2.401862e-004
3.500225e+003,-1.548715e-004
3.502153e+003,4.616380e-005
3.504082e+003,-1.655705e-004
3.506010e+003,-4.832558e-004
3.507939e+003,-3.703125e-004
3.509867e+003,-3.592279e-004
3.511796e+003,-5.165963e-004
3.513724e+003,-6.560124e-004
3.515653e+003,-6.994409e-004
3.517581e+003,-6.102305e-004
3.519510e+003,-6.535696e-004
3.521438e+003,-3.928356e-004
3.523367e+003,-2.808813e-004
3.525295e+003,-5.046874e-004
3.527224e+003,-4.947037e-004
3.529152e+003,-6.665196e-004
3.531081e+003,-9.793704e-004
3.533009e+003,-1.058076e-003
3.534938e+003,-7.898938e-004
3.536866e+003,-7.647807e-004
3.538795e+003,-9.006010e-004
3.540723e+003,-8.717347e-004
3.542652e+003,-7.143021e-004
3.544580e+003,-5.111210e-004
3.546509e+003,-6.946120e-004
3.548437e+003,-1.094658e-003
3.550366e+003,-9.752903e-004
3.552294e+003,-9.957161e-004
3.554223e+003,-1.230255e-003
3.556151e+003,-1.232161e-003
3.558080e+003,-1.124412e-003
3.560008e+003,-9.811549e-004
3.561937e+003,-8.717068e-004
3.563865e+003,-6.346032e-004
3.565794e+003,-4.130844e-004
3.567722e+003,-1.121299e-003
3.569651e+003,-1.796765e-003
3.571579e+003,-1.937939e-003
3.573508e+003,-1.860286e-003
3.575436e+003,-1.681239e-003
3.577365e+003,-1.574629e-003
3.579293e+003,-1.521305e-003
3.581222e+003,-1.567133e-003
3.583150e+003,-1.542163e-003
3.585079e+003,-1.182470e-003
3.587007e+003,-8.352716e-004
3.588936e+003,-1.496395e-003
3.590864e+003,-1.764828e-003
3.592793e+003,-1.427254e-003
3.594721e+003,-1.203166e-003
3.596650e+003,-1.424279e-003
3.598578e+003,-1.581308e-003
3.600507e+003,-1.726447e-003
3.602435e+003,-1.734219e-003
3.604364e+003,-1.565341e-003
3.606292e+003,-1.249028e-003
3.608221e+003,-1.175901e-003
3.610149e+003,-1.428653e-003
3.612078e+003,-1.066396e-003
3.614006e+003,-1.095260e-003
3.615935e+003,-1.354930e-003
3.617863e+003,-1.424900e-003
3.619792e+003,-1.826428e-003
3.621720e+003,-1.931964e-003
3.623649e+003,-1.490477e-003
3.625577e+003,-9.906273e-004
3.627506e+003,-6.012190e-004
3.629434e+003,-1.418063e-003
3.631363e+003,-1.769622e-003
3.633291e+003,-1.812148e-003
3.635220e+003,-1.865909e-003
3.637148e+003,-1.465801e-003
3.639077e+003,-1.259318e-003
3.641005e+003,-1.053074e-003
3.642934e+003,-1.021460e-003
3.644862e+003,-5.993340e-004
3.646791e+003,-3.397465e-005
3.648719e+003,-5.731322e-004
3.650648e+003,-1.485590e-003
3.652576e+003,-2.023412e-003
3.654505e+003,-1.805294e-003
3.656433e+003,-1.757350e-003
3.658362e+003,-1.756233e-003
3.660290e+003,-1.721564e-003
3.662219e+003,-1.556464e-003
3.664147e+003,-1.230517e-003
3.666076e+003,-1.069598e-003
3.668004e+003,-2.749618e-004
3.669933e+003,1.397319e-004
3.671861e+003,-8.078776e-004
3.673790e+003,-8.622278e-004
3.675718e+003,-1.503890e-003
3.677647e+003,-1.372917e-003
3.679575e+003,-1.302879e-003
3.681504e+003,-1.299681e-003
3.683432e+003,-8.599740e-004
3.685361e+003,-5.700029e-004
3.687289e+003,-1.229476e-004
3.689218e+003,-3.572553e-006
3.691146e+003,-7.107686e-004
3.693075e+003,-1.227541e-003
3.695003e+003,-8.981060e-004
3.696932e+003,-7.715281e-004
3.698860e+003,-6.477758e-004
3.700789e+003,-1.900923e-004
3.702717e+003,-5.025435e-004
3.704646e+003,-8.302741e-004
3.706574e+003,-5.798247e-004
3.708503e+003,1.937896e-005
3.710431e+003,2.216846e-004
3.712360e+003,-7.774141e-004
3.714288e+003,-1.041068e-003
3.716217e+003,-8.268189e-004
3.718145e+003,-6.292555e-004
3.720074e+003,-2.667382e-004
3.722002e+003,3.015064e-005
3.723931e+003,1.180265e-004
3.725859e+003,2.037492e-004
3.727788e+003,-5.240925e-005
3.729716e+003,1.790076e-004
3.731645e+003,3.361683e-004
3.733573e+003,6.655604e-004
3.735502e+003,6.659199e-004
3.737430e+003,-1.060646e-004
3.739359e+003,-1.052395e-005
3.741287e+003,4.590917e-004
3.743216e+003,1.174668e-003
3.745144e+003,6.450973e-004
3.747073e+003,5.257484e-004
3.749001e+003,6.244071e-004
3.750930e+003,2.649538e-004
3.752858e+003,-9.668060e-005
3.754787e+003,4.089065e-005
3.756715e+003,3.455430e-004
3.758644e+003,4.204083e-004
3.760572e+003,2.455655e-004
3.762501e+003,2.592951e-004
3.764429e+003,5.667415e-004
3.766358e+003,2.361815e-004
3.768286e+003,2.133027e-004
3.770215e+003,7.656962e-005
3.772143e+003,1.667440e-005
3.774072e+003,2.257079e-004
3.776000e+003,3.051348e-004
3.777929e+003,4.141536e-004
3.779857e+003,1.929067e-004
3.781786e+003,9.970181e-005
3.783714e+003,2.009012e-004
3.785643e+003,4.569441e-005
3.787571e+003,-1.460779e-004
3.789500e+003,-8.448400e-005
3.791428e+003,1.757462e-004
3.793357e+003,2.579149e-004
3.795285e+003,8.571874e-004
3.797214e+003,1.000676e-003
3.799142e+003,9.914581e-004
3.801071e+003,9.994358e-004
3.802999e+003,-9.174645e-005
3.804927e+003,4.610233e-005
3.806856e+003,5.002134e-005
3.808785e+003,4.717894e-005
3.810713e+003,3.841761e-004
3.812642e+003,6.383732e-004
3.814570e+003,1.466062e-003
3.816499e+003,1.063069e-003
3.818427e+003,8.440986e-004
3.820355e+003,1.000093e-003
3.822284e+003,-3.944524e-005
3.824213e+003,-8.259714e-005
3.826141e+003,2.091173e-004
3.828070e+003,5.263295e-004
3.829998e+003,9.210985e-004
3.831927e+003,1.137611e-003
3.833855e+003,1.334311e-003
3.835783e+003,1.236361e-003
3.837712e+003,1.128536e-003
3.839641e+003,7.638950e-004
3.841569e+003,1.732446e-004
3.843498e+003,2.398398e-004
3.845426e+003,2.860092e-004
3.847354e+003,7.747468e-004
3.849283e+003,1.332927e-003
3.851211e+003,1.904007e-003
3.853140e+003,1.229271e-003
3.855069e+003,1.289845e-004
3.856997e+003,1.818184e-004
3.858926e+003,4.271772e-004
3.860854e+003,9.345748e-004
3.862782e+003,1.506384e-003
3.864711e+003,1.494713e-003
3.866640e+003,8.520223e-004
3.868568e+003,1.322761e-003
3.870497e+003,5.565081e-004
3.872425e+003,3.886819e-004
3.874354e+003,5.040895e-004
3.876282e+003,3.103409e-004
3.878210e+003,7.956121e-004
3.880139e+003,1.216825e-003
3.882068e+003,8.405447e-004
3.883996e+003,8.129608e-004
3.885925e+003,4.813895e-004
3.887853e+003,2.994183e-004
3.889781e+003,6.613098e-004
3.891710e+003,8.316673e-004
3.893638e+003,7.562190e-004
3.895567e+003,7.961653e-004
3.897496e+003,1.324369e-003
3.899424e+003,1.380609e-003
3.901353e+003,9.447597e-004
3.903281e+003,8.103885e-004
3.905209e+003,3.459491e-004
3.907138e+003,5.848147e-005
3.909066e+003,2.453420e-004
3.910995e+003,6.272662e-004
3.912924e+003,7.682033e-004
3.914852e+003,9.758584e-004
3.916781e+003,9.065624e-004
3.918709e+003,6.942265e-004
3.920637e+003,5.110186e-004
3.922566e+003,6.482843e-004
3.924494e+003,7.142387e-004
3.926423e+003,4.985016e-004
3.928352e+003,6.234460e-004
3.930280e+003,8.625332e-004
3.932208e+003,7.907823e-004
3.934137e+003,3.468357e-004
3.936065e+003,4.298352e-004
3.937994e+003,5.310066e-004
3.939922e+003,5.683377e-004
3.941851e+003,8.072965e-004
3.943780e+003,6.510504e-004
3.945708e+003,6.297473e-004
3.947636e+003,6.775204e-004
3.949565e+003,5.117189e-004
3.951493e+003,3.808718e-004
3.953422e+003,3.473256e-004
3.955351e+003,4.835036e-004
3.957279e+003,5.692635e-004
3.959208e+003,5.366821e-004
3.961136e+003,5.740691e-004
3.963064e+003,4.072338e-004
3.964993e+003,1.861509e-004
3.966921e+003,2.097096e-004
3.968850e+003,4.189219e-004
3.970779e+003,5.462039e-004
3.972707e+003,5.915537e-004
3.974635e+003,6.814655e-004
3.976564e+003,5.967673e-004
3.978492e+003,5.237274e-004
3.980421e+003,4.918631e-004
3.982349e+003,4.535522e-004
3.984278e+003,3.795307e-004
3.986207e+003,4.702546e-004
3.988135e+003,6.525479e-004
3.990063e+003,8.390509e-004
3.991992e+003,8.791275e-004
3.993920e+003,8.306950e-004
3.995849e+003,8.256380e-004
3.997777e+003,7.225573e-004
3.999706e+003,6.007329e-004
4.001635e+003,0.000000e+000
