3.991992e+002,0.000000e+000
4.011277e+002,0.000000e+000
4.030562e+002,0.000000e+000
4.049846e+002,0.000000e+000
4.069131e+002,0.000000e+000
4.088416e+002,0.000000e+000
4.107701e+002,0.000000e+000
4.126986e+002,0.000000e+000
4.146271e+002,0.000000e+000
4.165556e+002,0.000000e+000
4.184841e+002,0.000000e+000
4.204126e+002,0.000000e+000
4.223411e+002,0.000000e+000
4.242697e+002,0.000000e+000
4.261982e+002,0.000000e+000
4.281266e+002,0.000000e+000
4.300551e+002,0.000000e+000
4.319836e+002,0.000000e+000
4.339121e+002,0.000000e+000
4.358406e+002,0.000000e+000
4.377691e+002,0.000000e+000
4.396976e+002,0.000000e+000
4.416261e+002,0.000000e+000
4.435546e+002,0.000000e+000
4.454831e+002,0.000000e+000
4.474116e+002,0.000000e+000
4.493401e+002,0.000000e+000
4.512686e+002,0.000000e+000
4.531971e+002,0.000000e+000
4.551256e+002,0.000000e+000
4.570541e+002,0.000000e+000
4.589826e+002,0.000000e+000
4.609111e+002,0.000000e+000
4.628396e+002,0.000000e+000
4.647681e+002,0.000000e+000
4.666966e+002,0.000000e+000
4.686251e+002,0.000000e+000
4.705536e+002,0.000000e+000
4.724821e+002,0.000000e+000
4.744106e+002,0.000000e+000
4.763391e+002,0.000000e+000
4.782676e+002,0.000000e+000
4.801961e+002,0.000000e+000
4.821246e+002,0.000000e+000
4.840531e+002,0.000000e+000
4.859816e+002,0.000000e+000
4.879101e+002,0.000000e+000
4.898386e+002,0.000000e+000
4.917671e+002,0.000000e+000
4.936956e+002,0.000000e+000
4.956241e+002,0.000000e+000
4.975526e+002,0.000000e+000
4.994811e+002,0.000000e+000
5.014096e+002,0.000000e+000
5.033381e+002,0.000000e+000
5.052666e+002,0.000000e+000
5.071951e+002,0.000000e+000
5.091236e+002,0.000000e+000
5.110521e+002,0.000000e+000
5.129806e+002,0.000000e+000
5.149091e+002,0.000000e+000
5.168376e+002,0.000000e+000
5.187661e+002,0.000000e+000
5.206946e+002,0.000000e+000
5.226230e+002,0.000000e+000
5.245516e+002,1.033824e-004
5.264800e+002,5.471148e-005
5.284086e+002,-4.692562e-005
5.303370e+002,-1.152717e-004
5.322656e+002,-9.393692e-005
5.341940e+002,-1.463406e-004
5.361226e+002,-1.234654e-004
5.380510e+002,2.743676e-006
5.399796e+002,5.655363e-005
5.419081e+002,4.237518e-005
5.438365e+002,1.395196e-004
5.457650e+002,7.017329e-005
5.476935e+002,-4.658848e-005
5.496221e+002,-1.772549e-004
5.515505e+002,-1.394860e-004
5.534790e+002,7.102266e-005
5.554075e+002,2.731346e-004
5.573361e+002,2.717115e-004
5.592645e+002,2.162028e-004
5.611931e+002,1.356117e-004
5.631215e+002,-1.202151e-005
5.650500e+002,-1.316145e-005
5.669785e+002,7.736683e-005
5.689070e+002,1.635030e-005
5.708355e+002,-4.241802e-005
5.727640e+002,-1.273584e-004
5.746925e+002,-2.184752e-004
5.766210e+002,-1.457408e-004
5.785495e+002,-4.112720e-006
5.804780e+002,-6.641261e-005
5.824065e+002,-1.750607e-004
5.843350e+002,-1.133438e-004
5.862635e+002,-6.730296e-005
5.881920e+002,-1.677200e-004
5.901205e+002,-1.889318e-004
5.920490e+002,-1.675598e-004
5.939775e+002,-7.715262e-005
5.959060e+002,-8.076988e-005
5.978345e+002,-7.885881e-005
5.997630e+002,-5.304813e-005
6.016915e+002,6.141141e-006
6.036200e+002,7.309951e-005
6.055485e+002,1.689047e-004
6.074770e+002,1.421720e-004
6.094055e+002,1.528189e-004
6.113340e+002,5.463138e-005
6.132625e+002,1.394749e-005
6.151910e+002,4.934147e-006
6.171195e+002,1.277402e-005
6.190480e+002,-1.904368e-005
6.209765e+002,1.262557e-004
6.229050e+002,3.003012e-004
6.248335e+002,4.096590e-004
6.267620e+002,4.236680e-004
6.286905e+002,4.240610e-004
6.306190e+002,4.621428e-004
6.325475e+002,4.692059e-004
6.344760e+002,4.324410e-004
6.364045e+002,4.850198e-004
6.383330e+002,5.948618e-004
6.402615e+002,6.874148e-004
6.421899e+002,6.480124e-004
6.441185e+002,6.475374e-004
6.460470e+002,7.670838e-004
6.479755e+002,8.348711e-004
6.499039e+002,7.711202e-004
6.518325e+002,7.238891e-004
6.537610e+002,6.642658e-004
6.556895e+002,7.695407e-004
6.576179e+002,8.255932e-004
6.595464e+002,8.657165e-004
6.614750e+002,9.201225e-004
6.634034e+002,9.816643e-004
6.653319e+002,9.828992e-004
6.672604e+002,1.034524e-003
6.691890e+002,1.075586e-003
6.711174e+002,1.108836e-003
6.730460e+002,1.164529e-003
6.749745e+002,1.321044e-003
6.769030e+002,1.462294e-003
6.788314e+002,1.689425e-003
6.807599e+002,1.795458e-003
6.826885e+002,1.911601e-003
6.846169e+002,2.019132e-003
6.865454e+002,2.211282e-003
6.884739e+002,2.347555e-003
6.904025e+002,2.645543e-003
6.923309e+002,2.999984e-003
6.942594e+002,3.433356e-003
6.961879e+002,3.939051e-003
6.981165e+002,4.718883e-003
7.000449e+002,5.627174e-003
7.019734e+002,6.894201e-003
7.039019e+002,8.452820e-003
7.058304e+002,1.072631e-002
7.077589e+002,1.386135e-002
7.096874e+002,1.860834e-002
7.116159e+002,2.637033e-002
7.135444e+002,4.125063e-002
7.154729e+002,6.730665e-002
7.174014e+002,1.008450e-001
7.193299e+002,1.129164e-001
7.212584e+002,8.330866e-002
7.231869e+002,5.486939e-002
7.251154e+002,4.455467e-002
7.270439e+002,4.801882e-002
7.289724e+002,6.251956e-002
7.309009e+002,6.019960e-002
7.328294e+002,3.467213e-002
7.347579e+002,1.741199e-002
7.366864e+002,1.134258e-002
7.386149e+002,8.819416e-003
7.405434e+002,7.325293e-003
7.424719e+002,6.414963e-003
7.444004e+002,5.734904e-003
7.463289e+002,5.279534e-003
7.482574e+002,4.848281e-003
7.501859e+002,4.531683e-003
7.521144e+002,4.229663e-003
7.540428e+002,3.987227e-003
7.559714e+002,3.714018e-003
7.578999e+002,3.451671e-003
7.598284e+002,3.195008e-003
7.617568e+002,3.024783e-003
7.636854e+002,2.801863e-003
7.656139e+002,2.632514e-003
7.675424e+002,2.536014e-003
7.694709e+002,2.490092e-003
7.713994e+002,2.357086e-003
7.733279e+002,2.267268e-003
7.752563e+002,2.251774e-003
7.771849e+002,2.267711e-003
7.791134e+002,2.214940e-003
7.810419e+002,2.146428e-003
7.829703e+002,2.066476e-003
7.848989e+002,2.027119e-003
7.868274e+002,2.040965e-003
7.887559e+002,2.060305e-003
7.906843e+002,2.029190e-003
7.926129e+002,1.982363e-003
7.945414e+002,1.977617e-003
7.964698e+002,1.965024e-003
7.983983e+002,1.968050e-003
8.003268e+002,1.964973e-003
8.022554e+002,1.989854e-003
8.041838e+002,1.925616e-003
8.061123e+002,1.838779e-003
8.080408e+002,1.851909e-003
8.099694e+002,1.838289e-003
8.118978e+002,1.722230e-003
8.138263e+002,1.608066e-003
8.157548e+002,1.608742e-003
8.176833e+002,1.594717e-003
8.196118e+002,1.527535e-003
8.215403e+002,1.424883e-003
8.234689e+002,1.320617e-003
8.253973e+002,1.264064e-003
8.273258e+002,1.210434e-003
8.292543e+002,1.200078e-003
8.311829e+002,1.228299e-003
8.331113e+002,1.203042e-003
8.350398e+002,1.171470e-003
8.369683e+002,1.215950e-003
8.388969e+002,1.329720e-003
8.408253e+002,1.380421e-003
8.427538e+002,1.333583e-003
8.446823e+002,1.300611e-003
8.466108e+002,1.310311e-003
8.485393e+002,1.292963e-003
8.504678e+002,1.323923e-003
8.523963e+002,1.358628e-003
8.543248e+002,1.363836e-003
8.562533e+002,1.379177e-003
8.581818e+002,1.404688e-003
8.601103e+002,1.350030e-003
8.620388e+002,1.302827e-003
8.639673e+002,1.347471e-003
8.658958e+002,1.313001e-003
8.678243e+002,1.276232e-003
8.697528e+002,1.275528e-003
8.716813e+002,1.321819e-003
8.736098e+002,1.368482e-003
8.755383e+002,1.426097e-003
8.774668e+002,1.505151e-003
8.793953e+002,1.545995e-003
8.813238e+002,1.573224e-003
8.832523e+002,1.619536e-003
8.851808e+002,1.719087e-003
8.871093e+002,1.861535e-003
8.890378e+002,1.916654e-003
8.909663e+002,1.892846e-003
8.928948e+002,1.758248e-003
8.948232e+002,1.640767e-003
8.967518e+002,1.597293e-003
8.986803e+002,1.633130e-003
9.006088e+002,1.721568e-003
9.025372e+002,1.899570e-003
9.044658e+002,2.177462e-003
9.063943e+002,2.644073e-003
9.083228e+002,2.849594e-003
9.102512e+002,2.645142e-003
9.121797e+002,2.227418e-003
9.141083e+002,1.998365e-003
9.160367e+002,1.823686e-003
9.179653e+002,1.697306e-003
9.198937e+002,1.667272e-003
9.218223e+002,1.662917e-003
9.237507e+002,1.587287e-003
9.256793e+002,1.506917e-003
9.276077e+002,1.456250e-003
9.295363e+002,1.552839e-003
9.314647e+002,1.573082e-003
9.333932e+002,1.575712e-003
9.353217e+002,1.568463e-003
9.372502e+002,1.535732e-003
9.391787e+002,1.473725e-003
9.411072e+002,1.490347e-003
9.430358e+002,1.500480e-003
9.449642e+002,1.526099e-003
9.468928e+002,1.537036e-003
9.488212e+002,1.576848e-003
9.507498e+002,1.596685e-003
9.526782e+002,1.676444e-003
9.546068e+002,1.702774e-003
9.565352e+002,1.714446e-003
9.584637e+002,1.753010e-003
9.603922e+002,1.837362e-003
9.623207e+002,1.942724e-003
9.642492e+002,2.027765e-003
9.661777e+002,2.024792e-003
9.681062e+002,2.096549e-003
9.700347e+002,2.148934e-003
9.719632e+002,2.191227e-003
9.738917e+002,2.189003e-003
9.758202e+002,2.198514e-003
9.777487e+002,2.153222e-003
9.796772e+002,2.177190e-003
9.816057e+002,2.230786e-003
9.835342e+002,2.300892e-003
9.854627e+002,2.388310e-003
9.873912e+002,2.581794e-003
9.893197e+002,2.718102e-003
9.912482e+002,2.805043e-003
9.931767e+002,2.803899e-003
9.951052e+002,2.880350e-003
9.970337e+002,2.906904e-003
9.989622e+002,2.968963e-003
1.000891e+003,3.018033e-003
1.002819e+003,3.068928e-003
1.004748e+003,3.107082e-003
1.006676e+003,3.210347e-003
1.008605e+003,3.360316e-003
1.010533e+003,3.575515e-003
1.012462e+003,3.714707e-003
1.014390e+003,3.813505e-003
1.016319e+003,3.932398e-003
1.018247e+003,4.075486e-003
1.020176e+003,4.138850e-003
1.022104e+003,4.188318e-003
1.024033e+003,4.155848e-003
1.025961e+003,4.187882e-003
1.027890e+003,4.257191e-003
1.029818e+003,4.369579e-003
1.031747e+003,4.429672e-003
1.033675e+003,4.517164e-003
1.035604e+003,4.583769e-003
1.037532e+003,4.644629e-003
1.039461e+003,4.668131e-003
1.041389e+003,4.793912e-003
1.043318e+003,4.830841e-003
1.045246e+003,4.868563e-003
1.047175e+003,4.914571e-003
1.049103e+003,5.081158e-003
1.051032e+003,5.134456e-003
1.052960e+003,5.098592e-003
1.054889e+003,5.099062e-003
1.056817e+003,5.148537e-003
1.058746e+003,5.194183e-003
1.060674e+003,5.371813e-003
1.062603e+003,5.470403e-003
1.064531e+003,5.431741e-003
1.066460e+003,5.370643e-003
1.068388e+003,5.446237e-003
1.070317e+003,5.554534e-003
1.072245e+003,5.778909e-003
1.074174e+003,5.946454e-003
1.076102e+003,6.125383e-003
1.078031e+003,6.227165e-003
1.079959e+003,6.333001e-003
1.081888e+003,6.323766e-003
1.083816e+003,6.298326e-003
1.085745e+003,6.268956e-003
1.087673e+003,6.257378e-003
1.089602e+003,6.218914e-003
1.091530e+003,6.187908e-003
1.093459e+003,6.114870e-003
1.095387e+003,6.058164e-003
1.097316e+003,5.942877e-003
1.099244e+003,5.911805e-003
1.101173e+003,5.874768e-003
1.103101e+003,5.856514e-003
1.105030e+003,5.775843e-003
1.106958e+003,5.742237e-003
1.108887e+003,5.629931e-003
1.110815e+003,5.529627e-003
1.112744e+003,5.416762e-003
1.114672e+003,5.376332e-003
1.116601e+003,5.341977e-003
1.118529e+003,5.331632e-003
1.120458e+003,5.247518e-003
1.122386e+003,5.152006e-003
1.124315e+003,5.044166e-003
1.126243e+003,5.064525e-003
1.128172e+003,5.072467e-003
1.130100e+003,5.093198e-003
1.132029e+003,5.055793e-003
1.133957e+003,5.103577e-003
1.135885e+003,5.148917e-003
1.137814e+003,5.190700e-003
1.139743e+003,5.160492e-003
1.141671e+003,5.216423e-003
1.143600e+003,5.329687e-003
1.145528e+003,5.541001e-003
1.147457e+003,5.776677e-003
1.149385e+003,6.073114e-003
1.151314e+003,6.357443e-003
1.153242e+003,6.681319e-003
1.155171e+003,6.877113e-003
1.157099e+003,7.020980e-003
1.159028e+003,7.104617e-003
1.160956e+003,7.185422e-003
1.162885e+003,7.145707e-003
1.164813e+003,7.073600e-003
1.166742e+003,6.928425e-003
1.168670e+003,6.741446e-003
1.170599e+003,6.485503e-003
1.172527e+003,6.277274e-003
1.174456e+003,6.070033e-003
1.176384e+003,5.976103e-003
1.178313e+003,5.747598e-003
1.180241e+003,5.534329e-003
1.182170e+003,5.425788e-003
1.184098e+003,5.441416e-003
1.186027e+003,5.387004e-003
1.187955e+003,5.390733e-003
1.189884e+003,5.410030e-003
1.191812e+003,5.491052e-003
1.193740e+003,5.546350e-003
1.195669e+003,5.654931e-003
1.197598e+003,5.752027e-003
1.199526e+003,5.913429e-003
1.201455e+003,6.084230e-003
1.203383e+003,6.327569e-003
1.205312e+003,6.516561e-003
1.207240e+003,6.725520e-003
1.209168e+003,6.937627e-003
1.211097e+003,7.219139e-003
1.213026e+003,7.387657e-003
1.214954e+003,7.567469e-003
1.216883e+003,7.706117e-003
1.218811e+003,7.893395e-003
1.220740e+003,8.054554e-003
1.222668e+003,8.225419e-003
1.224596e+003,8.339535e-003
1.226525e+003,8.511554e-003
1.228453e+003,8.621931e-003
1.230382e+003,8.770231e-003
1.232311e+003,8.865710e-003
1.234239e+003,8.987635e-003
1.236167e+003,9.025101e-003
1.238096e+003,9.075239e-003
1.240025e+003,9.084016e-003
1.241953e+003,9.100061e-003
1.243882e+003,9.036351e-003
1.245810e+003,8.964360e-003
1.247739e+003,8.796554e-003
1.249667e+003,8.677989e-003
1.251595e+003,8.525979e-003
1.253524e+003,8.435801e-003
1.255453e+003,8.301497e-003
1.257381e+003,8.200780e-003
1.259310e+003,8.017171e-003
1.261238e+003,7.850334e-003
1.263167e+003,7.639479e-003
1.265095e+003,7.497359e-003
1.267023e+003,7.333703e-003
1.268952e+003,7.301245e-003
1.270880e+003,7.247895e-003
1.272809e+003,7.246982e-003
1.274738e+003,7.244468e-003
1.276666e+003,7.314593e-003
1.278594e+003,7.319625e-003
1.280523e+003,7.401202e-003
1.282451e+003,7.461954e-003
1.284380e+003,7.661052e-003
1.286308e+003,7.838123e-003
1.288237e+003,8.107383e-003
1.290166e+003,8.355480e-003
1.292094e+003,8.724809e-003
1.294022e+003,9.094268e-003
1.295951e+003,9.553935e-003
1.297879e+003,9.891082e-003
1.299808e+003,1.018518e-002
1.301736e+003,1.028484e-002
1.303665e+003,1.036068e-002
1.305594e+003,1.029740e-002
1.307522e+003,1.018524e-002
1.309450e+003,9.872932e-003
1.311379e+003,9.558123e-003
1.313307e+003,9.076912e-003
1.315236e+003,8.673355e-003
1.317164e+003,8.227125e-003
1.319093e+003,7.828649e-003
1.321021e+003,7.357523e-003
1.322950e+003,7.105209e-003
1.324878e+003,6.887879e-003
1.326807e+003,6.798889e-003
1.328735e+003,6.713860e-003
1.330664e+003,6.819740e-003
1.332592e+003,6.991081e-003
1.334521e+003,7.395260e-003
1.336449e+003,7.905737e-003
1.338378e+003,8.621354e-003
1.340306e+003,9.264972e-003
1.342235e+003,9.813674e-003
1.344163e+003,1.023248e-002
1.346092e+003,1.085075e-002
1.348021e+003,1.150146e-002
1.349949e+003,1.221672e-002
1.351877e+003,1.256890e-002
1.353806e+003,1.263346e-002
1.355734e+003,1.246435e-002
1.357663e+003,1.254933e-002
1.359591e+003,1.282053e-002
1.361520e+003,1.354157e-002
1.363448e+003,1.460651e-002
1.365377e+003,1.577057e-002
1.367305e+003,1.657566e-002
1.369234e+003,1.667464e-002
1.371162e+003,1.579511e-002
1.373091e+003,1.494329e-002
1.375019e+003,1.488251e-002
1.376948e+003,1.498863e-002
1.378876e+003,1.315463e-002
1.380805e+003,1.032345e-002
1.382733e+003,8.182380e-003
1.384662e+003,7.269617e-003
1.386590e+003,6.702021e-003
1.388519e+003,6.456714e-003
1.390447e+003,6.175611e-003
1.392376e+003,6.184183e-003
1.394304e+003,6.047901e-003
1.396233e+003,6.190609e-003
1.398161e+003,6.151844e-003
1.400090e+003,6.311700e-003
1.402018e+003,6.225869e-003
1.403947e+003,6.414797e-003
1.405875e+003,6.419055e-003
1.407804e+003,6.672338e-003
1.409732e+003,6.752580e-003
1.411661e+003,7.102989e-003
1.413589e+003,7.194296e-003
1.415518e+003,7.564649e-003
1.417446e+003,7.713512e-003
1.419375e+003,8.481991e-003
1.421303e+003,8.922469e-003
1.423232e+003,9.989765e-003
1.425160e+003,1.136950e-002
1.427089e+003,1.328725e-002
1.429017e+003,1.562133e-002
1.430946e+003,1.914439e-002
1.432874e+003,2.193867e-002
1.434803e+003,2.461183e-002
1.436731e+003,2.742110e-002
1.438660e+003,3.013513e-002
1.440588e+003,3.158779e-002
1.442517e+003,3.353388e-002
1.444445e+003,3.503574e-002
1.446374e+003,3.745279e-002
1.448302e+003,4.082625e-002
1.450231e+003,4.605248e-002
1.452159e+003,5.378448e-002
1.454088e+003,6.392878e-002
1.456016e+003,7.414353e-002
1.457945e+003,9.961310e-002
1.459873e+003,1.452269e-001
1.461802e+003,1.893814e-001
1.463730e+003,1.868024e-001
1.465659e+003,1.444140e-001
1.467587e+003,1.325452e-001
1.469516e+003,1.313552e-001
1.471444e+003,1.488405e-001
1.473373e+003,1.300118e-001
1.475301e+003,7.018530e-002
1.477230e+003,3.125464e-002
1.479158e+003,2.009224e-002
1.481087e+003,1.488502e-002
1.483015e+003,1.254088e-002
1.484944e+003,1.056191e-002
1.486872e+003,9.982176e-003
1.488801e+003,8.706547e-003
1.490729e+003,8.612551e-003
1.492658e+003,7.661980e-003
1.494586e+003,7.645007e-003
1.496515e+003,6.906852e-003
1.498443e+003,7.059757e-003
1.500372e+003,6.551646e-003
1.502300e+003,6.621856e-003
1.504229e+003,6.162759e-003
1.506157e+003,6.627347e-003
1.508086e+003,6.048664e-003
1.510014e+003,6.420135e-003
1.511943e+003,6.087415e-003
1.513871e+003,6.331835e-003
1.515800e+003,6.157737e-003
1.517728e+003,6.490253e-003
1.519657e+003,6.202981e-003
1.521585e+003,6.547414e-003
1.523514e+003,6.199706e-003
1.525442e+003,6.464258e-003
1.527371e+003,6.230906e-003
1.529299e+003,6.417520e-003
1.531228e+003,6.320648e-003
1.533156e+003,6.639097e-003
1.535085e+003,6.446261e-003
1.537013e+003,6.600957e-003
1.538942e+003,6.446231e-003
1.540870e+003,7.132106e-003
1.542799e+003,6.733067e-003
1.544727e+003,6.762147e-003
1.546656e+003,6.384987e-003
1.548584e+003,6.507657e-003
1.550513e+003,6.333794e-003
1.552441e+003,6.326586e-003
1.554370e+003,6.011631e-003
1.556298e+003,6.029334e-003
1.558227e+003,5.629897e-003
1.560155e+003,5.749665e-003
1.562084e+003,5.406000e-003
1.564012e+003,5.358249e-003
1.565941e+003,5.096965e-003
1.567869e+003,5.203251e-003
1.569798e+003,5.081523e-003
1.571726e+003,5.063593e-003
1.573655e+003,4.906200e-003
1.575583e+003,4.990268e-003
1.577512e+003,4.826009e-003
1.579440e+003,4.865449e-003
1.581369e+003,4.736807e-003
1.583297e+003,4.788384e-003
1.585226e+003,4.743546e-003
1.587154e+003,4.859153e-003
1.589083e+003,4.799839e-003
1.591011e+003,4.877772e-003
1.592940e+003,4.816309e-003
1.594868e+003,4.902102e-003
1.596797e+003,4.804797e-003
1.598725e+003,4.860573e-003
1.600654e+003,4.850522e-003
1.602582e+003,4.966475e-003
1.604511e+003,4.904144e-003
1.606439e+003,5.022436e-003
1.608368e+003,5.038790e-003
1.610296e+003,5.180210e-003
1.612225e+003,5.247198e-003
1.614153e+003,5.469039e-003
1.616082e+003,5.598575e-003
1.618010e+003,5.934812e-003
1.619939e+003,5.950972e-003
1.621867e+003,6.129496e-003
1.623796e+003,6.310113e-003
1.625724e+003,6.644912e-003
1.627653e+003,6.878890e-003
1.629581e+003,7.227935e-003
1.631510e+003,7.376820e-003
1.633438e+003,7.625945e-003
1.635367e+003,7.916436e-003
1.637295e+003,8.380197e-003
1.639224e+003,8.505203e-003
1.641152e+003,8.654103e-003
1.643081e+003,8.668572e-003
1.645009e+003,8.864932e-003
1.646938e+003,9.002790e-003
1.648866e+003,8.979857e-003
1.650795e+003,8.816361e-003
1.652723e+003,8.957595e-003
1.654652e+003,8.895986e-003
1.656580e+003,8.993916e-003
1.658509e+003,8.850016e-003
1.660437e+003,8.787669e-003
1.662366e+003,8.593202e-003
1.664294e+003,8.303896e-003
1.666223e+003,7.942624e-003
1.668151e+003,7.780701e-003
1.670080e+003,7.318787e-003
1.672008e+003,7.043563e-003
1.673937e+003,6.702483e-003
1.675865e+003,6.477006e-003
1.677794e+003,6.184116e-003
1.679722e+003,6.019458e-003
1.681651e+003,5.726315e-003
1.683579e+003,5.581051e-003
1.685508e+003,4.888423e-003
1.687436e+003,4.788086e-003
1.689365e+003,4.482798e-003
1.691293e+003,4.259013e-003
1.693222e+003,3.986686e-003
1.695150e+003,3.748447e-003
1.697079e+003,3.267206e-003
1.699007e+003,3.178135e-003
1.700936e+003,2.768464e-003
1.702864e+003,2.767332e-003
1.704793e+003,2.527565e-003
1.706721e+003,2.501711e-003
1.708650e+003,2.419531e-003
1.710578e+003,2.453960e-003
1.712507e+003,2.355821e-003
1.714435e+003,2.422303e-003
1.716364e+003,2.287515e-003
1.718292e+003,2.379917e-003
1.720221e+003,2.288885e-003
1.722149e+003,2.291813e-003
1.724078e+003,2.285071e-003
1.726006e+003,2.437860e-003
1.727935e+003,2.449036e-003
1.729863e+003,2.587400e-003
1.731792e+003,2.608240e-003
1.733720e+003,2.840407e-003
1.735649e+003,2.738260e-003
1.737577e+003,2.756655e-003
1.739506e+003,2.631105e-003
1.741434e+003,2.715968e-003
1.743363e+003,2.638578e-003
1.745291e+003,2.579279e-003
1.747220e+003,2.291039e-003
1.749148e+003,2.123408e-003
1.751077e+003,1.791447e-003
1.753005e+003,1.637459e-003
1.754934e+003,1.422867e-003
1.756862e+003,1.270272e-003
1.758791e+003,1.060270e-003
1.760719e+003,1.060553e-003
1.762648e+003,9.086803e-004
1.764576e+003,8.903295e-004
1.766505e+003,7.813126e-004
1.768433e+003,7.969812e-004
1.770362e+003,6.611124e-004
1.772290e+003,6.487146e-004
1.774219e+003,4.967973e-004
1.776147e+003,5.084500e-004
1.778076e+003,4.140362e-004
1.780004e+003,4.317611e-004
1.781933e+003,3.656819e-004
1.783861e+003,4.229769e-004
1.785790e+003,3.138706e-004
1.787718e+003,3.730655e-004
1.789646e+003,3.256649e-004
1.791575e+003,4.648417e-004
1.793504e+003,3.453717e-004
1.795432e+003,3.458709e-004
1.797361e+003,2.651811e-004
1.799289e+003,3.461540e-004
1.801218e+003,3.107041e-004
1.803146e+003,3.630444e-004
1.805074e+003,2.402887e-004
1.807003e+003,2.641901e-004
1.808932e+003,1.729280e-004
1.810860e+003,1.520440e-004
1.812789e+003,-8.747727e-005
1.814717e+003,-2.715290e-004
1.816646e+003,-4.791245e-004
1.818574e+003,-1.608059e-004
1.820502e+003,-6.782264e-005
1.822431e+003,-5.726516e-005
1.824360e+003,-3.179014e-004
1.826288e+003,-3.061071e-004
1.828217e+003,-2.984330e-004
1.830145e+003,-2.844781e-004
1.832073e+003,-5.817637e-004
1.834002e+003,-5.591437e-004
1.835931e+003,-6.394237e-004
1.837859e+003,-4.442632e-004
1.839788e+003,-5.541369e-004
1.841716e+003,-6.009564e-004
1.843645e+003,-7.942170e-004
1.845573e+003,-6.832778e-004
1.847501e+003,-7.990524e-004
1.849430e+003,-6.184950e-004
1.851359e+003,-6.440803e-004
1.853287e+003,-5.432069e-004
1.855216e+003,-6.306767e-004
1.857144e+003,-5.997121e-004
1.859073e+003,-8.454695e-004
1.861001e+003,-8.112639e-004
1.862929e+003,-8.973777e-004
1.864858e+003,-8.456632e-004
1.866787e+003,-1.129188e-003
1.868715e+003,-1.004852e-003
1.870644e+003,-9.739175e-004
1.872572e+003,-7.962063e-004
1.874500e+003,-9.452477e-004
1.876429e+003,-8.586124e-004
1.878357e+003,-1.016885e-003
1.880286e+003,-1.008704e-003
1.882215e+003,-1.015201e-003
1.884143e+003,-8.516684e-004
1.886072e+003,-1.127698e-003
1.888000e+003,-1.059592e-003
1.889928e+003,-1.008280e-003
1.891857e+003,-5.199090e-004
1.893785e+003,-4.148930e-004
1.895714e+003,-1.493245e-004
1.897643e+003,-4.805699e-004
1.899571e+003,-3.974438e-004
1.901500e+003,-3.897846e-004
1.903428e+003,-3.821328e-004
1.905356e+003,-3.745034e-004
1.907285e+003,-3.668889e-004
1.909213e+003,-3.592819e-004
1.911142e+003,-3.516898e-004
1.913071e+003,-3.440976e-004
1.914999e+003,-3.365278e-004
1.916927e+003,-3.289655e-004
1.918856e+003,-3.214180e-004
1.920784e+003,-3.138781e-004
1.922713e+003,-3.063530e-004
1.924641e+003,-2.988353e-004
1.926570e+003,-2.913326e-004
1.928499e+003,-2.838522e-004
1.930427e+003,-2.763718e-004
1.932355e+003,-2.689213e-004
1.934284e+003,-2.614558e-004
1.936212e+003,-2.540201e-004
1.938141e+003,-2.465919e-004
1.940070e+003,-2.391711e-004
1.941998e+003,-2.317652e-004
1.943927e+003,-2.243817e-004
1.945855e+003,-2.169982e-004
1.947783e+003,-2.096295e-004
1.949712e+003,-2.022833e-004
1.951640e+003,-1.949295e-004
1.953569e+003,-1.876056e-004
1.955498e+003,-1.802817e-004
1.957426e+003,-1.729727e-004
1.959354e+003,-1.656786e-004
1.961283e+003,-1.583993e-004
1.963211e+003,-1.511127e-004
1.965140e+003,-1.438633e-004
1.967068e+003,-1.366138e-004
1.968997e+003,-1.293793e-004
1.970926e+003,-1.221523e-004
1.972854e+003,-1.149401e-004
1.974782e+003,-1.077428e-004
1.976711e+003,-1.005605e-004
1.978639e+003,-9.338558e-005
1.980568e+003,-8.621812e-005
1.982496e+003,-7.907301e-005
1.984425e+003,-7.192791e-005
1.986354e+003,-6.479770e-005
1.988282e+003,-5.768985e-005
1.990210e+003,-5.058199e-005
1.992139e+003,-4.349649e-005
1.994067e+003,-3.641844e-005
1.995996e+003,-2.934784e-005
1.997924e+003,-2.229214e-005
1.999853e+003,-1.524389e-005
2.001781e+003,-8.217990e-006
2.003710e+003,-1.199543e-006
2.005638e+003,5.811453e-006
2.007567e+003,1.280755e-005
2.009495e+003,1.978874e-005
2.011424e+003,2.676249e-005
2.013352e+003,3.372133e-005
2.015281e+003,4.065782e-005
2.017209e+003,4.759431e-005
2.019138e+003,5.451590e-005
2.021066e+003,6.143004e-005
2.022995e+003,6.832927e-005
2.024923e+003,7.521361e-005
2.026852e+003,8.209050e-005
2.028781e+003,8.895248e-005
2.030709e+003,9.579957e-005
2.032637e+003,1.026317e-004
2.034566e+003,1.094639e-004
2.036494e+003,1.162812e-004
2.038423e+003,1.230910e-004
2.040351e+003,1.298711e-004
2.042280e+003,1.366585e-004
2.044208e+003,1.434162e-004
2.046137e+003,1.501665e-004
2.048065e+003,1.569018e-004
2.049994e+003,1.636297e-004
2.051922e+003,1.703501e-004
2.053851e+003,1.770630e-004
2.055779e+003,1.837611e-004
2.057708e+003,1.904368e-004
2.059636e+003,1.971126e-004
2.061565e+003,2.037659e-004
2.063493e+003,2.104118e-004
2.065422e+003,2.170429e-004
2.067350e+003,2.236590e-004
2.069279e+003,2.302825e-004
2.071207e+003,2.368763e-004
2.073136e+003,2.434626e-004
2.075064e+003,2.500415e-004
2.076993e+003,2.565980e-004
2.078921e+003,2.631396e-004
2.080850e+003,2.696812e-004
2.082778e+003,2.761930e-004
2.084707e+003,2.827197e-004
2.086635e+003,2.892241e-004
2.088564e+003,2.957061e-004
2.090492e+003,3.021806e-004
2.092421e+003,3.086478e-004
2.094349e+003,3.151000e-004
2.096278e+003,3.215373e-004
2.098206e+003,3.279746e-004
2.100135e+003,3.343895e-004
2.102063e+003,3.407970e-004
2.103992e+003,3.471971e-004
2.105920e+003,3.535673e-004
2.107849e+003,3.599375e-004
2.109777e+003,3.662929e-004
2.111706e+003,3.726333e-004
2.113634e+003,3.789738e-004
2.115563e+003,3.852919e-004
2.117491e+003,3.915951e-004
2.119420e+003,3.978908e-004
2.121348e+003,4.041791e-004
2.123277e+003,4.104525e-004
2.125205e+003,4.167035e-004
2.127134e+003,4.229546e-004
2.129062e+003,4.291981e-004
2.130991e+003,4.354268e-004
2.132919e+003,4.416332e-004
2.134848e+003,4.478320e-004
2.136776e+003,4.540235e-004
2.138705e+003,4.602000e-004
2.140633e+003,4.663542e-004
2.142562e+003,4.725233e-004
2.144490e+003,4.786626e-004
2.146419e+003,4.847795e-004
2.148347e+003,4.909039e-004
2.150276e+003,4.969910e-004
2.152204e+003,5.030930e-004
2.154133e+003,5.091652e-004
2.156061e+003,5.152449e-004
2.157990e+003,5.212948e-004
2.159918e+003,5.273446e-004
2.161847e+003,5.333722e-004
2.163775e+003,5.393848e-004
2.165704e+003,5.453974e-004
2.167632e+003,5.513802e-004
2.169561e+003,5.573705e-004
2.171489e+003,5.633458e-004
2.173418e+003,5.693138e-004
2.175346e+003,5.752593e-004
2.177275e+003,5.811974e-004
2.179203e+003,5.871207e-004
2.181132e+003,5.930215e-004
2.183060e+003,5.989149e-004
2.184989e+003,6.048083e-004
2.186917e+003,6.106868e-004
2.188846e+003,6.165504e-004
2.190774e+003,6.223917e-004
2.192703e+003,6.282330e-004
2.194631e+003,6.340668e-004
2.196560e+003,6.398782e-004
2.198488e+003,6.456822e-004
2.200417e+003,6.514862e-004
2.202345e+003,6.572604e-004
2.204274e+003,6.630197e-004
2.206202e+003,6.687790e-004
2.208131e+003,6.745160e-004
2.210059e+003,6.802455e-004
2.211988e+003,6.859675e-004
2.213916e+003,6.916672e-004
2.215845e+003,6.973594e-004
2.217773e+003,7.030442e-004
2.219702e+003,7.087067e-004
2.221630e+003,7.143691e-004
2.223559e+003,7.200241e-004
2.225487e+003,7.256493e-004
2.227416e+003,7.312745e-004
2.229344e+003,7.368848e-004
2.231273e+003,7.424951e-004
2.233201e+003,7.480755e-004
2.235130e+003,7.536486e-004
2.237058e+003,7.592142e-004
2.238987e+003,7.647574e-004
2.240915e+003,7.702932e-004
2.242844e+003,7.758215e-004
2.244772e+003,7.813349e-004
2.246701e+003,7.868409e-004
2.248629e+003,7.923171e-004
2.250558e+003,7.978007e-004
2.252486e+003,8.032694e-004
2.254415e+003,8.087307e-004
2.256343e+003,8.141547e-004
2.258272e+003,8.195937e-004
2.260200e+003,8.250028e-004
2.262129e+003,8.304194e-004
2.264057e+003,8.358210e-004
2.265986e+003,8.411855e-004
2.267914e+003,8.465573e-004
2.269843e+003,8.519143e-004
2.271771e+003,8.572638e-004
2.273700e+003,8.625910e-004
2.275628e+003,8.679256e-004
2.277557e+003,8.732378e-004
2.279485e+003,8.785278e-004
2.281414e+003,8.838102e-004
2.283342e+003,8.890778e-004
2.285271e+003,8.943379e-004
2.287199e+003,8.995906e-004
2.289128e+003,9.048283e-004
2.291056e+003,9.100512e-004
2.292985e+003,9.152591e-004
2.294913e+003,9.204745e-004
2.296842e+003,9.256527e-004
2.298770e+003,9.308308e-004
2.300699e+003,9.359941e-004
2.302627e+003,9.411573e-004
2.304556e+003,9.462982e-004
2.306484e+003,9.514317e-004
2.308413e+003,9.565353e-004
2.310341e+003,9.616464e-004
2.312270e+003,9.667277e-004
2.314198e+003,9.718165e-004
2.316127e+003,9.768605e-004
2.318055e+003,9.819344e-004
2.319984e+003,9.869784e-004
2.321912e+003,9.920076e-004
2.323841e+003,9.970292e-004
2.325769e+003,1.002043e-003
2.327698e+003,1.007043e-003
2.329626e+003,1.012020e-003
2.331555e+003,1.016989e-003
2.333483e+003,1.021959e-003
2.335412e+003,1.026906e-003
2.337340e+003,1.031846e-003
2.339269e+003,1.036763e-003
2.341197e+003,1.041673e-003
2.343126e+003,1.046568e-003
2.345054e+003,1.051463e-003
2.346983e+003,1.056343e-003
2.348911e+003,1.061209e-003
2.350840e+003,1.066051e-003
2.352768e+003,1.070887e-003
2.354697e+003,1.075722e-003
2.356625e+003,1.080535e-003
2.358554e+003,1.085334e-003
2.360482e+003,1.090124e-003
2.362411e+003,1.094900e-003
2.364339e+003,1.099683e-003
2.366268e+003,1.104437e-003
2.368196e+003,1.109168e-003
2.370125e+003,1.113907e-003
2.372053e+003,1.118623e-003
2.373982e+003,1.123331e-003
2.375910e+003,1.128025e-003
2.377839e+003,1.132719e-003
2.379767e+003,1.137391e-003
2.381696e+003,1.142040e-003
2.383624e+003,1.146682e-003
2.385553e+003,1.151316e-003
2.387481e+003,1.155943e-003
2.389410e+003,1.160555e-003
2.391338e+003,1.165152e-003
2.393267e+003,1.169749e-003
2.395195e+003,1.174316e-003
2.397124e+003,1.178883e-003
2.399052e+003,1.183428e-003
2.400981e+003,1.269780e-003
2.402909e+003,1.269393e-003
2.404838e+003,1.287997e-003
2.406766e+003,1.416922e-003
2.408695e+003,1.631543e-003
2.410623e+003,1.694426e-003
2.412552e+003,1.754865e-003
2.414480e+003,1.739040e-003
2.416409e+003,1.820020e-003
2.418337e+003,1.756623e-003
2.420266e+003,1.665682e-003
2.422194e+003,1.608014e-003
2.424123e+003,1.691118e-003
2.426051e+003,1.664862e-003
2.427979e+003,1.651384e-003
2.429908e+003,1.622759e-003
2.431837e+003,1.614541e-003
2.433765e+003,1.629598e-003
2.435694e+003,1.681328e-003
2.437622e+003,1.731642e-003
2.439551e+003,1.734912e-003
2.441479e+003,1.558818e-003
2.443407e+003,1.640089e-003
2.445336e+003,1.717672e-003
2.447265e+003,1.657121e-003
2.449193e+003,1.636505e-003
2.451122e+003,1.785591e-003
2.453050e+003,1.965232e-003
2.454979e+003,2.122179e-003
2.456907e+003,2.035461e-003
2.458836e+003,1.940094e-003
2.460764e+003,1.868829e-003
2.462693e+003,1.910642e-003
2.464621e+003,1.883186e-003
2.466550e+003,1.918837e-003
2.468478e+003,1.908712e-003
2.470406e+003,2.020329e-003
2.472335e+003,2.205350e-003
2.474264e+003,2.309069e-003
2.476192e+003,2.313673e-003
2.478121e+003,2.295725e-003
2.480049e+003,2.161548e-003
2.481978e+003,2.242580e-003
2.483906e+003,2.273321e-003
2.485835e+003,2.280489e-003
2.487763e+003,2.208367e-003
2.489692e+003,2.168715e-003
2.491620e+003,2.225459e-003
2.493549e+003,2.467491e-003
2.495477e+003,2.507068e-003
2.497406e+003,2.370931e-003
2.499334e+003,2.408572e-003
2.501263e+003,2.623230e-003
2.503191e+003,2.681822e-003
2.505120e+003,2.715521e-003
2.507048e+003,2.727792e-003
2.508977e+003,2.844073e-003
2.510905e+003,2.878435e-003
2.512833e+003,2.878398e-003
2.514762e+003,3.073409e-003
2.516691e+003,3.184222e-003
2.518619e+003,3.159702e-003
2.520548e+003,3.302835e-003
2.522476e+003,3.443077e-003
2.524405e+003,3.547579e-003
2.526333e+003,3.721707e-003
2.528261e+003,3.840305e-003
2.530190e+003,3.620081e-003
2.532119e+003,3.490396e-003
2.534047e+003,3.546633e-003
2.535976e+003,3.709242e-003
2.537904e+003,3.759116e-003
2.539833e+003,3.954418e-003
2.541761e+003,4.170448e-003
2.543689e+003,4.249595e-003
2.545618e+003,4.369855e-003
2.547547e+003,4.518874e-003
2.549475e+003,4.560068e-003
2.551404e+003,4.661247e-003
2.553332e+003,4.682153e-003
2.555260e+003,4.752576e-003
2.557189e+003,4.926905e-003
2.559117e+003,5.131535e-003
2.561046e+003,5.007304e-003
2.562975e+003,4.995279e-003
2.564903e+003,5.191952e-003
2.566832e+003,5.390987e-003
2.568760e+003,5.533956e-003
2.570688e+003,5.736299e-003
2.572617e+003,5.999565e-003
2.574546e+003,6.077297e-003
2.576474e+003,6.336890e-003
2.578403e+003,6.637961e-003
2.580331e+003,6.795608e-003
2.582260e+003,6.999113e-003
2.584188e+003,7.178105e-003
2.586116e+003,7.355213e-003
2.588045e+003,7.536188e-003
2.589974e+003,7.859401e-003
2.591902e+003,8.053496e-003
2.593831e+003,8.165181e-003
2.595759e+003,8.382715e-003
2.597688e+003,8.694991e-003
2.599616e+003,8.858234e-003
2.601544e+003,9.016074e-003
2.603473e+003,9.285338e-003
2.605402e+003,9.564921e-003
2.607330e+003,9.839080e-003
2.609259e+003,1.015564e-002
2.611187e+003,1.040234e-002
2.613115e+003,1.066295e-002
2.615044e+003,1.098765e-002
2.616972e+003,1.140271e-002
2.618901e+003,1.173533e-002
2.620830e+003,1.214499e-002
2.622758e+003,1.258206e-002
2.624687e+003,1.297511e-002
2.626615e+003,1.339934e-002
2.628543e+003,1.391085e-002
2.630472e+003,1.433852e-002
2.632400e+003,1.465380e-002
2.634329e+003,1.483756e-002
2.636258e+003,1.497452e-002
2.638186e+003,1.508592e-002
2.640115e+003,1.508287e-002
2.642043e+003,1.504333e-002
2.643971e+003,1.505633e-002
2.645900e+003,1.512446e-002
2.647828e+003,1.521886e-002
2.649757e+003,1.530566e-002
2.651686e+003,1.540825e-002
2.653614e+003,1.557314e-002
2.655542e+003,1.574422e-002
2.657471e+003,1.586188e-002
2.659399e+003,1.590945e-002
2.661328e+003,1.577802e-002
2.663256e+003,1.559365e-002
2.665185e+003,1.544749e-002
2.667114e+003,1.532365e-002
2.669042e+003,1.514919e-002
2.670970e+003,1.497798e-002
2.672899e+003,1.481163e-002
2.674827e+003,1.465187e-002
2.676756e+003,1.451534e-002
2.678685e+003,1.443253e-002
2.680613e+003,1.431657e-002
2.682542e+003,1.418400e-002
2.684470e+003,1.408552e-002
2.686398e+003,1.395013e-002
2.688327e+003,1.381777e-002
2.690255e+003,1.378418e-002
2.692184e+003,1.369002e-002
2.694113e+003,1.357112e-002
2.696041e+003,1.354658e-002
2.697969e+003,1.359808e-002
2.699898e+003,1.368546e-002
2.701826e+003,1.381585e-002
2.703755e+003,1.403573e-002
2.705683e+003,1.429555e-002
2.707612e+003,1.451415e-002
2.709541e+003,1.465175e-002
2.711469e+003,1.474161e-002
2.713397e+003,1.485974e-002
2.715326e+003,1.505698e-002
2.717254e+003,1.526949e-002
2.719183e+003,1.549026e-002
2.721111e+003,1.572669e-002
2.723040e+003,1.598548e-002
2.724969e+003,1.629149e-002
2.726897e+003,1.661138e-002
2.728825e+003,1.694902e-002
2.730754e+003,1.715212e-002
2.732682e+003,1.735613e-002
2.734611e+003,1.758284e-002
2.736539e+003,1.777094e-002
2.738468e+003,1.793002e-002
2.740396e+003,1.808611e-002
2.742325e+003,1.817533e-002
2.744253e+003,1.820204e-002
2.746182e+003,1.816049e-002
2.748110e+003,1.817975e-002
2.750039e+003,1.826870e-002
2.751967e+003,1.839497e-002
2.753896e+003,1.862014e-002
2.755824e+003,1.895884e-002
2.757753e+003,1.934074e-002
2.759681e+003,1.976021e-002
2.761610e+003,2.019801e-002
2.763538e+003,2.066201e-002
2.765467e+003,2.111805e-002
2.767395e+003,2.157541e-002
2.769324e+003,2.214441e-002
2.771252e+003,2.277527e-002
2.773181e+003,2.348970e-002
2.775109e+003,2.435738e-002
2.777038e+003,2.522133e-002
2.778966e+003,2.616406e-002
2.780895e+003,2.729381e-002
2.782823e+003,2.847861e-002
2.784752e+003,2.974254e-002
2.786680e+003,3.114303e-002
2.788609e+003,3.266823e-002
2.790537e+003,3.423405e-002
2.792466e+003,3.590200e-002
2.794394e+003,3.765766e-002
2.796323e+003,3.947385e-002
2.798251e+003,4.134922e-002
2.800180e+003,4.338604e-002
2.802108e+003,4.548720e-002
2.804037e+003,4.777399e-002
2.805965e+003,5.029359e-002
2.807894e+003,5.306320e-002
2.809822e+003,5.615164e-002
2.811751e+003,5.959512e-002
2.813679e+003,6.346428e-002
2.815608e+003,6.790527e-002
2.817536e+003,7.303908e-002
2.819465e+003,7.913090e-002
2.821393e+003,8.633436e-002
2.823322e+003,9.514033e-002
2.825250e+003,1.060848e-001
2.827179e+003,1.199025e-001
2.829107e+003,1.377005e-001
2.831036e+003,1.613877e-001
2.832964e+003,1.936443e-001
2.834893e+003,2.386935e-001
2.836821e+003,3.024898e-001
2.838750e+003,3.948755e-001
2.840678e+003,5.321304e-001
2.842607e+003,7.344172e-001
2.844535e+003,1.009819e+000
2.846464e+003,1.284415e+000
2.848392e+003,1.317332e+000
2.850321e+003,1.058296e+000
2.852249e+003,7.733697e-001
2.854178e+003,5.745323e-001
2.856106e+003,4.402279e-001
2.858035e+003,3.453975e-001
2.859963e+003,2.780284e-001
2.861892e+003,2.315185e-001
2.863820e+003,2.008070e-001
2.865749e+003,1.821202e-001
2.867677e+003,1.727030e-001
2.869606e+003,1.698513e-001
2.871534e+003,1.713846e-001
2.873463e+003,1.770093e-001
2.875391e+003,1.879211e-001
2.877320e+003,2.049349e-001
2.879248e+003,2.275596e-001
2.881177e+003,2.544253e-001
2.883105e+003,2.845450e-001
2.885034e+003,3.174571e-001
2.886962e+003,3.525458e-001
2.888891e+003,3.890407e-001
2.890819e+003,4.260722e-001
2.892748e+003,4.628824e-001
2.894676e+003,4.991891e-001
2.896605e+003,5.358654e-001
2.898533e+003,5.745506e-001
2.900462e+003,6.180827e-001
2.902390e+003,6.708693e-001
2.904319e+003,7.394968e-001
2.906247e+003,8.329613e-001
2.908176e+003,9.612226e-001
2.910104e+003,1.130198e+000
2.912033e+003,1.322410e+000
2.913961e+003,1.463702e+000
2.915890e+003,1.456163e+000
2.917818e+003,1.304234e+000
2.919747e+003,1.103283e+000
2.921675e+003,9.176396e-001
2.923604e+003,7.647389e-001
2.925532e+003,6.425639e-001
2.927461e+003,5.434937e-001
2.929389e+003,4.607424e-001
2.931318e+003,3.901730e-001
2.933246e+003,3.295518e-001
2.935175e+003,2.777098e-001
2.937103e+003,2.336655e-001
2.939032e+003,1.964533e-001
2.940960e+003,1.654983e-001
2.942889e+003,1.404957e-001
2.944817e+003,1.212162e-001
2.946746e+003,1.071730e-001
2.948674e+003,9.747244e-002
2.950603e+003,9.072877e-002
2.952531e+003,8.538677e-002
2.954460e+003,8.035892e-002
2.956388e+003,7.519184e-002
2.958317e+003,6.970286e-002
2.960245e+003,6.401644e-002
2.962174e+003,5.797935e-002
2.964102e+003,5.169797e-002
2.966031e+003,4.575092e-002
2.967959e+003,4.045556e-002
2.969888e+003,3.582874e-002
2.971816e+003,3.190745e-002
2.973745e+003,2.866707e-002
2.975673e+003,2.600976e-002
2.977602e+003,2.373070e-002
2.979530e+003,2.187181e-002
2.981459e+003,2.032233e-002
2.983387e+003,1.902222e-002
2.985316e+003,1.785824e-002
2.987244e+003,1.680145e-002
2.989173e+003,1.594217e-002
2.991101e+003,1.521510e-002
2.993030e+003,1.455923e-002
2.994958e+003,1.406772e-002
2.996887e+003,1.355772e-002
2.998815e+003,1.300526e-002
3.000744e+003,1.253662e-002
3.002672e+003,1.221411e-002
3.004601e+003,1.184408e-002
3.006529e+003,1.149697e-002
3.008458e+003,1.123974e-002
3.010386e+003,1.099460e-002
3.012315e+003,1.081920e-002
3.014243e+003,1.059853e-002
3.016172e+003,1.029323e-002
3.018100e+003,1.009858e-002
3.020029e+003,9.923242e-003
3.021957e+003,9.729430e-003
3.023886e+003,9.576730e-003
3.025814e+003,9.490520e-003
3.027743e+003,9.367503e-003
3.029671e+003,9.201303e-003
3.031600e+003,8.965380e-003
3.033528e+003,8.784525e-003
3.035457e+003,8.528017e-003
3.037385e+003,8.247852e-003
3.039314e+003,7.966273e-003
3.041242e+003,7.694647e-003
3.043171e+003,7.449433e-003
3.045099e+003,7.282093e-003
3.047028e+003,7.108927e-003
3.048956e+003,6.924249e-003
3.050885e+003,6.723545e-003
3.052813e+003,6.539971e-003
3.054742e+003,6.416455e-003
3.056670e+003,6.290354e-003
3.058599e+003,6.231740e-003
3.060527e+003,6.125882e-003
3.062456e+003,6.022468e-003
3.064384e+003,5.932793e-003
3.066313e+003,5.812764e-003
3.068241e+003,5.675912e-003
3.070170e+003,5.567484e-003
3.072098e+003,5.530849e-003
3.074027e+003,5.448498e-003
3.075955e+003,5.389549e-003
3.077884e+003,5.317576e-003
3.079812e+003,5.168505e-003
3.081741e+003,5.073637e-003
3.083669e+003,4.999429e-003
3.085598e+003,4.874483e-003
3.087526e+003,4.682846e-003
3.089455e+003,4.456744e-003
3.091383e+003,4.248410e-003
3.093312e+003,4.051618e-003
3.095240e+003,3.845930e-003
3.097169e+003,3.558323e-003
3.099097e+003,3.294304e-003
3.101026e+003,3.193110e-003
3.102954e+003,3.066324e-003
3.104883e+003,2.872646e-003
3.106811e+003,2.732627e-003
3.108740e+003,2.676159e-003
3.110668e+003,2.561353e-003
3.112597e+003,2.470285e-003
3.114525e+003,2.408586e-003
3.116454e+003,2.297454e-003
3.118382e+003,2.224095e-003
3.120311e+003,2.259396e-003
3.122239e+003,2.372988e-003
3.124168e+003,2.397358e-003
3.126096e+003,2.241187e-003
3.128025e+003,2.227135e-003
3.129953e+003,2.357490e-003
3.131882e+003,2.360255e-003
3.133810e+003,2.297945e-003
3.135739e+003,2.238870e-003
3.137667e+003,2.151452e-003
3.139596e+003,2.158053e-003
3.141524e+003,2.307422e-003
3.143453e+003,2.350487e-003
3.145381e+003,2.293944e-003
3.147310e+003,2.264768e-003
3.149238e+003,2.282478e-003
3.151167e+003,2.227038e-003
3.153095e+003,2.234578e-003
3.155024e+003,2.294488e-003
3.156952e+003,2.333932e-003
3.158881e+003,2.319485e-003
3.160809e+003,2.413280e-003
3.162738e+003,2.528556e-003
3.164666e+003,2.639651e-003
3.166594e+003,2.714589e-003
3.168523e+003,2.762996e-003
3.170452e+003,2.747916e-003
3.172380e+003,2.774484e-003
3.174309e+003,2.766967e-003
3.176237e+003,2.835274e-003
3.178166e+003,2.916999e-003
3.180094e+003,3.013931e-003
3.182022e+003,3.089301e-003
3.183951e+003,3.110141e-003
3.185880e+003,3.103234e-003
3.187808e+003,3.113404e-003
3.189737e+003,3.148258e-003
3.191665e+003,3.213987e-003
3.193594e+003,3.244996e-003
3.195522e+003,3.277101e-003
3.197450e+003,3.219672e-003
3.199379e+003,3.170259e-003
3.201308e+003,3.186814e-003
3.203236e+003,3.296144e-003
3.205165e+003,3.395982e-003
3.207093e+003,3.382050e-003
3.209021e+003,3.393881e-003
3.210950e+003,3.416426e-003
3.212878e+003,3.512375e-003
3.214807e+003,3.519401e-003
3.216736e+003,3.456332e-003
3.218664e+003,3.527537e-003
3.220593e+003,3.566049e-003
3.222521e+003,3.622577e-003
3.224449e+003,3.692955e-003
3.226378e+003,3.718071e-003
3.228307e+003,3.703944e-003
3.230235e+003,3.713511e-003
3.232164e+003,3.709652e-003
3.234092e+003,3.775336e-003
3.236021e+003,3.878705e-003
3.237949e+003,4.039556e-003
3.239877e+003,4.023887e-003
3.241806e+003,3.971800e-003
3.243735e+003,4.085049e-003
3.245663e+003,4.195288e-003
3.247592e+003,4.314691e-003
3.249520e+003,4.276969e-003
3.251448e+003,4.278064e-003
3.253377e+003,4.434504e-003
3.255305e+003,4.517667e-003
3.257234e+003,4.699312e-003
3.259163e+003,4.882999e-003
3.261091e+003,4.928149e-003
3.263020e+003,4.933983e-003
3.264948e+003,5.071521e-003
3.266876e+003,5.226269e-003
3.268805e+003,5.253598e-003
3.270733e+003,5.266853e-003
3.272662e+003,5.393885e-003
3.274591e+003,5.440578e-003
3.276519e+003,5.481616e-003
3.278448e+003,5.595572e-003
3.280376e+003,5.623765e-003
3.282304e+003,5.672120e-003
3.284233e+003,5.824149e-003
3.286161e+003,5.879804e-003
3.288090e+003,5.842268e-003
3.290019e+003,5.850874e-003
3.291947e+003,5.926684e-003
3.293875e+003,6.016210e-003
3.295804e+003,6.097361e-003
3.297732e+003,6.149739e-003
3.299661e+003,6.167851e-003
3.301589e+003,6.165624e-003
3.303518e+003,6.071337e-003
3.305447e+003,6.014951e-003
3.307375e+003,6.006129e-003
3.309303e+003,6.028846e-003
3.311232e+003,6.100960e-003
3.313160e+003,6.088182e-003
3.315089e+003,5.983874e-003
3.317018e+003,5.965456e-003
3.318946e+003,5.950749e-003
3.320875e+003,5.886398e-003
3.322803e+003,5.921483e-003
3.324731e+003,5.966872e-003
3.326660e+003,5.925804e-003
3.328588e+003,5.879708e-003
3.330517e+003,5.849034e-003
3.332446e+003,5.861111e-003
3.334374e+003,5.900010e-003
3.336302e+003,5.906299e-003
3.338231e+003,5.887270e-003
3.340159e+003,5.855262e-003
3.342088e+003,5.821392e-003
3.344016e+003,5.784482e-003
3.345945e+003,5.772337e-003
3.347874e+003,5.793586e-003
3.349802e+003,5.808413e-003
3.351730e+003,5.776569e-003
3.353659e+003,5.734101e-003
3.355587e+003,5.774468e-003
3.357516e+003,5.776361e-003
3.359444e+003,5.729049e-003
3.361373e+003,5.716920e-003
3.363302e+003,5.655602e-003
3.365230e+003,5.601272e-003
3.367158e+003,5.561173e-003
3.369087e+003,5.542681e-003
3.371015e+003,5.466536e-003
3.372944e+003,5.347520e-003
3.374872e+003,5.257025e-003
3.376801e+003,5.271316e-003
3.378729e+003,5.183205e-003
3.380658e+003,5.033344e-003
3.382586e+003,4.991367e-003
3.384515e+003,5.024403e-003
3.386443e+003,4.987359e-003
3.388372e+003,4.901677e-003
3.390300e+003,4.813775e-003
3.392229e+003,4.699826e-003
3.394157e+003,4.584402e-003
3.396086e+003,4.601881e-003
3.398014e+003,4.689068e-003
3.399943e+003,4.810527e-003
3.401871e+003,4.825205e-003
3.403800e+003,4.644603e-003
3.405728e+003,4.519477e-003
3.407657e+003,4.477784e-003
3.409585e+003,4.367128e-003
3.411514e+003,4.325196e-003
3.413442e+003,4.325479e-003
3.415371e+003,4.212782e-003
3.417299e+003,4.060745e-003
3.419228e+003,4.100040e-003
3.421156e+003,4.233196e-003
3.423085e+003,4.167199e-003
3.425013e+003,3.912389e-003
3.426942e+003,3.694803e-003
3.428870e+003,3.739059e-003
3.430799e+003,3.909379e-003
3.432727e+003,3.795832e-003
3.434656e+003,3.628463e-003
3.436584e+003,3.680229e-003
3.438513e+003,3.718808e-003
3.440441e+003,3.710359e-003
3.442370e+003,3.626198e-003
3.444298e+003,3.520489e-003
3.446227e+003,3.497019e-003
3.448155e+003,3.504902e-003
3.450084e+003,3.408536e-003
3.452012e+003,3.348827e-003
3.453941e+003,3.353998e-003
3.455869e+003,3.331110e-003
3.457798e+003,3.188863e-003
3.459726e+003,2.990961e-003
3.461655e+003,2.979249e-003
3.463583e+003,3.031939e-003
3.465512e+003,2.951071e-003
3.467440e+003,2.957240e-003
3.469369e+003,2.935901e-003
3.471297e+003,2.839103e-003
3.473226e+003,2.812654e-003
3.475154e+003,2.632663e-003
3.477083e+003,2.473012e-003
3.479011e+003,2.517805e-003
3.480940e+003,2.536446e-003
3.482868e+003,2.492934e-003
3.484797e+003,2.310798e-003
3.486725e+003,2.163008e-003
3.488654e+003,2.215922e-003
3.490582e+003,2.192646e-003
3.492511e+003,2.013311e-003
3.494439e+003,1.924872e-003
3.496368e+003,1.965120e-003
3.498296e+003,1.910448e-003
3.500225e+003,1.818851e-003
3.502153e+003,1.877725e-003
3.504082e+003,1.942962e-003
3.506010e+003,1.810521e-003
3.507939e+003,1.728058e-003
3.509867e+003,1.765922e-003
3.511796e+003,1.801491e-003
3.513724e+003,1.781940e-003
3.515653e+003,1.673087e-003
3.517581e+003,1.466110e-003
3.519510e+003,1.344621e-003
3.521438e+003,1.242355e-003
3.523367e+003,1.196817e-003
3.525295e+003,1.145869e-003
3.527224e+003,1.110435e-003
3.529152e+003,1.125872e-003
3.531081e+003,1.093164e-003
3.533009e+003,9.137839e-004
3.534938e+003,8.255839e-004
3.536866e+003,7.943362e-004
3.538795e+003,6.961077e-004
3.540723e+003,6.967634e-004
3.542652e+003,7.492900e-004
3.544580e+003,8.171201e-004
3.546509e+003,8.315444e-004
3.548437e+003,7.688701e-004
3.550366e+003,7.497817e-004
3.552294e+003,6.345958e-004
3.554223e+003,5.557537e-004
3.556151e+003,4.687458e-004
3.558080e+003,4.489273e-004
3.560008e+003,5.075932e-004
3.561937e+003,4.191101e-004
3.563865e+003,2.509207e-004
3.565794e+003,2.748817e-004
3.567722e+003,3.486425e-004
3.569651e+003,3.174394e-004
3.571579e+003,1.742542e-004
3.573508e+003,-2.872944e-005
3.575436e+003,-5.449355e-005
3.577365e+003,-3.530085e-005
3.579293e+003,-8.851290e-006
3.581222e+003,-9.551644e-006
3.583150e+003,2.653897e-005
3.585079e+003,1.349598e-004
3.587007e+003,3.859103e-004
3.588936e+003,4.536659e-004
3.590864e+003,3.671348e-004
3.592793e+003,3.996044e-004
3.594721e+003,6.323308e-004
3.596650e+003,8.995086e-004
3.598578e+003,1.220524e-003
3.600507e+003,1.704946e-003
3.602435e+003,1.952469e-003
3.604364e+003,1.814499e-003
3.606292e+003,1.622915e-003
3.608221e+003,1.585960e-003
3.610149e+003,1.371205e-003
3.612078e+003,1.242355e-003
3.614006e+003,8.945316e-004
3.615935e+003,4.981458e-004
3.617863e+003,2.179742e-004
3.619792e+003,3.976971e-004
3.621720e+003,4.006922e-004
3.623649e+003,6.449223e-005
3.625577e+003,-2.121329e-004
3.627506e+003,-2.759695e-005
3.629434e+003,4.849732e-004
3.631363e+003,3.670901e-004
3.633291e+003,1.280606e-004
3.635220e+003,-1.027733e-004
3.637148e+003,-1.448989e-004
3.639077e+003,1.180172e-004
3.641005e+003,4.831851e-004
3.642934e+003,6.018877e-004
3.644862e+003,3.985465e-004
3.646791e+003,1.910776e-004
3.648719e+003,4.694462e-004
3.650648e+003,6.096363e-004
3.652576e+003,1.000762e-004
3.654505e+003,-1.770705e-004
3.656433e+003,-1.196563e-004
3.658362e+003,2.282858e-005
3.660290e+003,-1.171827e-004
3.662219e+003,-2.671331e-004
3.664147e+003,-4.816055e-004
3.666076e+003,-8.302331e-004
3.668004e+003,-9.857714e-004
3.669933e+003,-7.655323e-004
3.671861e+003,-4.902035e-004
3.673790e+003,-6.105453e-004
3.675718e+003,-6.847680e-004
3.677647e+003,-5.305856e-004
3.679575e+003,-4.609376e-004
3.681504e+003,-4.817545e-004
3.683432e+003,-5.945414e-004
3.685361e+003,-6.005019e-004
3.687289e+003,-5.860776e-004
3.689218e+003,-5.423129e-004
3.691146e+003,-2.162904e-004
3.693075e+003,-1.163334e-004
3.695003e+003,-1.399815e-004
3.696932e+003,-2.346039e-004
3.698860e+003,-3.504604e-004
3.700789e+003,-3.893971e-004
3.702717e+003,-4.011989e-004
3.704646e+003,-4.879981e-004
3.706574e+003,-6.125420e-004
3.708503e+003,-5.583912e-004
3.710431e+003,-1.618266e-004
3.712360e+003,-5.596876e-005
3.714288e+003,-2.998263e-004
3.716217e+003,-3.829747e-004
3.718145e+003,-4.295260e-004
3.720074e+003,-4.802644e-004
3.722002e+003,-5.539507e-004
3.723931e+003,-7.580072e-004
3.725859e+003,-5.512536e-004
3.727788e+003,-5.500168e-004
3.729716e+003,-6.137788e-004
3.731645e+003,-6.379485e-004
3.733573e+003,-4.420429e-004
3.735502e+003,-2.229214e-004
3.737430e+003,-3.536940e-004
3.739359e+003,-4.722774e-004
3.741287e+003,-5.324483e-004
3.743216e+003,-2.245605e-005
3.745144e+003,3.331155e-004
3.747073e+003,1.653582e-004
3.749001e+003,-6.198883e-006
3.750930e+003,1.232028e-004
3.752858e+003,2.632141e-004
3.754787e+003,8.693337e-005
3.756715e+003,3.236532e-005
3.758644e+003,1.336485e-004
3.760572e+003,1.490712e-004
3.762501e+003,2.307594e-004
3.764429e+003,3.374964e-004
3.766358e+003,1.270324e-004
3.768286e+003,8.974969e-005
3.770215e+003,2.912879e-004
3.772143e+003,4.284382e-004
3.774072e+003,3.749728e-004
3.776000e+003,2.844334e-004
3.777929e+003,3.137887e-004
3.779857e+003,3.415346e-004
3.781786e+003,2.683252e-004
3.783714e+003,2.076775e-004
3.785643e+003,1.740456e-004
3.787571e+003,2.368391e-004
3.789500e+003,2.722889e-004
3.791428e+003,2.368540e-004
3.793357e+003,1.039654e-004
3.795285e+003,1.974553e-004
3.797214e+003,2.108216e-004
3.799142e+003,1.373440e-004
3.801071e+003,4.014820e-004
3.802999e+003,3.203154e-004
3.804927e+003,2.798140e-004
3.806856e+003,4.765540e-004
3.808785e+003,6.241947e-004
3.810713e+003,6.445646e-004
3.812642e+003,5.915612e-004
3.814570e+003,7.212758e-004
3.816499e+003,8.001477e-004
3.818427e+003,8.372366e-004
3.820355e+003,9.737611e-004
3.822284e+003,8.297563e-004
3.824213e+003,9.158999e-004
3.826141e+003,1.002416e-003
3.828070e+003,7.379204e-004
3.829998e+003,6.919205e-004
3.831927e+003,7.698238e-004
3.833855e+003,8.754432e-004
3.835783e+003,1.302853e-003
3.837712e+003,1.479149e-003
3.839641e+003,1.250714e-003
3.841569e+003,1.124144e-003
3.843498e+003,1.167446e-003
3.845426e+003,1.073688e-003
3.847354e+003,1.035541e-003
3.849283e+003,8.934140e-004
3.851211e+003,9.403229e-004
3.853140e+003,1.812980e-003
3.855069e+003,1.748979e-003
3.856997e+003,1.335233e-003
3.858926e+003,9.430796e-004
3.860854e+003,1.081929e-003
3.862782e+003,1.489744e-003
3.864711e+003,1.723364e-003
3.866640e+003,1.353756e-003
3.868568e+003,1.336366e-003
3.870497e+003,1.423642e-003
3.872425e+003,1.646161e-003
3.874354e+003,1.792490e-003
3.876282e+003,1.399666e-003
3.878210e+003,1.119226e-003
3.880139e+003,1.168534e-003
3.882068e+003,1.301363e-003
3.883996e+003,1.562446e-003
3.885925e+003,1.686200e-003
3.887853e+003,1.318723e-003
3.889781e+003,1.129106e-003
3.891710e+003,1.243621e-003
3.893638e+003,1.397192e-003
3.895567e+003,1.355812e-003
3.897496e+003,1.395687e-003
3.899424e+003,1.575559e-003
3.901353e+003,1.697525e-003
3.903281e+003,1.701862e-003
3.905209e+003,1.587123e-003
3.907138e+003,1.463354e-003
3.909066e+003,1.423836e-003
3.910995e+003,1.408622e-003
3.912924e+003,1.463398e-003
3.914852e+003,1.563877e-003
3.916781e+003,1.580760e-003
3.918709e+003,1.574963e-003
3.920637e+003,1.551285e-003
3.922566e+003,1.597732e-003
3.924494e+003,1.640677e-003
3.926423e+003,1.462668e-003
3.928352e+003,1.348957e-003
3.930280e+003,1.379877e-003
3.932208e+003,1.523167e-003
3.934137e+003,1.391202e-003
3.936065e+003,1.244143e-003
3.937994e+003,1.142874e-003
3.939922e+003,1.116246e-003
3.941851e+003,1.286849e-003
3.943780e+003,1.281664e-003
3.945708e+003,1.253784e-003
3.947636e+003,1.216859e-003
3.949565e+003,1.155734e-003
3.951493e+003,1.182809e-003
3.953422e+003,1.273632e-003
3.955351e+003,1.422137e-003
3.957279e+003,1.465037e-003
3.959208e+003,1.325548e-003
3.961136e+003,1.349628e-003
3.963064e+003,1.446337e-003
3.964993e+003,1.471788e-003
3.966921e+003,1.313075e-003
3.968850e+003,1.184240e-003
3.970779e+003,1.137242e-003
3.972707e+003,1.267150e-003
3.974635e+003,1.280606e-003
3.976564e+003,1.264259e-003
3.978492e+003,1.190707e-003
3.980421e+003,1.118079e-003
3.982349e+003,1.231834e-003
3.984278e+003,1.299545e-003
3.986207e+003,1.153827e-003
3.988135e+003,1.146168e-003
3.990063e+003,1.178220e-003
3.991992e+003,1.261055e-003
3.993920e+003,1.351669e-003
3.995849e+003,1.369268e-003
3.997777e+003,1.286373e-003
3.999706e+003,1.223981e-003
4.001635e+003,0.000000e+000
