3.991992e+002,0.000000e+000
4.011277e+002,0.000000e+000
4.030562e+002,0.000000e+000
4.049846e+002,0.000000e+000
4.069131e+002,0.000000e+000
4.088416e+002,0.000000e+000
4.107701e+002,0.000000e+000
4.126986e+002,0.000000e+000
4.146271e+002,0.000000e+000
4.165556e+002,0.000000e+000
4.184841e+002,0.000000e+000
4.204126e+002,0.000000e+000
4.223411e+002,0.000000e+000
4.242697e+002,0.000000e+000
4.261982e+002,0.000000e+000
4.281266e+002,0.000000e+000
4.300551e+002,0.000000e+000
4.319836e+002,0.000000e+000
4.339121e+002,0.000000e+000
4.358406e+002,0.000000e+000
4.377691e+002,0.000000e+000
4.396976e+002,0.000000e+000
4.416261e+002,0.000000e+000
4.435546e+002,0.000000e+000
4.454831e+002,0.000000e+000
4.474116e+002,0.000000e+000
4.493401e+002,0.000000e+000
4.512686e+002,0.000000e+000
4.531971e+002,0.000000e+000
4.551256e+002,0.000000e+000
4.570541e+002,0.000000e+000
4.589826e+002,0.000000e+000
4.609111e+002,0.000000e+000
4.628396e+002,0.000000e+000
4.647681e+002,0.000000e+000
4.666966e+002,0.000000e+000
4.686251e+002,0.000000e+000
4.705536e+002,0.000000e+000
4.724821e+002,0.000000e+000
4.744106e+002,0.000000e+000
4.763391e+002,0.000000e+000
4.782676e+002,0.000000e+000
4.801961e+002,0.000000e+000
4.821246e+002,0.000000e+000
4.840531e+002,0.000000e+000
4.859816e+002,0.000000e+000
4.879101e+002,0.000000e+000
4.898386e+002,0.000000e+000
4.917671e+002,0.000000e+000
4.936956e+002,0.000000e+000
4.956241e+002,0.000000e+000
4.975526e+002,0.000000e+000
4.994811e+002,0.000000e+000
5.014096e+002,0.000000e+000
5.033381e+002,0.000000e+000
5.052666e+002,0.000000e+000
5.071951e+002,0.000000e+000
5.091236e+002,0.000000e+000
5.110521e+002,0.000000e+000
5.129806e+002,0.000000e+000
5.149091e+002,0.000000e+000
5.168376e+002,0.000000e+000
5.187661e+002,0.000000e+000
5.206946e+002,0.000000e+000
5.226230e+002,0.000000e+000
5.245516e+002,-3.746687e-005
5.264800e+002,8.826749e-005
5.284086e+002,2.432358e-004
5.303370e+002,2.431846e-004
5.322656e+002,6.619352e-005
5.341940e+002,-9.534881e-005
5.361226e+002,-2.807970e-004
5.380510e+002,-3.541131e-004
5.399796e+002,-3.806546e-004
5.419081e+002,-2.866497e-004
5.438365e+002,-3.517140e-004
5.457650e+002,-4.260079e-004
5.476935e+002,-5.334720e-004
5.496221e+002,-3.713777e-004
5.515505e+002,-1.639598e-004
5.534790e+002,-1.910492e-005
5.554075e+002,-1.917104e-005
5.573361e+002,-1.821213e-004
5.592645e+002,-3.674538e-004
5.611931e+002,-3.036172e-004
5.631215e+002,-2.570061e-004
5.650500e+002,-1.748798e-004
5.669785e+002,-2.256259e-004
5.689070e+002,-2.087478e-004
5.708355e+002,-1.797981e-004
5.727640e+002,-5.561765e-005
5.746925e+002,-1.121562e-004
5.766210e+002,-9.885686e-005
5.785495e+002,-2.636784e-005
5.804780e+002,-1.698802e-005
5.824065e+002,-1.046762e-004
5.843350e+002,-5.995552e-005
5.862635e+002,-2.602884e-005
5.881920e+002,3.780075e-005
5.901205e+002,5.656737e-005
5.920490e+002,8.634175e-005
5.939775e+002,-7.121358e-006
5.959060e+002,4.564459e-005
5.978345e+002,-1.028646e-006
5.997630e+002,-6.183982e-006
6.016915e+002,-1.151254e-005
6.036200e+002,1.060099e-004
6.055485e+002,1.991929e-004
6.074770e+002,2.309200e-004
6.094055e+002,2.271058e-004
6.113340e+002,1.959829e-004
6.132625e+002,1.100125e-004
6.151910e+002,1.083796e-004
6.171195e+002,5.018967e-005
6.190480e+002,5.412381e-005
6.209765e+002,1.143748e-004
6.229050e+002,2.611212e-004
6.248335e+002,3.336989e-004
6.267620e+002,4.431480e-004
6.286905e+002,3.763293e-004
6.306190e+002,3.979318e-004
6.325475e+002,3.850269e-004
6.344760e+002,3.605231e-004
6.364045e+002,4.024385e-004
6.383330e+002,5.958138e-004
6.402615e+002,7.688578e-004
6.421899e+002,8.163180e-004
6.441185e+002,6.566318e-004
6.460470e+002,5.897111e-004
6.479755e+002,5.654376e-004
6.499039e+002,6.039019e-004
6.518325e+002,6.603736e-004
6.537610e+002,6.721856e-004
6.556895e+002,6.655715e-004
6.576179e+002,7.728196e-004
6.595464e+002,7.378375e-004
6.614750e+002,7.169805e-004
6.634034e+002,7.142543e-004
6.653319e+002,7.595092e-004
6.672604e+002,7.886449e-004
6.691890e+002,8.800232e-004
6.711174e+002,8.380897e-004
6.730460e+002,8.403754e-004
6.749745e+002,9.215192e-004
6.769030e+002,9.593409e-004
6.788314e+002,9.157774e-004
6.807599e+002,1.040525e-003
6.826885e+002,1.112749e-003
6.846169e+002,1.131537e-003
6.865454e+002,1.118017e-003
6.884739e+002,1.186977e-003
6.904025e+002,1.274446e-003
6.923309e+002,1.432582e-003
6.942594e+002,1.466095e-003
6.961879e+002,1.495719e-003
6.981165e+002,1.535074e-003
7.000449e+002,1.627086e-003
7.019734e+002,1.683519e-003
7.039019e+002,1.732388e-003
7.058304e+002,1.709647e-003
7.077589e+002,1.754033e-003
7.096874e+002,1.787367e-003
7.116159e+002,1.913696e-003
7.135444e+002,2.031320e-003
7.154729e+002,2.190002e-003
7.174014e+002,2.337534e-003
7.193299e+002,2.542112e-003
7.212584e+002,2.636235e-003
7.231869e+002,2.640757e-003
7.251154e+002,2.518280e-003
7.270439e+002,2.380013e-003
7.289724e+002,2.275974e-003
7.309009e+002,2.192730e-003
7.328294e+002,2.085614e-003
7.347579e+002,2.045459e-003
7.366864e+002,1.893189e-003
7.386149e+002,1.801550e-003
7.405434e+002,1.859417e-003
7.424719e+002,1.891902e-003
7.444004e+002,1.752177e-003
7.463289e+002,1.709755e-003
7.482574e+002,1.666234e-003
7.501859e+002,1.622666e-003
7.521144e+002,1.576856e-003
7.540428e+002,1.610829e-003
7.559714e+002,1.598485e-003
7.578999e+002,1.612161e-003
7.598284e+002,1.676684e-003
7.617568e+002,1.769803e-003
7.636854e+002,1.797780e-003
7.656139e+002,1.842251e-003
7.675424e+002,1.847860e-003
7.694709e+002,1.849830e-003
7.713994e+002,1.861493e-003
7.733279e+002,1.903126e-003
7.752563e+002,1.843720e-003
7.771849e+002,1.858070e-003
7.791134e+002,1.907921e-003
7.810419e+002,2.033579e-003
7.829703e+002,2.115177e-003
7.848989e+002,2.286975e-003
7.868274e+002,2.519794e-003
7.887559e+002,2.817556e-003
7.906843e+002,3.054384e-003
7.926129e+002,3.280343e-003
7.945414e+002,3.547754e-003
7.964698e+002,3.930061e-003
7.983983e+002,4.306103e-003
8.003268e+002,4.789722e-003
8.022554e+002,5.474265e-003
8.041838e+002,6.788555e-003
8.061123e+002,8.776437e-003
8.080408e+002,1.045198e-002
8.099694e+002,1.028146e-002
8.118978e+002,8.458039e-003
8.138263e+002,6.393693e-003
8.157548e+002,5.151200e-003
8.176833e+002,4.558526e-003
8.196118e+002,4.379022e-003
8.215403e+002,4.285543e-003
8.234689e+002,4.339166e-003
8.253973e+002,4.461279e-003
8.273258e+002,4.702241e-003
8.292543e+002,5.054388e-003
8.311829e+002,5.564163e-003
8.331113e+002,6.171290e-003
8.350398e+002,7.501654e-003
8.369683e+002,1.091985e-002
8.388969e+002,1.818920e-002
8.408253e+002,2.235258e-002
8.427538e+002,1.649111e-002
8.446823e+002,9.511385e-003
8.466108e+002,6.510727e-003
8.485393e+002,5.344270e-003
8.504678e+002,4.768878e-003
8.523963e+002,4.457904e-003
8.543248e+002,4.262192e-003
8.562533e+002,4.021299e-003
8.581818e+002,3.879181e-003
8.601103e+002,3.745687e-003
8.620388e+002,3.749701e-003
8.639673e+002,3.745737e-003
8.658958e+002,3.719561e-003
8.678243e+002,3.667885e-003
8.697528e+002,3.686174e-003
8.716813e+002,3.686624e-003
8.736098e+002,3.678911e-003
8.755383e+002,3.618571e-003
8.774668e+002,3.620897e-003
8.793953e+002,3.623931e-003
8.813238e+002,3.687811e-003
8.832523e+002,3.754721e-003
8.851808e+002,3.946870e-003
8.871093e+002,4.077367e-003
8.890378e+002,4.347259e-003
8.909663e+002,4.785711e-003
8.928948e+002,5.546306e-003
8.948232e+002,6.912530e-003
8.967518e+002,8.931553e-003
8.986803e+002,1.025769e-002
9.006088e+002,9.544337e-003
9.025372e+002,7.347007e-003
9.044658e+002,5.448455e-003
9.063943e+002,4.378913e-003
9.083228e+002,3.990032e-003
9.102512e+002,3.853324e-003
9.121797e+002,3.822211e-003
9.141083e+002,3.750214e-003
9.160367e+002,3.704734e-003
9.179653e+002,3.638768e-003
9.198937e+002,3.642168e-003
9.218223e+002,3.685215e-003
9.237507e+002,3.774570e-003
9.256793e+002,3.759817e-003
9.276077e+002,3.878751e-003
9.295363e+002,4.006087e-003
9.314647e+002,4.161912e-003
9.333932e+002,4.377371e-003
9.353217e+002,4.765802e-003
9.372502e+002,5.383935e-003
9.391787e+002,6.017598e-003
9.411072e+002,6.095113e-003
9.430358e+002,5.806219e-003
9.449642e+002,5.475499e-003
9.468928e+002,5.457353e-003
9.488212e+002,5.536302e-003
9.507498e+002,5.648422e-003
9.526782e+002,5.872844e-003
9.546068e+002,6.236848e-003
9.565352e+002,6.694027e-003
9.584637e+002,7.316694e-003
9.603922e+002,8.067352e-003
9.623207e+002,9.025326e-003
9.642492e+002,1.037065e-002
9.661777e+002,1.276777e-002
9.681062e+002,1.727664e-002
9.700347e+002,2.449919e-002
9.719632e+002,2.991337e-002
9.738917e+002,2.804920e-002
9.758202e+002,2.162348e-002
9.777487e+002,1.566505e-002
9.796772e+002,1.159812e-002
9.816057e+002,9.384809e-003
9.835342e+002,8.342285e-003
9.854627e+002,8.124636e-003
9.873912e+002,8.530320e-003
9.893197e+002,9.631932e-003
9.912482e+002,1.179238e-002
9.931767e+002,1.581026e-002
9.951052e+002,2.179173e-002
9.970337e+002,2.628577e-002
9.989622e+002,2.413288e-002
1.000891e+003,1.760028e-002
1.002819e+003,1.229737e-002
1.004748e+003,9.555080e-003
1.006676e+003,8.152979e-003
1.008605e+003,7.376575e-003
1.010533e+003,6.893358e-003
1.012462e+003,6.609756e-003
1.014390e+003,6.418480e-003
1.016319e+003,6.329155e-003
1.018247e+003,6.246508e-003
1.020176e+003,6.298726e-003
1.022104e+003,6.342145e-003
1.024033e+003,6.368176e-003
1.025961e+003,6.403248e-003
1.027890e+003,6.506636e-003
1.029818e+003,6.576212e-003
1.031747e+003,6.718051e-003
1.033675e+003,6.858761e-003
1.035604e+003,7.012306e-003
1.037532e+003,7.110292e-003
1.039461e+003,7.251897e-003
1.041389e+003,7.563404e-003
1.043318e+003,8.003496e-003
1.045246e+003,7.994181e-003
1.047175e+003,7.583847e-003
1.049103e+003,7.110131e-003
1.051032e+003,6.876265e-003
1.052960e+003,6.720159e-003
1.054889e+003,6.661337e-003
1.056817e+003,6.627448e-003
1.058746e+003,6.683077e-003
1.060674e+003,6.702806e-003
1.062603e+003,6.770136e-003
1.064531e+003,6.810279e-003
1.066460e+003,6.850728e-003
1.068388e+003,6.847086e-003
1.070317e+003,6.997815e-003
1.072245e+003,7.159817e-003
1.074174e+003,7.351671e-003
1.076102e+003,7.549977e-003
1.078031e+003,7.894186e-003
1.079959e+003,8.178916e-003
1.081888e+003,8.411514e-003
1.083816e+003,8.532547e-003
1.085745e+003,8.702764e-003
1.087673e+003,8.859985e-003
1.089602e+003,9.123871e-003
1.091530e+003,9.472466e-003
1.093459e+003,9.924943e-003
1.095387e+003,1.030674e-002
1.097316e+003,1.086426e-002
1.099244e+003,1.155482e-002
1.101173e+003,1.217368e-002
1.103101e+003,1.216532e-002
1.105030e+003,1.153222e-002
1.106958e+003,1.071813e-002
1.108887e+003,1.018753e-002
1.110815e+003,9.895628e-003
1.112744e+003,9.892389e-003
1.114672e+003,9.926750e-003
1.116601e+003,1.000291e-002
1.118529e+003,1.006642e-002
1.120458e+003,1.007324e-002
1.122386e+003,9.855857e-003
1.124315e+003,9.667482e-003
1.126243e+003,9.535032e-003
1.128172e+003,9.646153e-003
1.130100e+003,9.933161e-003
1.132029e+003,1.043371e-002
1.133957e+003,1.108165e-002
1.135885e+003,1.190630e-002
1.137814e+003,1.277555e-002
1.139743e+003,1.378606e-002
1.141671e+003,1.488554e-002
1.143600e+003,1.607012e-002
1.145528e+003,1.731369e-002
1.147457e+003,1.887219e-002
1.149385e+003,2.059928e-002
1.151314e+003,2.222669e-002
1.153242e+003,2.324481e-002
1.155171e+003,2.396944e-002
1.157099e+003,2.470595e-002
1.159028e+003,2.586132e-002
1.160956e+003,2.750776e-002
1.162885e+003,2.991759e-002
1.164813e+003,3.269332e-002
1.166742e+003,3.423110e-002
1.168670e+003,3.190403e-002
1.170599e+003,2.617183e-002
1.172527e+003,2.033002e-002
1.174456e+003,1.634791e-002
1.176384e+003,1.393990e-002
1.178313e+003,1.254394e-002
1.180241e+003,1.166284e-002
1.182170e+003,1.113165e-002
1.184098e+003,1.075795e-002
1.186027e+003,1.058514e-002
1.187955e+003,1.044532e-002
1.189884e+003,1.039955e-002
1.191812e+003,1.031771e-002
1.193740e+003,1.024662e-002
1.195669e+003,1.016279e-002
1.197598e+003,1.017451e-002
1.199526e+003,1.019478e-002
1.201455e+003,1.031406e-002
1.203383e+003,1.044970e-002
1.205312e+003,1.068616e-002
1.207240e+003,1.091857e-002
1.209168e+003,1.126043e-002
1.211097e+003,1.159165e-002
1.213026e+003,1.198632e-002
1.214954e+003,1.235989e-002
1.216883e+003,1.278286e-002
1.218811e+003,1.299163e-002
1.220740e+003,1.298238e-002
1.222668e+003,1.273607e-002
1.224596e+003,1.259887e-002
1.226525e+003,1.254297e-002
1.228453e+003,1.262332e-002
1.230382e+003,1.272076e-002
1.232311e+003,1.286454e-002
1.234239e+003,1.291080e-002
1.236167e+003,1.293078e-002
1.238096e+003,1.280491e-002
1.240025e+003,1.267914e-002
1.241953e+003,1.249568e-002
1.243882e+003,1.242325e-002
1.245810e+003,1.230964e-002
1.247739e+003,1.229408e-002
1.249667e+003,1.241640e-002
1.251595e+003,1.304615e-002
1.253524e+003,1.404800e-002
1.255453e+003,1.437617e-002
1.257381e+003,1.314364e-002
1.259310e+003,1.159901e-002
1.261238e+003,1.046668e-002
1.263167e+003,9.820787e-003
1.265095e+003,9.347380e-003
1.267023e+003,9.081534e-003
1.268952e+003,8.861765e-003
1.270880e+003,8.815300e-003
1.272809e+003,8.761747e-003
1.274738e+003,8.790081e-003
1.276666e+003,8.806296e-003
1.278594e+003,8.904302e-003
1.280523e+003,8.939177e-003
1.282451e+003,9.032551e-003
1.284380e+003,9.097873e-003
1.286308e+003,9.334771e-003
1.288237e+003,9.645211e-003
1.290166e+003,1.015025e-002
1.292094e+003,1.077050e-002
1.294022e+003,1.144589e-002
1.295951e+003,1.175889e-002
1.297879e+003,1.179019e-002
1.299808e+003,1.192342e-002
1.301736e+003,1.295989e-002
1.303665e+003,1.409598e-002
1.305594e+003,1.343380e-002
1.307522e+003,1.122577e-002
1.309450e+003,9.841305e-003
1.311379e+003,9.352455e-003
1.313307e+003,9.379781e-003
1.315236e+003,9.437738e-003
1.317164e+003,9.717256e-003
1.319093e+003,9.905069e-003
1.321021e+003,1.026382e-002
1.322950e+003,1.073588e-002
1.324878e+003,1.154880e-002
1.326807e+003,1.211143e-002
1.328735e+003,1.249290e-002
1.330664e+003,1.221850e-002
1.332592e+003,1.170644e-002
1.334521e+003,1.120690e-002
1.336449e+003,1.124098e-002
1.338378e+003,1.150286e-002
1.340306e+003,1.210260e-002
1.342235e+003,1.247959e-002
1.344163e+003,1.335288e-002
1.346092e+003,1.444344e-002
1.348021e+003,1.609008e-002
1.349949e+003,1.808256e-002
1.351877e+003,2.120214e-002
1.353806e+003,2.562576e-002
1.355734e+003,3.189499e-002
1.357663e+003,3.646917e-002
1.359591e+003,3.694518e-002
1.361520e+003,3.350870e-002
1.363448e+003,3.072252e-002
1.365377e+003,3.065388e-002
1.367305e+003,3.565415e-002
1.369234e+003,4.946402e-002
1.371162e+003,7.465465e-002
1.373091e+003,1.096869e-001
1.375019e+003,1.388328e-001
1.376948e+003,1.232611e-001
1.378876e+003,8.554558e-002
1.380805e+003,5.414354e-002
1.382733e+003,3.381363e-002
1.384662e+003,2.197236e-002
1.386590e+003,1.555049e-002
1.388519e+003,1.221600e-002
1.390447e+003,1.066048e-002
1.392376e+003,1.004848e-002
1.394304e+003,9.544618e-003
1.396233e+003,9.350717e-003
1.398161e+003,9.142933e-003
1.400090e+003,9.142138e-003
1.402018e+003,8.924773e-003
1.403947e+003,9.000774e-003
1.405875e+003,8.897554e-003
1.407804e+003,8.986527e-003
1.409732e+003,9.192223e-003
1.411661e+003,9.569487e-003
1.413589e+003,9.860735e-003
1.415518e+003,1.031201e-002
1.417446e+003,1.076599e-002
1.419375e+003,1.131673e-002
1.421303e+003,1.162114e-002
1.423232e+003,1.226852e-002
1.425160e+003,1.332021e-002
1.427089e+003,1.463253e-002
1.429017e+003,1.719219e-002
1.430946e+003,2.230717e-002
1.432874e+003,2.934230e-002
1.434803e+003,3.505371e-002
1.436731e+003,3.615248e-002
1.438660e+003,3.562076e-002
1.440588e+003,3.799394e-002
1.442517e+003,4.395830e-002
1.444445e+003,5.369572e-002
1.446374e+003,6.578577e-002
1.448302e+003,7.911757e-002
1.450231e+003,8.537910e-002
1.452159e+003,8.764366e-002
1.454088e+003,8.799107e-002
1.456016e+003,8.839369e-002
1.457945e+003,8.577604e-002
1.459873e+003,8.283638e-002
1.461802e+003,7.853929e-002
1.463730e+003,7.194707e-002
1.465659e+003,5.865624e-002
1.467587e+003,4.744937e-002
1.469516e+003,3.784827e-002
1.471444e+003,2.950185e-002
1.473373e+003,1.974728e-002
1.475301e+003,1.527174e-002
1.477230e+003,1.197007e-002
1.479158e+003,1.012502e-002
1.481087e+003,8.702544e-003
1.483015e+003,7.620892e-003
1.484944e+003,6.853144e-003
1.486872e+003,6.536841e-003
1.488801e+003,6.213840e-003
1.490729e+003,5.832936e-003
1.492658e+003,5.346671e-003
1.494586e+003,5.259812e-003
1.496515e+003,5.174695e-003
1.498443e+003,4.977092e-003
1.500372e+003,4.626831e-003
1.502300e+003,4.433164e-003
1.504229e+003,4.350670e-003
1.506157e+003,4.762566e-003
1.508086e+003,4.959091e-003
1.510014e+003,4.662117e-003
1.511943e+003,4.455821e-003
1.513871e+003,4.454381e-003
1.515800e+003,4.564314e-003
1.517728e+003,4.528990e-003
1.519657e+003,4.530000e-003
1.521585e+003,4.775273e-003
1.523514e+003,4.679347e-003
1.525442e+003,4.680845e-003
1.527371e+003,4.549027e-003
1.529299e+003,4.411384e-003
1.531228e+003,4.428111e-003
1.533156e+003,4.651147e-003
1.535085e+003,4.551087e-003
1.537013e+003,4.525817e-003
1.538942e+003,4.860411e-003
1.540870e+003,5.389478e-003
1.542799e+003,5.211743e-003
1.544727e+003,4.989723e-003
1.546656e+003,4.614717e-003
1.548584e+003,4.626935e-003
1.550513e+003,4.683297e-003
1.552441e+003,4.661982e-003
1.554370e+003,4.682151e-003
1.556298e+003,4.715571e-003
1.558227e+003,5.041266e-003
1.560155e+003,4.763064e-003
1.562084e+003,4.291193e-003
1.564012e+003,4.144328e-003
1.565941e+003,4.081299e-003
1.567869e+003,4.138714e-003
1.569798e+003,4.160963e-003
1.571726e+003,3.969201e-003
1.573655e+003,3.914363e-003
1.575583e+003,4.114090e-003
1.577512e+003,4.043616e-003
1.579440e+003,3.800909e-003
1.581369e+003,3.753407e-003
1.583297e+003,3.766840e-003
1.585226e+003,3.775541e-003
1.587154e+003,3.796289e-003
1.589083e+003,3.822642e-003
1.591011e+003,3.874785e-003
1.592940e+003,3.946210e-003
1.594868e+003,3.972802e-003
1.596797e+003,3.945444e-003
1.598725e+003,3.956071e-003
1.600654e+003,4.009016e-003
1.602582e+003,4.114651e-003
1.604511e+003,4.144005e-003
1.606439e+003,4.219033e-003
1.608368e+003,4.320586e-003
1.610296e+003,4.318296e-003
1.612225e+003,4.336408e-003
1.614153e+003,4.438489e-003
1.616082e+003,4.641072e-003
1.618010e+003,4.758239e-003
1.619939e+003,4.745637e-003
1.621867e+003,4.919446e-003
1.623796e+003,5.142277e-003
1.625724e+003,5.124521e-003
1.627653e+003,5.186723e-003
1.629581e+003,5.217528e-003
1.631510e+003,5.206144e-003
1.633438e+003,5.267425e-003
1.635367e+003,5.724054e-003
1.637295e+003,5.941121e-003
1.639224e+003,5.757315e-003
1.641152e+003,5.669164e-003
1.643081e+003,5.768848e-003
1.645009e+003,6.034992e-003
1.646938e+003,6.348339e-003
1.648866e+003,6.204410e-003
1.650795e+003,6.208891e-003
1.652723e+003,6.631797e-003
1.654652e+003,6.556914e-003
1.656580e+003,6.187854e-003
1.658509e+003,5.918900e-003
1.660437e+003,5.821050e-003
1.662366e+003,5.837786e-003
1.664294e+003,5.695029e-003
1.666223e+003,5.551334e-003
1.668151e+003,5.599032e-003
1.670080e+003,5.651138e-003
1.672008e+003,5.430202e-003
1.673937e+003,5.289972e-003
1.675865e+003,5.173853e-003
1.677794e+003,5.034112e-003
1.679722e+003,5.082825e-003
1.681651e+003,5.122853e-003
1.683579e+003,5.193469e-003
1.685508e+003,5.030940e-003
1.687436e+003,5.014812e-003
1.689365e+003,4.932946e-003
1.691293e+003,4.732437e-003
1.693222e+003,4.569475e-003
1.695150e+003,4.757833e-003
1.697079e+003,4.947027e-003
1.699007e+003,4.953747e-003
1.700936e+003,4.810003e-003
1.702864e+003,4.605312e-003
1.704793e+003,4.607055e-003
1.706721e+003,4.520391e-003
1.708650e+003,4.436574e-003
1.710578e+003,4.389370e-003
1.712507e+003,4.424386e-003
1.714435e+003,4.756738e-003
1.716364e+003,5.210572e-003
1.718292e+003,5.419679e-003
1.720221e+003,5.311862e-003
1.722149e+003,5.466089e-003
1.724078e+003,5.864886e-003
1.726006e+003,6.273983e-003
1.727935e+003,6.849203e-003
1.729863e+003,7.817498e-003
1.731792e+003,8.718031e-003
1.733720e+003,1.024039e-002
1.735649e+003,1.181230e-002
1.737577e+003,1.283659e-002
1.739506e+003,1.488316e-002
1.741434e+003,1.678998e-002
1.743363e+003,1.829838e-002
1.745291e+003,1.928401e-002
1.747220e+003,1.955533e-002
1.749148e+003,1.861555e-002
1.751077e+003,1.633355e-002
1.753005e+003,1.348553e-002
1.754934e+003,1.125767e-002
1.756862e+003,8.645111e-003
1.758791e+003,6.582794e-003
1.760719e+003,5.269868e-003
1.762648e+003,3.949674e-003
1.764576e+003,3.146748e-003
1.766505e+003,2.724566e-003
1.768433e+003,2.401139e-003
1.770362e+003,2.298743e-003
1.772290e+003,2.211408e-003
1.774219e+003,1.819937e-003
1.776147e+003,1.606180e-003
1.778076e+003,1.563814e-003
1.780004e+003,1.627396e-003
1.781933e+003,1.571973e-003
1.783861e+003,1.511349e-003
1.785790e+003,1.370976e-003
1.787718e+003,1.291215e-003
1.789646e+003,1.330854e-003
1.791575e+003,1.417056e-003
1.793504e+003,1.206413e-003
1.795432e+003,1.143261e-003
1.797361e+003,1.149191e-003
1.799289e+003,1.179227e-003
1.801218e+003,1.119952e-003
1.803146e+003,9.439110e-004
1.805074e+003,7.660880e-004
1.807003e+003,7.136140e-004
1.808932e+003,6.192492e-004
1.810860e+003,5.213944e-004
1.812789e+003,3.221342e-004
1.814717e+003,7.830095e-006
1.816646e+003,-2.230005e-004
1.818574e+003,1.405654e-004
1.820502e+003,3.570202e-004
1.822431e+003,4.452453e-004
1.824360e+003,4.434711e-004
1.826288e+003,4.038017e-004
1.828217e+003,4.179825e-004
1.830145e+003,3.994098e-004
1.832073e+003,2.634292e-004
1.834002e+003,2.647000e-004
1.835931e+003,2.664425e-004
1.837859e+003,2.945876e-004
1.839788e+003,1.944485e-004
1.841716e+003,1.053875e-004
1.843645e+003,6.559072e-005
1.845573e+003,2.423013e-004
1.847501e+003,1.189834e-004
1.849430e+003,2.832338e-005
1.851359e+003,5.417317e-005
1.853287e+003,8.364208e-006
1.855216e+003,-1.369412e-004
1.857144e+003,-1.071314e-004
1.859073e+003,-1.886855e-004
1.861001e+003,-7.140636e-005
1.862929e+003,-4.270533e-005
1.864858e+003,-2.538972e-005
1.866787e+003,2.282672e-005
1.868715e+003,1.234747e-004
1.870644e+003,-9.935396e-005
1.872572e+003,-2.945294e-004
1.874500e+003,-4.505054e-004
1.876429e+003,-3.973846e-004
1.878357e+003,-3.026519e-004
1.880286e+003,-2.708416e-004
1.882215e+003,-5.202750e-004
1.884143e+003,-3.561238e-004
1.886072e+003,-2.766671e-004
1.888000e+003,-1.994185e-004
1.889928e+003,-3.026137e-004
1.891857e+003,-3.432175e-004
1.893785e+003,-4.216451e-004
1.895714e+003,-4.994264e-004
1.897643e+003,-6.752047e-004
1.899571e+003,-6.667981e-004
1.901500e+003,-6.576953e-004
1.903428e+003,-6.485977e-004
1.905356e+003,-6.395024e-004
1.907285e+003,-6.304113e-004
1.909213e+003,-6.213239e-004
1.911142e+003,-6.122398e-004
1.913071e+003,-6.031590e-004
1.914999e+003,-5.940828e-004
1.916927e+003,-5.850093e-004
1.918856e+003,-5.759401e-004
1.920784e+003,-5.668737e-004
1.922713e+003,-5.578119e-004
1.924641e+003,-5.487530e-004
1.926570e+003,-5.396982e-004
1.928499e+003,-5.306476e-004
1.930427e+003,-5.215988e-004
1.932355e+003,-5.125552e-004
1.934284e+003,-5.035154e-004
1.936212e+003,-4.944778e-004
1.938141e+003,-4.854444e-004
1.940070e+003,-4.764143e-004
1.941998e+003,-4.673889e-004
1.943927e+003,-4.583662e-004
1.945855e+003,-4.493473e-004
1.947783e+003,-4.403326e-004
1.949712e+003,-4.313206e-004
1.951640e+003,-4.223124e-004
1.953569e+003,-4.133084e-004
1.955498e+003,-4.043076e-004
1.957426e+003,-3.953101e-004
1.959354e+003,-3.863168e-004
1.961283e+003,-3.773267e-004
1.963211e+003,-3.683409e-004
1.965140e+003,-3.593573e-004
1.967068e+003,-3.503789e-004
1.968997e+003,-3.414033e-004
1.970926e+003,-3.324314e-004
1.972854e+003,-3.234637e-004
1.974782e+003,-3.144988e-004
1.976711e+003,-3.055381e-004
1.978639e+003,-2.965801e-004
1.980568e+003,-2.876278e-004
1.982496e+003,-2.786769e-004
1.984425e+003,-2.697306e-004
1.986354e+003,-2.607871e-004
1.988282e+003,-2.518492e-004
1.990210e+003,-2.429136e-004
1.992139e+003,-2.339813e-004
1.994067e+003,-2.250532e-004
1.995996e+003,-2.161278e-004
1.997924e+003,-2.072067e-004
1.999853e+003,-1.982898e-004
2.001781e+003,-1.893751e-004
2.003710e+003,-1.804642e-004
2.005638e+003,-1.715585e-004
2.007567e+003,-1.626555e-004
2.009495e+003,-1.537558e-004
2.011424e+003,-1.448602e-004
2.013352e+003,-1.359675e-004
2.015281e+003,-1.270794e-004
2.017209e+003,-1.181937e-004
2.019138e+003,-1.093126e-004
2.021066e+003,-1.004348e-004
2.022995e+003,-9.156018e-005
2.024923e+003,-8.269027e-005
2.026852e+003,-7.382315e-005
2.028781e+003,-6.496115e-005
2.030709e+003,-5.610054e-005
2.032637e+003,-4.724506e-005
2.034566e+003,-3.839191e-005
2.036494e+003,-2.954388e-005
2.038423e+003,-2.069958e-005
2.040351e+003,-1.185760e-005
2.042280e+003,-3.019813e-006
2.044208e+003,5.814247e-006
2.046137e+003,1.464598e-005
2.048065e+003,2.347305e-005
2.049994e+003,3.229594e-005
2.051922e+003,4.111603e-005
2.053851e+003,4.993239e-005
2.055779e+003,5.874410e-005
2.057708e+003,6.755348e-005
2.059636e+003,7.635914e-005
2.061565e+003,8.516060e-005
2.063493e+003,9.395927e-005
2.065422e+003,1.027538e-004
2.067350e+003,1.115440e-004
2.069279e+003,1.203315e-004
2.071207e+003,1.291158e-004
2.073136e+003,1.378953e-004
2.075064e+003,1.466712e-004
2.076993e+003,1.554433e-004
2.078921e+003,1.642145e-004
2.080850e+003,1.729792e-004
2.082778e+003,1.817411e-004
2.084707e+003,1.904992e-004
2.086635e+003,1.992541e-004
2.088564e+003,2.080048e-004
2.090492e+003,2.167523e-004
2.092421e+003,2.254965e-004
2.094349e+003,2.342365e-004
2.096278e+003,2.429727e-004
2.098206e+003,2.517053e-004
2.100135e+003,2.604355e-004
2.102063e+003,2.691606e-004
2.103992e+003,2.778834e-004
2.105920e+003,2.866019e-004
2.107849e+003,2.953168e-004
2.109777e+003,3.040284e-004
2.111706e+003,3.127363e-004
2.113634e+003,3.214395e-004
2.115563e+003,3.301399e-004
2.117491e+003,3.388375e-004
2.119420e+003,3.475295e-004
2.121348e+003,3.562197e-004
2.123277e+003,3.649062e-004
2.125205e+003,3.735884e-004
2.127134e+003,3.822669e-004
2.129062e+003,3.909413e-004
2.130991e+003,3.996133e-004
2.132919e+003,4.082797e-004
2.134848e+003,4.169457e-004
2.136776e+003,4.256060e-004
2.138705e+003,4.342631e-004
2.140633e+003,4.429156e-004
2.142562e+003,4.515657e-004
2.144490e+003,4.602117e-004
2.146419e+003,4.688539e-004
2.148347e+003,4.774937e-004
2.150276e+003,4.861290e-004
2.152204e+003,4.947595e-004
2.154133e+003,5.033882e-004
2.156061e+003,5.120127e-004
2.157990e+003,5.206335e-004
2.159918e+003,5.292511e-004
2.161847e+003,5.378649e-004
2.163775e+003,5.464745e-004
2.165704e+003,5.550808e-004
2.167632e+003,5.636839e-004
2.169561e+003,5.722828e-004
2.171489e+003,5.808785e-004
2.173418e+003,5.894704e-004
2.175346e+003,5.980586e-004
2.177275e+003,6.066430e-004
2.179203e+003,6.152242e-004
2.181132e+003,6.238003e-004
2.183060e+003,6.323750e-004
2.184989e+003,6.409446e-004
2.186917e+003,6.495118e-004
2.188846e+003,6.580739e-004
2.190774e+003,6.666346e-004
2.192703e+003,6.751893e-004
2.194631e+003,6.837416e-004
2.196560e+003,6.922893e-004
2.198488e+003,7.008342e-004
2.200417e+003,7.093763e-004
2.202345e+003,7.179133e-004
2.204274e+003,7.264474e-004
2.206202e+003,7.349774e-004
2.208131e+003,7.435037e-004
2.210059e+003,7.520271e-004
2.211988e+003,7.605469e-004
2.213916e+003,7.690638e-004
2.215845e+003,7.775757e-004
2.217773e+003,7.860838e-004
2.219702e+003,7.945895e-004
2.221630e+003,8.030902e-004
2.223559e+003,8.115880e-004
2.225487e+003,8.200826e-004
2.227416e+003,8.285730e-004
2.229344e+003,8.370597e-004
2.231273e+003,8.455431e-004
2.233201e+003,8.540223e-004
2.235130e+003,8.624988e-004
2.237058e+003,8.709710e-004
2.238987e+003,8.794400e-004
2.240915e+003,8.879048e-004
2.242844e+003,8.963672e-004
2.244772e+003,9.048246e-004
2.246701e+003,9.132787e-004
2.248629e+003,9.217290e-004
2.250558e+003,9.301766e-004
2.252486e+003,9.386195e-004
2.254415e+003,9.470601e-004
2.256343e+003,9.554969e-004
2.258272e+003,9.639286e-004
2.260200e+003,9.723580e-004
2.262129e+003,9.807833e-004
2.264057e+003,9.892061e-004
2.265986e+003,9.976239e-004
2.267914e+003,1.006038e-003
2.269843e+003,1.014450e-003
2.271771e+003,1.022857e-003
2.273700e+003,1.031260e-003
2.275628e+003,1.039661e-003
2.277557e+003,1.048057e-003
2.279485e+003,1.056449e-003
2.281414e+003,1.064839e-003
2.283342e+003,1.073225e-003
2.285271e+003,1.081605e-003
2.287199e+003,1.089985e-003
2.289128e+003,1.098359e-003
2.291056e+003,1.106731e-003
2.292985e+003,1.115098e-003
2.294913e+003,1.123463e-003
2.296842e+003,1.131822e-003
2.298770e+003,1.140178e-003
2.300699e+003,1.148532e-003
2.302627e+003,1.156881e-003
2.304556e+003,1.165227e-003
2.306484e+003,1.173568e-003
2.308413e+003,1.181908e-003
2.310341e+003,1.190243e-003
2.312270e+003,1.198574e-003
2.314198e+003,1.206901e-003
2.316127e+003,1.215227e-003
2.318055e+003,1.223547e-003
2.319984e+003,1.231864e-003
2.321912e+003,1.240177e-003
2.323841e+003,1.248486e-003
2.325769e+003,1.256793e-003
2.327698e+003,1.265095e-003
2.329626e+003,1.273394e-003
2.331555e+003,1.281689e-003
2.333483e+003,1.289980e-003
2.335412e+003,1.298269e-003
2.337340e+003,1.306552e-003
2.339269e+003,1.314834e-003
2.341197e+003,1.323109e-003
2.343126e+003,1.331385e-003
2.345054e+003,1.339653e-003
2.346983e+003,1.347921e-003
2.348911e+003,1.356182e-003
2.350840e+003,1.364441e-003
2.352768e+003,1.372696e-003
2.354697e+003,1.380948e-003
2.356625e+003,1.389197e-003
2.358554e+003,1.397441e-003
2.360482e+003,1.405681e-003
2.362411e+003,1.413919e-003
2.364339e+003,1.422153e-003
2.366268e+003,1.430382e-003
2.368196e+003,1.438609e-003
2.370125e+003,1.446832e-003
2.372053e+003,1.455051e-003
2.373982e+003,1.463267e-003
2.375910e+003,1.471478e-003
2.377839e+003,1.479687e-003
2.379767e+003,1.487891e-003
2.381696e+003,1.496093e-003
2.383624e+003,1.504290e-003
2.385553e+003,1.512484e-003
2.387481e+003,1.520674e-003
2.389410e+003,1.528860e-003
2.391338e+003,1.537044e-003
2.393267e+003,1.545222e-003
2.395195e+003,1.553399e-003
2.397124e+003,1.561570e-003
2.399052e+003,1.569740e-003
2.400981e+003,1.511931e-003
2.402909e+003,1.463604e-003
2.404838e+003,1.570364e-003
2.406766e+003,1.805417e-003
2.408695e+003,2.104420e-003
2.410623e+003,2.156652e-003
2.412552e+003,2.093289e-003
2.414480e+003,1.962870e-003
2.416409e+003,1.859013e-003
2.418337e+003,1.887721e-003
2.420266e+003,2.042854e-003
2.422194e+003,2.206071e-003
2.424123e+003,2.249967e-003
2.426051e+003,2.140561e-003
2.427979e+003,2.109593e-003
2.429908e+003,2.134329e-003
2.431837e+003,2.263900e-003
2.433765e+003,2.320639e-003
2.435694e+003,2.264604e-003
2.437622e+003,2.188861e-003
2.439551e+003,2.370737e-003
2.441479e+003,2.381722e-003
2.443407e+003,2.430185e-003
2.445336e+003,2.564290e-003
2.447265e+003,2.586803e-003
2.449193e+003,2.447855e-003
2.451122e+003,2.525259e-003
2.453050e+003,2.665408e-003
2.454979e+003,2.687458e-003
2.456907e+003,2.579376e-003
2.458836e+003,2.500317e-003
2.460764e+003,2.482159e-003
2.462693e+003,2.457383e-003
2.464621e+003,2.273258e-003
2.466550e+003,2.188404e-003
2.468478e+003,2.199043e-003
2.470406e+003,2.106247e-003
2.472335e+003,1.937509e-003
2.474264e+003,1.961564e-003
2.476192e+003,2.145074e-003
2.478121e+003,2.295713e-003
2.480049e+003,2.358921e-003
2.481978e+003,2.395866e-003
2.483906e+003,2.392720e-003
2.485835e+003,2.476290e-003
2.487763e+003,2.408203e-003
2.489692e+003,2.409869e-003
2.491620e+003,2.511528e-003
2.493549e+003,2.509142e-003
2.495477e+003,2.383056e-003
2.497406e+003,2.269624e-003
2.499334e+003,2.337065e-003
2.501263e+003,2.497640e-003
2.503191e+003,2.471324e-003
2.505120e+003,2.489484e-003
2.507048e+003,2.381170e-003
2.508977e+003,2.391489e-003
2.510905e+003,2.489413e-003
2.512833e+003,2.571656e-003
2.514762e+003,2.687031e-003
2.516691e+003,2.804078e-003
2.518619e+003,2.769679e-003
2.520548e+003,2.827171e-003
2.522476e+003,2.872427e-003
2.524405e+003,2.904668e-003
2.526333e+003,2.981201e-003
2.528261e+003,3.255725e-003
2.530190e+003,3.404205e-003
2.532119e+003,3.326776e-003
2.534047e+003,3.391887e-003
2.535976e+003,3.574273e-003
2.537904e+003,3.503283e-003
2.539833e+003,3.581142e-003
2.541761e+003,3.635282e-003
2.543689e+003,3.610988e-003
2.545618e+003,3.642438e-003
2.547547e+003,3.928088e-003
2.549475e+003,4.185768e-003
2.551404e+003,4.241128e-003
2.553332e+003,4.438751e-003
2.555260e+003,4.556581e-003
2.557189e+003,4.469475e-003
2.559117e+003,4.532699e-003
2.561046e+003,4.646945e-003
2.562975e+003,4.843759e-003
2.564903e+003,5.102855e-003
2.566832e+003,5.313936e-003
2.568760e+003,5.387522e-003
2.570688e+003,5.477441e-003
2.572617e+003,5.670417e-003
2.574546e+003,6.007945e-003
2.576474e+003,6.374706e-003
2.578403e+003,6.642786e-003
2.580331e+003,6.817617e-003
2.582260e+003,6.861079e-003
2.584188e+003,6.814262e-003
2.586116e+003,6.587374e-003
2.588045e+003,6.459683e-003
2.589974e+003,6.444831e-003
2.591902e+003,6.346761e-003
2.593831e+003,6.235065e-003
2.595759e+003,6.276478e-003
2.597688e+003,6.332976e-003
2.599616e+003,6.369336e-003
2.601544e+003,6.523487e-003
2.603473e+003,6.805049e-003
2.605402e+003,6.956413e-003
2.607330e+003,7.128378e-003
2.609259e+003,7.427180e-003
2.611187e+003,7.663778e-003
2.613115e+003,7.887253e-003
2.615044e+003,7.951320e-003
2.616972e+003,7.975673e-003
2.618901e+003,8.087766e-003
2.620830e+003,8.182042e-003
2.622758e+003,8.212918e-003
2.624687e+003,8.298181e-003
2.626615e+003,8.392350e-003
2.628543e+003,8.383244e-003
2.630472e+003,8.320674e-003
2.632400e+003,8.320630e-003
2.634329e+003,8.359154e-003
2.636258e+003,8.456429e-003
2.638186e+003,8.613121e-003
2.640115e+003,8.829908e-003
2.642043e+003,9.033631e-003
2.643971e+003,9.139294e-003
2.645900e+003,9.213426e-003
2.647828e+003,9.332616e-003
2.649757e+003,9.470162e-003
2.651686e+003,9.642390e-003
2.653614e+003,9.824555e-003
2.655542e+003,9.951483e-003
2.657471e+003,9.987671e-003
2.659399e+003,9.920827e-003
2.661328e+003,9.719672e-003
2.663256e+003,9.398559e-003
2.665185e+003,9.118502e-003
2.667114e+003,8.978231e-003
2.669042e+003,8.902170e-003
2.670970e+003,8.940998e-003
2.672899e+003,9.088241e-003
2.674827e+003,9.138673e-003
2.676756e+003,9.115767e-003
2.678685e+003,9.127358e-003
2.680613e+003,9.160279e-003
2.682542e+003,9.133375e-003
2.684470e+003,9.091110e-003
2.686398e+003,9.139700e-003
2.688327e+003,9.179343e-003
2.690255e+003,9.178801e-003
2.692184e+003,9.180026e-003
2.694113e+003,9.193384e-003
2.696041e+003,9.266366e-003
2.697969e+003,9.369944e-003
2.699898e+003,9.529892e-003
2.701826e+003,9.720358e-003
2.703755e+003,9.929137e-003
2.705683e+003,1.024731e-002
2.707612e+003,1.055800e-002
2.709541e+003,1.093073e-002
2.711469e+003,1.137765e-002
2.713397e+003,1.197673e-002
2.715326e+003,1.268672e-002
2.717254e+003,1.343139e-002
2.719183e+003,1.414668e-002
2.721111e+003,1.467894e-002
2.723040e+003,1.468442e-002
2.724969e+003,1.423093e-002
2.726897e+003,1.359794e-002
2.728825e+003,1.295240e-002
2.730754e+003,1.246405e-002
2.732682e+003,1.213865e-002
2.734611e+003,1.184502e-002
2.736539e+003,1.150124e-002
2.738468e+003,1.113905e-002
2.740396e+003,1.084767e-002
2.742325e+003,1.064523e-002
2.744253e+003,1.051846e-002
2.746182e+003,1.045020e-002
2.748110e+003,1.045944e-002
2.750039e+003,1.043353e-002
2.751967e+003,1.043634e-002
2.753896e+003,1.052220e-002
2.755824e+003,1.066468e-002
2.757753e+003,1.085478e-002
2.759681e+003,1.106998e-002
2.761610e+003,1.126918e-002
2.763538e+003,1.152832e-002
2.765467e+003,1.175442e-002
2.767395e+003,1.189784e-002
2.769324e+003,1.208903e-002
2.771252e+003,1.240251e-002
2.773181e+003,1.276359e-002
2.775109e+003,1.311419e-002
2.777038e+003,1.344724e-002
2.778966e+003,1.383464e-002
2.780895e+003,1.440260e-002
2.782823e+003,1.509207e-002
2.784752e+003,1.584476e-002
2.786680e+003,1.673515e-002
2.788609e+003,1.765745e-002
2.790537e+003,1.860182e-002
2.792466e+003,1.953717e-002
2.794394e+003,2.023428e-002
2.796323e+003,2.078282e-002
2.798251e+003,2.143142e-002
2.800180e+003,2.231441e-002
2.802108e+003,2.360555e-002
2.804037e+003,2.520565e-002
2.805965e+003,2.691792e-002
2.807894e+003,2.848256e-002
2.809822e+003,2.991783e-002
2.811751e+003,3.132952e-002
2.813679e+003,3.285946e-002
2.815608e+003,3.467403e-002
2.817536e+003,3.692904e-002
2.819465e+003,3.970623e-002
2.821393e+003,4.319383e-002
2.823322e+003,4.771032e-002
2.825250e+003,5.369468e-002
2.827179e+003,6.220736e-002
2.829107e+003,7.477040e-002
2.831036e+003,9.295977e-002
2.832964e+003,1.166565e-001
2.834893e+003,1.411507e-001
2.836821e+003,1.576007e-001
2.838750e+003,1.599092e-001
2.840678e+003,1.490948e-001
2.842607e+003,1.310094e-001
2.844535e+003,1.125333e-001
2.846464e+003,9.799885e-002
2.848392e+003,8.830615e-002
2.850321e+003,8.245804e-002
2.852249e+003,7.954201e-002
2.854178e+003,7.943782e-002
2.856106e+003,8.278298e-002
2.858035e+003,9.108138e-002
2.859963e+003,1.063952e-001
2.861892e+003,1.284432e-001
2.863820e+003,1.500863e-001
2.865749e+003,1.609971e-001
2.867677e+003,1.594488e-001
2.869606e+003,1.525706e-001
2.871534e+003,1.468048e-001
2.873463e+003,1.448508e-001
2.875391e+003,1.465437e-001
2.877320e+003,1.481213e-001
2.879248e+003,1.464435e-001
2.881177e+003,1.427339e-001
2.883105e+003,1.393140e-001
2.885034e+003,1.370746e-001
2.886962e+003,1.361729e-001
2.888891e+003,1.365530e-001
2.890819e+003,1.388056e-001
2.892748e+003,1.437996e-001
2.894676e+003,1.522495e-001
2.896605e+003,1.641444e-001
2.898533e+003,1.788179e-001
2.900462e+003,1.951738e-001
2.902390e+003,2.122781e-001
2.904319e+003,2.288754e-001
2.906247e+003,2.433806e-001
2.908176e+003,2.561440e-001
2.910104e+003,2.708892e-001
2.912033e+003,2.917719e-001
2.913961e+003,3.166600e-001
2.915890e+003,3.341706e-001
2.917818e+003,3.327913e-001
2.919747e+003,3.146193e-001
2.921675e+003,2.910687e-001
2.923604e+003,2.684099e-001
2.925532e+003,2.454282e-001
2.927461e+003,2.197436e-001
2.929389e+003,1.925586e-001
2.931318e+003,1.674788e-001
2.933246e+003,1.475250e-001
2.935175e+003,1.341037e-001
2.937103e+003,1.280671e-001
2.939032e+003,1.306770e-001
2.940960e+003,1.439009e-001
2.942889e+003,1.688145e-001
2.944817e+003,2.029260e-001
2.946746e+003,2.376139e-001
2.948674e+003,2.592810e-001
2.950603e+003,2.576773e-001
2.952531e+003,2.377236e-001
2.954460e+003,2.158739e-001
2.956388e+003,2.042385e-001
2.958317e+003,2.020817e-001
2.960245e+003,1.988242e-001
2.962174e+003,1.840302e-001
2.964102e+003,1.592489e-001
2.966031e+003,1.330128e-001
2.967959e+003,1.091344e-001
2.969888e+003,8.794429e-002
2.971816e+003,6.982632e-002
2.973745e+003,5.508232e-002
2.975673e+003,4.348360e-002
2.977602e+003,3.450261e-002
2.979530e+003,2.759866e-002
2.981459e+003,2.237820e-002
2.983387e+003,1.837686e-002
2.985316e+003,1.512452e-002
2.987244e+003,1.257333e-002
2.989173e+003,1.063279e-002
2.991101e+003,9.086248e-003
2.993030e+003,7.869873e-003
2.994958e+003,6.989411e-003
2.996887e+003,6.305472e-003
2.998815e+003,5.780977e-003
3.000744e+003,5.363818e-003
3.002672e+003,4.994622e-003
3.004601e+003,4.625543e-003
3.006529e+003,4.237937e-003
3.008458e+003,3.800329e-003
3.010386e+003,3.399618e-003
3.012315e+003,2.953735e-003
3.014243e+003,2.468890e-003
3.016172e+003,2.039531e-003
3.018100e+003,1.676039e-003
3.020029e+003,1.365765e-003
3.021957e+003,1.084107e-003
3.023886e+003,9.459350e-004
3.025814e+003,8.860556e-004
3.027743e+003,6.967802e-004
3.029671e+003,5.844329e-004
3.031600e+003,4.397342e-004
3.033528e+003,3.716946e-004
3.035457e+003,4.048152e-004
3.037385e+003,3.646333e-004
3.039314e+003,3.524879e-004
3.041242e+003,3.198162e-004
3.043171e+003,3.000097e-004
3.045099e+003,3.652098e-004
3.047028e+003,3.146259e-004
3.048956e+003,3.111064e-004
3.050885e+003,3.977995e-004
3.052813e+003,4.934371e-004
3.054742e+003,4.791552e-004
3.056670e+003,5.196510e-004
3.058599e+003,5.159182e-004
3.060527e+003,4.420048e-004
3.062456e+003,4.246049e-004
3.064384e+003,4.584929e-004
3.066313e+003,4.690131e-004
3.068241e+003,3.914302e-004
3.070170e+003,3.631273e-004
3.072098e+003,4.035039e-004
3.074027e+003,3.927574e-004
3.075955e+003,4.883399e-004
3.077884e+003,4.875436e-004
3.079812e+003,4.406441e-004
3.081741e+003,3.969260e-004
3.083669e+003,4.350049e-004
3.085598e+003,5.145436e-004
3.087526e+003,4.842775e-004
3.089455e+003,4.648436e-004
3.091383e+003,5.665021e-004
3.093312e+003,5.373107e-004
3.095240e+003,6.280346e-004
3.097169e+003,7.619765e-004
3.099097e+003,7.658703e-004
3.101026e+003,7.461952e-004
3.102954e+003,7.193414e-004
3.104883e+003,7.172748e-004
3.106811e+003,7.869555e-004
3.108740e+003,8.430183e-004
3.110668e+003,9.446926e-004
3.112597e+003,9.030988e-004
3.114525e+003,8.774335e-004
3.116454e+003,9.748964e-004
3.118382e+003,1.064371e-003
3.120311e+003,1.050446e-003
3.122239e+003,1.084889e-003
3.124168e+003,1.224973e-003
3.126096e+003,1.337658e-003
3.128025e+003,1.313336e-003
3.129953e+003,1.313292e-003
3.131882e+003,1.442210e-003
3.133810e+003,1.588625e-003
3.135739e+003,1.502531e-003
3.137667e+003,1.526439e-003
3.139596e+003,1.586234e-003
3.141524e+003,1.642687e-003
3.143453e+003,1.700758e-003
3.145381e+003,1.714675e-003
3.147310e+003,1.746217e-003
3.149238e+003,1.780075e-003
3.151167e+003,1.886081e-003
3.153095e+003,1.981941e-003
3.155024e+003,1.910535e-003
3.156952e+003,1.774695e-003
3.158881e+003,1.720026e-003
3.160809e+003,1.818375e-003
3.162738e+003,1.886430e-003
3.164666e+003,1.835458e-003
3.166594e+003,1.859175e-003
3.168523e+003,1.889073e-003
3.170452e+003,1.907727e-003
3.172380e+003,2.079234e-003
3.174309e+003,2.242288e-003
3.176237e+003,2.217236e-003
3.178166e+003,2.223445e-003
3.180094e+003,2.269771e-003
3.182022e+003,2.233770e-003
3.183951e+003,2.284551e-003
3.185880e+003,2.338115e-003
3.187808e+003,2.430907e-003
3.189737e+003,2.575931e-003
3.191665e+003,2.604419e-003
3.193594e+003,2.453347e-003
3.195522e+003,2.367465e-003
3.197450e+003,2.478848e-003
3.199379e+003,2.692718e-003
3.201308e+003,2.644653e-003
3.203236e+003,2.527932e-003
3.205165e+003,2.513806e-003
3.207093e+003,2.496274e-003
3.209021e+003,2.553982e-003
3.210950e+003,2.550613e-003
3.212878e+003,2.407848e-003
3.214807e+003,2.268731e-003
3.216736e+003,2.164627e-003
3.218664e+003,2.139472e-003
3.220593e+003,2.100814e-003
3.222521e+003,2.025915e-003
3.224449e+003,2.023765e-003
3.226378e+003,1.983889e-003
3.228307e+003,1.952888e-003
3.230235e+003,1.941204e-003
3.232164e+003,1.914707e-003
3.234092e+003,1.940139e-003
3.236021e+003,1.850626e-003
3.237949e+003,1.857699e-003
3.239877e+003,1.929527e-003
3.241806e+003,1.995248e-003
3.243735e+003,2.019707e-003
3.245663e+003,1.978992e-003
3.247592e+003,1.917798e-003
3.249520e+003,1.925650e-003
3.251448e+003,1.999026e-003
3.253377e+003,2.117163e-003
3.255305e+003,2.162969e-003
3.257234e+003,2.191556e-003
3.259163e+003,2.133982e-003
3.261091e+003,2.213155e-003
3.263020e+003,2.231809e-003
3.264948e+003,2.298115e-003
3.266876e+003,2.488778e-003
3.268805e+003,2.561560e-003
3.270733e+003,2.506207e-003
3.272662e+003,2.601820e-003
3.274591e+003,2.679851e-003
3.276519e+003,2.713713e-003
3.278448e+003,2.677621e-003
3.280376e+003,2.614575e-003
3.282304e+003,2.623785e-003
3.284233e+003,2.628021e-003
3.286161e+003,2.599025e-003
3.288090e+003,2.618402e-003
3.290019e+003,2.754747e-003
3.291947e+003,2.778784e-003
3.293875e+003,2.658842e-003
3.295804e+003,2.611613e-003
3.297732e+003,2.569539e-003
3.299661e+003,2.677844e-003
3.301589e+003,2.740593e-003
3.303518e+003,2.768475e-003
3.305447e+003,2.659721e-003
3.307375e+003,2.622202e-003
3.309303e+003,2.701171e-003
3.311232e+003,2.703651e-003
3.313160e+003,2.657887e-003
3.315089e+003,2.653340e-003
3.317018e+003,2.577874e-003
3.318946e+003,2.519147e-003
3.320875e+003,2.560114e-003
3.322803e+003,2.636033e-003
3.324731e+003,2.591350e-003
3.326660e+003,2.509021e-003
3.328588e+003,2.466393e-003
3.330517e+003,2.541528e-003
3.332446e+003,2.585573e-003
3.334374e+003,2.659651e-003
3.336302e+003,2.779643e-003
3.338231e+003,2.840716e-003
3.340159e+003,2.850795e-003
3.342088e+003,2.836104e-003
3.344016e+003,2.771706e-003
3.345945e+003,2.728723e-003
3.347874e+003,2.662306e-003
3.349802e+003,2.557963e-003
3.351730e+003,2.490924e-003
3.353659e+003,2.476495e-003
3.355587e+003,2.550903e-003
3.357516e+003,2.567001e-003
3.359444e+003,2.531546e-003
3.361373e+003,2.560149e-003
3.363302e+003,2.491071e-003
3.365230e+003,2.437872e-003
3.367158e+003,2.392591e-003
3.369087e+003,2.392638e-003
3.371015e+003,2.403999e-003
3.372944e+003,2.334835e-003
3.374872e+003,2.236022e-003
3.376801e+003,2.187473e-003
3.378729e+003,2.171905e-003
3.380658e+003,2.151527e-003
3.382586e+003,2.097484e-003
3.384515e+003,2.076029e-003
3.386443e+003,2.030234e-003
3.388372e+003,2.052326e-003
3.390300e+003,2.109380e-003
3.392229e+003,2.121478e-003
3.394157e+003,2.007970e-003
3.396086e+003,2.034661e-003
3.398014e+003,2.015059e-003
3.399943e+003,1.945836e-003
3.401871e+003,1.960422e-003
3.403800e+003,1.995528e-003
3.405728e+003,2.016092e-003
3.407657e+003,2.101190e-003
3.409585e+003,2.025053e-003
3.411514e+003,1.859986e-003
3.413442e+003,1.872515e-003
3.415371e+003,1.926099e-003
3.417299e+003,1.877014e-003
3.419228e+003,1.875374e-003
3.421156e+003,1.888707e-003
3.423085e+003,1.860690e-003
3.425013e+003,1.759914e-003
3.426942e+003,1.717119e-003
3.428870e+003,1.679465e-003
3.430799e+003,1.676095e-003
3.432727e+003,1.652036e-003
3.434656e+003,1.608388e-003
3.436584e+003,1.649185e-003
3.438513e+003,1.670896e-003
3.440441e+003,1.645630e-003
3.442370e+003,1.610697e-003
3.444298e+003,1.543298e-003
3.446227e+003,1.695085e-003
3.448155e+003,1.647505e-003
3.450084e+003,1.524354e-003
3.452012e+003,1.438105e-003
3.453941e+003,1.411325e-003
3.455869e+003,1.337993e-003
3.457798e+003,1.177646e-003
3.459726e+003,1.188119e-003
3.461655e+003,1.249289e-003
3.463583e+003,1.224813e-003
3.465512e+003,1.293933e-003
3.467440e+003,1.350120e-003
3.469369e+003,1.198458e-003
3.471297e+003,1.103518e-003
3.473226e+003,1.162872e-003
3.475154e+003,1.084606e-003
3.477083e+003,9.411629e-004
3.479011e+003,1.017442e-003
3.480940e+003,1.140081e-003
3.482868e+003,1.012909e-003
3.484797e+003,9.719357e-004
3.486725e+003,1.033699e-003
3.488654e+003,1.063161e-003
3.490582e+003,8.964902e-004
3.492511e+003,7.470017e-004
3.494439e+003,7.228777e-004
3.496368e+003,7.648570e-004
3.498296e+003,8.017020e-004
3.500225e+003,8.230377e-004
3.502153e+003,9.402540e-004
3.504082e+003,8.942410e-004
3.506010e+003,7.327208e-004
3.507939e+003,6.618472e-004
3.509867e+003,5.283207e-004
3.511796e+003,4.785098e-004
3.513724e+003,4.900061e-004
3.515653e+003,4.693633e-004
3.517581e+003,4.807431e-004
3.519510e+003,4.210565e-004
3.521438e+003,4.724842e-004
3.523367e+003,5.872399e-004
3.525295e+003,5.924320e-004
3.527224e+003,5.667601e-004
3.529152e+003,3.799498e-004
3.531081e+003,2.047978e-004
3.533009e+003,8.314103e-005
3.534938e+003,-3.492739e-005
3.536866e+003,-2.090167e-005
3.538795e+003,-4.316680e-005
3.540723e+003,-6.743893e-005
3.542652e+003,1.320215e-004
3.544580e+003,3.179666e-004
3.546509e+003,3.208909e-004
3.548437e+003,-5.230308e-006
3.550366e+003,-2.151635e-004
3.552294e+003,-1.759836e-004
3.554223e+003,-3.344640e-004
3.556151e+003,-4.305653e-004
3.558080e+003,-3.740313e-004
3.560008e+003,-4.799766e-004
3.561937e+003,-6.617755e-004
3.563865e+003,-4.707035e-004
3.565794e+003,1.780586e-004
3.567722e+003,2.987897e-004
3.569651e+003,-3.592167e-004
3.571579e+003,-7.796446e-004
3.573508e+003,-8.973666e-004
3.575436e+003,-8.933786e-004
3.577365e+003,-8.474188e-004
3.579293e+003,-8.105878e-004
3.581222e+003,-7.991390e-004
3.583150e+003,-7.764995e-004
3.585079e+003,-4.983814e-004
3.587007e+003,-1.236703e-005
3.588936e+003,-4.174374e-004
3.590864e+003,-7.849634e-004
3.592793e+003,-7.321602e-004
3.594721e+003,-6.604008e-004
3.596650e+003,-5.997960e-004
3.598578e+003,-3.369739e-004
3.600507e+003,-2.937606e-004
3.602435e+003,-3.939094e-004
3.604364e+003,-6.178431e-004
3.606292e+003,-6.332817e-004
3.608221e+003,-2.841596e-004
3.610149e+003,-5.085422e-004
3.612078e+003,-3.588060e-004
3.614006e+003,-1.580445e-004
3.615935e+003,-3.549345e-004
3.617863e+003,-2.029696e-004
3.619792e+003,-7.475261e-005
3.621720e+003,-4.231315e-004
3.623649e+003,-7.128604e-004
3.625577e+003,-9.227907e-004
3.627506e+003,-6.776890e-004
3.629434e+003,-1.819776e-004
3.631363e+003,-3.066938e-004
3.633291e+003,-4.402511e-004
3.635220e+003,-6.034570e-004
3.637148e+003,-5.131606e-004
3.639077e+003,-5.335296e-004
3.641005e+003,-4.561478e-004
3.642934e+003,-6.521670e-004
3.644862e+003,-6.431798e-004
3.646791e+003,-8.299015e-006
3.648719e+003,9.002006e-004
3.650648e+003,5.359547e-004
3.652576e+003,-6.059799e-004
3.654505e+003,-8.312864e-004
3.656433e+003,-9.396588e-004
3.658362e+003,-1.197309e-003
3.660290e+003,-1.238512e-003
3.662219e+003,-1.080626e-003
3.664147e+003,-1.112186e-003
3.666076e+003,-1.190760e-003
3.668004e+003,-8.801380e-004
3.669933e+003,-3.396906e-004
3.671861e+003,-7.138271e-004
3.673790e+003,-6.174399e-004
3.675718e+003,-2.409946e-004
3.677647e+003,-3.967909e-004
3.679575e+003,-5.319379e-004
3.681504e+003,-6.911727e-004
3.683432e+003,-8.275686e-004
3.685361e+003,-9.095976e-004
3.687289e+003,-5.254261e-004
3.689218e+003,1.314348e-004
3.691146e+003,8.879509e-005
3.693075e+003,-3.365874e-004
3.695003e+003,-5.111648e-004
3.696932e+003,-5.531078e-004
3.698860e+003,-6.219624e-004
3.700789e+003,-5.726619e-004
3.702717e+003,-6.736089e-004
3.704646e+003,-6.943038e-004
3.706574e+003,-6.081872e-004
3.708503e+003,-4.858999e-004
3.710431e+003,-5.694386e-005
3.712360e+003,1.871279e-004
3.714288e+003,-2.380284e-004
3.716217e+003,-5.895020e-004
3.718145e+003,-5.476838e-004
3.720074e+003,-3.611660e-004
3.722002e+003,-5.268119e-005
3.723931e+003,-6.304029e-005
3.725859e+003,1.330059e-004
3.727788e+003,-5.647447e-005
3.729716e+003,-2.451492e-004
3.731645e+003,-2.850872e-004
3.733573e+003,4.103910e-004
3.735502e+003,1.334634e-003
3.737430e+003,7.708501e-004
3.739359e+003,2.987739e-004
3.741287e+003,1.134463e-004
3.743216e+003,6.038519e-004
3.745144e+003,1.146662e-003
3.747073e+003,1.085269e-003
3.749001e+003,1.271503e-003
3.750930e+003,2.001037e-003
3.752858e+003,1.097388e-003
3.754787e+003,5.905563e-004
3.756715e+003,6.270753e-004
3.758644e+003,5.601542e-004
3.760572e+003,4.011476e-004
3.762501e+003,3.066976e-004
3.764429e+003,5.545840e-004
3.766358e+003,4.432537e-004
3.768286e+003,5.825283e-004
3.770215e+003,7.834677e-004
3.772143e+003,3.925366e-004
3.774072e+003,-6.012712e-005
3.776000e+003,-2.384465e-004
3.777929e+003,4.124362e-005
3.779857e+003,1.430213e-004
3.781786e+003,2.455898e-005
3.783714e+003,8.835364e-005
3.785643e+003,2.001403e-004
3.787571e+003,7.764436e-005
3.789500e+003,1.222454e-005
3.791428e+003,1.132777e-004
3.793357e+003,-1.229439e-004
3.795285e+003,-1.326734e-004
3.797214e+003,1.881877e-004
3.799142e+003,3.348868e-004
3.801071e+003,6.620232e-004
3.802999e+003,1.373664e-004
3.804927e+003,1.202188e-004
3.806856e+003,6.331224e-004
3.808785e+003,3.054133e-004
3.810713e+003,8.581486e-005
3.812642e+003,4.658476e-006
3.814570e+003,8.433405e-005
3.816499e+003,2.031215e-004
3.818427e+003,4.158374e-004
3.820355e+003,1.200003e-003
3.822284e+003,1.073231e-003
3.824213e+003,5.118493e-004
3.826141e+003,4.127081e-004
3.828070e+003,1.760041e-004
3.829998e+003,1.305044e-004
3.831927e+003,3.471747e-004
3.833855e+003,4.435489e-004
3.835783e+003,5.641151e-004
3.837712e+003,1.002190e-003
3.839641e+003,1.155024e-003
3.841569e+003,7.528150e-004
3.843498e+003,5.938774e-004
3.845426e+003,2.634376e-004
3.847354e+003,5.960464e-005
3.849283e+003,2.264604e-005
3.851211e+003,5.226173e-004
3.853140e+003,1.505774e-003
3.855069e+003,1.303894e-003
3.856997e+003,9.476552e-004
3.858926e+003,5.198037e-004
3.860854e+003,4.867399e-004
3.862782e+003,5.308827e-004
3.864711e+003,7.948596e-004
3.866640e+003,3.374889e-004
3.868568e+003,6.362041e-004
3.870497e+003,1.100040e-003
3.872425e+003,9.736223e-004
3.874354e+003,8.874871e-004
3.876282e+003,5.282881e-004
3.878210e+003,3.546216e-004
3.880139e+003,6.687697e-004
3.882068e+003,5.639251e-004
3.883996e+003,6.420342e-004
3.885925e+003,8.291332e-004
3.887853e+003,4.570587e-004
3.889781e+003,5.742395e-004
3.891710e+003,7.322449e-004
3.893638e+003,5.318131e-004
3.895567e+003,2.962286e-004
3.897496e+003,4.007183e-004
3.899424e+003,6.044507e-004
3.901353e+003,1.005542e-003
3.903281e+003,1.334423e-003
3.905209e+003,1.122291e-003
3.907138e+003,5.253199e-004
3.909066e+003,1.305258e-004
3.910995e+003,3.155600e-005
3.912924e+003,-9.015109e-005
3.914852e+003,1.979927e-004
3.916781e+003,5.081063e-004
3.918709e+003,4.594810e-004
3.920637e+003,4.137736e-004
3.922566e+003,4.658019e-004
3.924494e+003,4.648296e-004
3.926423e+003,2.203276e-004
3.928352e+003,2.348572e-004
3.930280e+003,3.463365e-004
3.932208e+003,5.562156e-004
3.934137e+003,4.473599e-004
3.936065e+003,3.302414e-004
3.937994e+003,2.306281e-004
3.939922e+003,1.294930e-004
3.941851e+003,3.442755e-004
3.943780e+003,3.581196e-004
3.945708e+003,2.077073e-004
3.947636e+003,3.470229e-004
3.949565e+003,2.720375e-004
3.951493e+003,4.132185e-005
3.953422e+003,-7.378403e-005
3.955351e+003,-1.472561e-004
3.957279e+003,-1.414372e-004
3.959208e+003,1.603365e-005
3.961136e+003,1.648124e-004
3.963064e+003,-7.740222e-006
3.964993e+003,-1.813630e-004
3.966921e+003,-1.450460e-004
3.968850e+003,-2.997927e-006
3.970779e+003,-5.727634e-006
3.972707e+003,-1.434144e-005
3.974635e+003,4.394259e-005
3.976564e+003,9.116903e-005
3.978492e+003,7.355213e-005
3.980421e+003,-1.279730e-005
3.982349e+003,-2.595596e-006
3.984278e+003,6.328803e-005
3.986207e+003,1.062965e-004
3.988135e+003,1.110500e-004
3.990063e+003,2.068663e-004
3.991992e+003,2.043145e-004
3.993920e+003,1.828512e-004
3.995849e+003,9.080116e-005
3.997777e+003,-7.640570e-006
3.999706e+003,-9.079184e-005
4.001635e+003,0.000000e+000
