3.991992e+002,0.000000e+000
4.011277e+002,0.000000e+000
4.030562e+002,0.000000e+000
4.049846e+002,0.000000e+000
4.069131e+002,0.000000e+000
4.088416e+002,0.000000e+000
4.107701e+002,0.000000e+000
4.126986e+002,0.000000e+000
4.146271e+002,0.000000e+000
4.165556e+002,0.000000e+000
4.184841e+002,0.000000e+000
4.204126e+002,0.000000e+000
4.223411e+002,0.000000e+000
4.242697e+002,0.000000e+000
4.261982e+002,0.000000e+000
4.281266e+002,0.000000e+000
4.300551e+002,0.000000e+000
4.319836e+002,0.000000e+000
4.339121e+002,0.000000e+000
4.358406e+002,0.000000e+000
4.377691e+002,0.000000e+000
4.396976e+002,0.000000e+000
4.416261e+002,0.000000e+000
4.435546e+002,0.000000e+000
4.454831e+002,0.000000e+000
4.474116e+002,0.000000e+000
4.493401e+002,0.000000e+000
4.512686e+002,0.000000e+000
4.531971e+002,0.000000e+000
4.551256e+002,0.000000e+000
4.570541e+002,0.000000e+000
4.589826e+002,0.000000e+000
4.609111e+002,0.000000e+000
4.628396e+002,0.000000e+000
4.647681e+002,0.000000e+000
4.666966e+002,0.000000e+000
4.686251e+002,0.000000e+000
4.705536e+002,0.000000e+000
4.724821e+002,0.000000e+000
4.744106e+002,0.000000e+000
4.763391e+002,0.000000e+000
4.782676e+002,0.000000e+000
4.801961e+002,0.000000e+000
4.821246e+002,0.000000e+000
4.840531e+002,0.000000e+000
4.859816e+002,0.000000e+000
4.879101e+002,0.000000e+000
4.898386e+002,0.000000e+000
4.917671e+002,0.000000e+000
4.936956e+002,0.000000e+000
4.956241e+002,0.000000e+000
4.975526e+002,0.000000e+000
4.994811e+002,0.000000e+000
5.014096e+002,0.000000e+000
5.033381e+002,0.000000e+000
5.052666e+002,0.000000e+000
5.071951e+002,0.000000e+000
5.091236e+002,0.000000e+000
5.110521e+002,0.000000e+000
5.129806e+002,0.000000e+000
5.149091e+002,0.000000e+000
5.168376e+002,0.000000e+000
5.187661e+002,0.000000e+000
5.206946e+002,0.000000e+000
5.226230e+002,0.000000e+000
5.245516e+002,-1.824419e-004
5.264800e+002,-2.429122e-005
5.284086e+002,4.873285e-005
5.303370e+002,5.329261e-005
5.322656e+002,1.157275e-004
5.341940e+002,1.275740e-004
5.361226e+002,1.483904e-004
5.380510e+002,2.681892e-004
5.399796e+002,2.471237e-004
5.419081e+002,3.302982e-005
5.438365e+002,8.072471e-005
5.457650e+002,-8.522905e-005
5.476935e+002,-2.196124e-004
5.496221e+002,-4.943414e-005
5.515505e+002,2.507167e-005
5.534790e+002,1.463541e-004
5.554075e+002,3.031646e-004
5.573361e+002,1.294836e-004
5.592645e+002,-5.364511e-005
5.611931e+002,-4.479941e-005
5.631215e+002,4.480127e-005
5.650500e+002,-3.150385e-005
5.669785e+002,-9.949785e-005
5.689070e+002,-2.062554e-005
5.708355e+002,1.558056e-004
5.727640e+002,1.149252e-004
5.746925e+002,1.093373e-005
5.766210e+002,-3.412180e-005
5.785495e+002,-1.037102e-004
5.804780e+002,-1.494060e-004
5.824065e+002,-1.808400e-004
5.843350e+002,-2.935887e-004
5.862635e+002,-1.821602e-004
5.881920e+002,-1.379899e-004
5.901205e+002,-1.993687e-004
5.920490e+002,-3.017047e-004
5.939775e+002,-3.228490e-004
5.959060e+002,-1.884848e-004
5.978345e+002,-1.503481e-005
5.997630e+002,-3.119046e-005
6.016915e+002,-3.002444e-005
6.036200e+002,4.790770e-005
6.055485e+002,3.964547e-005
6.074770e+002,-9.265495e-005
6.094055e+002,-1.152493e-004
6.113340e+002,-1.198943e-004
6.132625e+002,-1.345910e-004
6.151910e+002,-8.293940e-005
6.171195e+002,-1.421752e-004
6.190480e+002,-2.038782e-004
6.209765e+002,-2.548797e-005
6.229050e+002,1.014555e-004
6.248335e+002,1.163613e-004
6.267620e+002,8.720998e-005
6.286905e+002,1.556161e-004
6.306190e+002,2.576197e-004
6.325475e+002,3.248216e-004
6.344760e+002,3.331685e-004
6.364045e+002,4.148069e-004
6.383330e+002,4.536472e-004
6.402615e+002,4.976662e-004
6.421899e+002,4.983973e-004
6.441185e+002,5.337275e-004
6.460470e+002,5.142600e-004
6.479755e+002,6.418419e-004
6.499039e+002,6.017359e-004
6.518325e+002,6.157830e-004
6.537610e+002,6.023631e-004
6.556895e+002,6.954749e-004
6.576179e+002,7.452415e-004
6.595464e+002,7.475554e-004
6.614750e+002,7.076012e-004
6.634034e+002,8.756816e-004
6.653319e+002,9.106277e-004
6.672604e+002,9.115031e-004
6.691890e+002,1.095900e-003
6.711174e+002,1.323054e-003
6.730460e+002,1.336323e-003
6.749745e+002,1.355276e-003
6.769030e+002,1.422851e-003
6.788314e+002,1.550653e-003
6.807599e+002,1.593613e-003
6.826885e+002,1.808234e-003
6.846169e+002,1.943739e-003
6.865454e+002,2.202121e-003
6.884739e+002,2.428871e-003
6.904025e+002,2.674292e-003
6.923309e+002,2.935293e-003
6.942594e+002,3.416538e-003
6.961879e+002,3.893636e-003
6.981165e+002,4.637562e-003
7.000449e+002,5.548413e-003
7.019734e+002,6.833175e-003
7.039019e+002,8.321807e-003
7.058304e+002,1.052548e-002
7.077589e+002,1.356509e-002
7.096874e+002,1.812804e-002
7.116159e+002,2.533280e-002
7.135444e+002,3.877864e-002
7.154729e+002,6.301608e-002
7.174014e+002,9.676909e-002
7.193299e+002,1.105793e-001
7.212584e+002,8.231139e-002
7.231869e+002,5.445396e-002
7.251154e+002,4.447952e-002
7.270439e+002,4.853076e-002
7.289724e+002,6.381021e-002
7.309009e+002,6.145232e-002
7.328294e+002,3.511056e-002
7.347579e+002,1.752323e-002
7.366864e+002,1.144993e-002
7.386149e+002,8.956147e-003
7.405434e+002,7.475928e-003
7.424719e+002,6.604565e-003
7.444004e+002,5.901869e-003
7.463289e+002,5.424991e-003
7.482574e+002,4.998769e-003
7.501859e+002,4.769268e-003
7.521144e+002,4.511054e-003
7.540428e+002,4.200243e-003
7.559714e+002,3.863785e-003
7.578999e+002,3.650793e-003
7.598284e+002,3.443547e-003
7.617568e+002,3.260017e-003
7.636854e+002,3.054166e-003
7.656139e+002,2.992377e-003
7.675424e+002,2.954774e-003
7.694709e+002,2.864183e-003
7.713994e+002,2.690352e-003
7.733279e+002,2.574109e-003
7.752563e+002,2.418255e-003
7.771849e+002,2.408027e-003
7.791134e+002,2.437776e-003
7.810419e+002,2.406268e-003
7.829703e+002,2.419189e-003
7.848989e+002,2.382731e-003
7.868274e+002,2.374384e-003
7.887559e+002,2.429739e-003
7.906843e+002,2.454123e-003
7.926129e+002,2.542590e-003
7.945414e+002,2.648827e-003
7.964698e+002,2.667825e-003
7.983983e+002,2.657983e-003
8.003268e+002,2.685201e-003
8.022554e+002,2.702968e-003
8.041838e+002,2.722639e-003
8.061123e+002,2.650380e-003
8.080408e+002,2.568837e-003
8.099694e+002,2.460016e-003
8.118978e+002,2.364656e-003
8.138263e+002,2.293225e-003
8.157548e+002,2.229716e-003
8.176833e+002,2.162892e-003
8.196118e+002,2.090098e-003
8.215403e+002,2.071970e-003
8.234689e+002,1.979147e-003
8.253973e+002,1.855990e-003
8.273258e+002,1.832269e-003
8.292543e+002,1.833336e-003
8.311829e+002,1.734973e-003
8.331113e+002,1.655346e-003
8.350398e+002,1.645503e-003
8.369683e+002,1.621193e-003
8.388969e+002,1.652009e-003
8.408253e+002,1.703926e-003
8.427538e+002,1.695556e-003
8.446823e+002,1.649336e-003
8.466108e+002,1.653631e-003
8.485393e+002,1.706487e-003
8.504678e+002,1.744501e-003
8.523963e+002,1.729550e-003
8.543248e+002,1.733835e-003
8.562533e+002,1.738268e-003
8.581818e+002,1.689254e-003
8.601103e+002,1.675945e-003
8.620388e+002,1.662731e-003
8.639673e+002,1.757796e-003
8.658958e+002,1.810880e-003
8.678243e+002,1.836963e-003
8.697528e+002,1.762349e-003
8.716813e+002,1.734621e-003
8.736098e+002,1.779876e-003
8.755383e+002,1.848031e-003
8.774668e+002,1.862295e-003
8.793953e+002,1.903559e-003
8.813238e+002,1.978037e-003
8.832523e+002,2.057056e-003
8.851808e+002,2.170609e-003
8.871093e+002,2.264132e-003
8.890378e+002,2.259886e-003
8.909663e+002,2.234823e-003
8.928948e+002,2.135863e-003
8.948232e+002,1.997837e-003
8.967518e+002,1.940186e-003
8.986803e+002,1.993942e-003
9.006088e+002,1.971230e-003
9.025372e+002,2.070685e-003
9.044658e+002,2.451615e-003
9.063943e+002,2.986966e-003
9.083228e+002,3.276725e-003
9.102512e+002,3.043291e-003
9.121797e+002,2.603467e-003
9.141083e+002,2.301229e-003
9.160367e+002,2.031041e-003
9.179653e+002,1.918464e-003
9.198937e+002,1.874563e-003
9.218223e+002,1.843233e-003
9.237507e+002,1.786564e-003
9.256793e+002,1.790431e-003
9.276077e+002,1.824223e-003
9.295363e+002,1.836368e-003
9.314647e+002,1.893169e-003
9.333932e+002,1.890766e-003
9.353217e+002,1.788436e-003
9.372502e+002,1.773669e-003
9.391787e+002,1.779331e-003
9.411072e+002,1.810200e-003
9.430358e+002,1.785080e-003
9.449642e+002,1.777474e-003
9.468928e+002,1.814487e-003
9.488212e+002,1.908130e-003
9.507498e+002,1.916139e-003
9.526782e+002,1.973185e-003
9.546068e+002,2.016209e-003
9.565352e+002,2.057226e-003
9.584637e+002,2.102105e-003
9.603922e+002,2.200360e-003
9.623207e+002,2.231066e-003
9.642492e+002,2.297482e-003
9.661777e+002,2.342101e-003
9.681062e+002,2.366458e-003
9.700347e+002,2.337995e-003
9.719632e+002,2.347575e-003
9.738917e+002,2.378288e-003
9.758202e+002,2.420094e-003
9.777487e+002,2.393322e-003
9.796772e+002,2.466267e-003
9.816057e+002,2.565378e-003
9.835342e+002,2.668490e-003
9.854627e+002,2.778296e-003
9.873912e+002,2.958998e-003
9.893197e+002,3.083102e-003
9.912482e+002,3.185004e-003
9.931767e+002,3.226397e-003
9.951052e+002,3.315190e-003
9.970337e+002,3.384966e-003
9.989622e+002,3.455518e-003
1.000891e+003,3.514437e-003
1.002819e+003,3.663252e-003
1.004748e+003,3.881595e-003
1.006676e+003,4.219465e-003
1.008605e+003,4.539429e-003
1.010533e+003,4.947858e-003
1.012462e+003,5.457500e-003
1.014390e+003,5.993966e-003
1.016319e+003,6.326767e-003
1.018247e+003,6.497010e-003
1.020176e+003,6.392678e-003
1.022104e+003,6.155428e-003
1.024033e+003,5.892825e-003
1.025961e+003,5.729391e-003
1.027890e+003,5.599566e-003
1.029818e+003,5.574120e-003
1.031747e+003,5.567686e-003
1.033675e+003,5.593284e-003
1.035604e+003,5.561179e-003
1.037532e+003,5.630497e-003
1.039461e+003,5.762384e-003
1.041389e+003,5.936298e-003
1.043318e+003,6.072929e-003
1.045246e+003,6.227877e-003
1.047175e+003,6.336103e-003
1.049103e+003,6.385892e-003
1.051032e+003,6.249424e-003
1.052960e+003,6.004220e-003
1.054889e+003,5.792702e-003
1.056817e+003,5.708321e-003
1.058746e+003,5.674016e-003
1.060674e+003,5.725381e-003
1.062603e+003,5.727343e-003
1.064531e+003,5.755065e-003
1.066460e+003,5.742720e-003
1.068388e+003,5.775880e-003
1.070317e+003,5.824137e-003
1.072245e+003,5.948934e-003
1.074174e+003,6.153455e-003
1.076102e+003,6.312961e-003
1.078031e+003,6.391884e-003
1.079959e+003,6.467238e-003
1.081888e+003,6.521194e-003
1.083816e+003,6.511123e-003
1.085745e+003,6.371761e-003
1.087673e+003,6.350397e-003
1.089602e+003,6.372741e-003
1.091530e+003,6.386130e-003
1.093459e+003,6.345099e-003
1.095387e+003,6.325023e-003
1.097316e+003,6.263978e-003
1.099244e+003,6.214482e-003
1.101173e+003,6.105499e-003
1.103101e+003,6.076411e-003
1.105030e+003,6.016161e-003
1.106958e+003,5.950823e-003
1.108887e+003,5.827137e-003
1.110815e+003,5.724607e-003
1.112744e+003,5.621504e-003
1.114672e+003,5.573596e-003
1.116601e+003,5.459089e-003
1.118529e+003,5.352512e-003
1.120458e+003,5.240199e-003
1.122386e+003,5.178429e-003
1.124315e+003,5.072305e-003
1.126243e+003,5.031649e-003
1.128172e+003,4.997674e-003
1.130100e+003,4.974765e-003
1.132029e+003,4.916969e-003
1.133957e+003,4.955798e-003
1.135885e+003,4.921173e-003
1.137814e+003,4.938108e-003
1.139743e+003,4.953660e-003
1.141671e+003,4.984902e-003
1.143600e+003,4.968370e-003
1.145528e+003,5.053920e-003
1.147457e+003,5.159116e-003
1.149385e+003,5.346924e-003
1.151314e+003,5.552188e-003
1.153242e+003,5.821991e-003
1.155171e+003,6.076918e-003
1.157099e+003,6.332527e-003
1.159028e+003,6.452210e-003
1.160956e+003,6.537619e-003
1.162885e+003,6.538871e-003
1.164813e+003,6.509206e-003
1.166742e+003,6.354977e-003
1.168670e+003,6.206368e-003
1.170599e+003,6.012966e-003
1.172527e+003,5.898774e-003
1.174456e+003,5.863772e-003
1.176384e+003,5.836498e-003
1.178313e+003,5.601397e-003
1.180241e+003,5.343840e-003
1.182170e+003,5.170628e-003
1.184098e+003,5.105595e-003
1.186027e+003,5.048864e-003
1.187955e+003,5.083861e-003
1.189884e+003,5.108332e-003
1.191812e+003,5.127936e-003
1.193740e+003,5.144399e-003
1.195669e+003,5.208306e-003
1.197598e+003,5.232275e-003
1.199526e+003,5.342630e-003
1.201455e+003,5.438562e-003
1.203383e+003,5.561795e-003
1.205312e+003,5.646602e-003
1.207240e+003,5.815506e-003
1.209168e+003,6.031634e-003
1.211097e+003,6.252906e-003
1.213026e+003,6.349976e-003
1.214954e+003,6.510951e-003
1.216883e+003,6.645593e-003
1.218811e+003,6.862012e-003
1.220740e+003,7.026386e-003
1.222668e+003,7.225231e-003
1.224596e+003,7.371433e-003
1.226525e+003,7.529291e-003
1.228453e+003,7.625177e-003
1.230382e+003,7.790612e-003
1.232311e+003,7.937068e-003
1.234239e+003,8.076913e-003
1.236167e+003,8.113544e-003
1.238096e+003,8.165592e-003
1.240025e+003,8.171005e-003
1.241953e+003,8.191880e-003
1.243882e+003,8.144408e-003
1.245810e+003,8.091717e-003
1.247739e+003,7.948763e-003
1.249667e+003,7.879437e-003
1.251595e+003,7.792898e-003
1.253524e+003,7.771271e-003
1.255453e+003,7.808084e-003
1.257381e+003,7.971967e-003
1.259310e+003,8.089153e-003
1.261238e+003,8.169307e-003
1.263167e+003,8.026744e-003
1.265095e+003,7.837864e-003
1.267023e+003,7.546823e-003
1.268952e+003,7.323568e-003
1.270880e+003,7.156752e-003
1.272809e+003,7.127549e-003
1.274738e+003,7.040243e-003
1.276666e+003,7.052684e-003
1.278594e+003,7.048643e-003
1.280523e+003,7.160529e-003
1.282451e+003,7.243820e-003
1.284380e+003,7.391752e-003
1.286308e+003,7.563024e-003
1.288237e+003,7.831044e-003
1.290166e+003,8.041481e-003
1.292094e+003,8.418084e-003
1.294022e+003,8.808958e-003
1.295951e+003,9.259993e-003
1.297879e+003,9.554332e-003
1.299808e+003,9.790967e-003
1.301736e+003,9.838072e-003
1.303665e+003,9.886290e-003
1.305594e+003,9.819683e-003
1.307522e+003,9.723553e-003
1.309450e+003,9.439113e-003
1.311379e+003,9.198333e-003
1.313307e+003,8.822901e-003
1.315236e+003,8.410144e-003
1.317164e+003,7.988399e-003
1.319093e+003,7.646995e-003
1.321021e+003,7.181169e-003
1.322950e+003,6.822373e-003
1.324878e+003,6.500694e-003
1.326807e+003,6.380742e-003
1.328735e+003,6.344155e-003
1.330664e+003,6.459895e-003
1.332592e+003,6.610417e-003
1.334521e+003,7.026028e-003
1.336449e+003,7.675840e-003
1.338378e+003,8.725171e-003
1.340306e+003,9.407116e-003
1.342235e+003,9.557039e-003
1.344163e+003,9.810095e-003
1.346092e+003,1.040425e-002
1.348021e+003,1.104648e-002
1.349949e+003,1.180775e-002
1.351877e+003,1.216155e-002
1.353806e+003,1.222103e-002
1.355734e+003,1.200163e-002
1.357663e+003,1.203318e-002
1.359591e+003,1.239291e-002
1.361520e+003,1.334463e-002
1.363448e+003,1.450431e-002
1.365377e+003,1.531836e-002
1.367305e+003,1.597074e-002
1.369234e+003,1.606042e-002
1.371162e+003,1.500044e-002
1.373091e+003,1.409358e-002
1.375019e+003,1.380500e-002
1.376948e+003,1.354049e-002
1.378876e+003,1.185593e-002
1.380805e+003,9.318613e-003
1.382733e+003,7.430852e-003
1.384662e+003,6.656708e-003
1.386590e+003,6.355992e-003
1.388519e+003,6.149070e-003
1.390447e+003,5.749217e-003
1.392376e+003,5.772741e-003
1.394304e+003,6.011223e-003
1.396233e+003,6.190983e-003
1.398161e+003,5.967556e-003
1.400090e+003,6.042820e-003
1.402018e+003,5.706538e-003
1.403947e+003,5.959057e-003
1.405875e+003,6.029210e-003
1.407804e+003,6.095075e-003
1.409732e+003,6.180212e-003
1.411661e+003,6.593782e-003
1.413589e+003,6.677322e-003
1.415518e+003,7.188663e-003
1.417446e+003,7.673219e-003
1.419375e+003,8.655216e-003
1.421303e+003,8.668812e-003
1.423232e+003,9.636383e-003
1.425160e+003,1.099880e-002
1.427089e+003,1.265452e-002
1.429017e+003,1.510018e-002
1.430946e+003,1.866010e-002
1.432874e+003,2.138124e-002
1.434803e+003,2.407203e-002
1.436731e+003,2.720251e-002
1.438660e+003,2.942670e-002
1.440588e+003,3.043162e-002
1.442517e+003,3.230329e-002
1.444445e+003,3.374732e-002
1.446374e+003,3.608052e-002
1.448302e+003,3.939837e-002
1.450231e+003,4.432696e-002
1.452159e+003,5.200123e-002
1.454088e+003,6.210224e-002
1.456016e+003,7.266503e-002
1.457945e+003,9.769066e-002
1.459873e+003,1.398752e-001
1.461802e+003,1.803996e-001
1.463730e+003,1.788611e-001
1.465659e+003,1.397328e-001
1.467587e+003,1.276822e-001
1.469516e+003,1.251246e-001
1.471444e+003,1.420493e-001
1.473373e+003,1.272040e-001
1.475301e+003,6.899340e-002
1.477230e+003,3.040387e-002
1.479158e+003,1.923854e-002
1.481087e+003,1.420424e-002
1.483015e+003,1.194364e-002
1.484944e+003,1.016220e-002
1.486872e+003,1.003244e-002
1.488801e+003,9.171127e-003
1.490729e+003,8.770731e-003
1.492658e+003,7.226724e-003
1.494586e+003,7.146931e-003
1.496515e+003,6.886867e-003
1.498443e+003,6.930907e-003
1.500372e+003,6.120068e-003
1.502300e+003,6.102555e-003
1.504229e+003,5.675528e-003
1.506157e+003,6.981553e-003
1.508086e+003,6.813709e-003
1.510014e+003,6.175773e-003
1.511943e+003,5.367050e-003
1.513871e+003,5.383677e-003
1.515800e+003,5.516867e-003
1.517728e+003,5.946254e-003
1.519657e+003,5.396159e-003
1.521585e+003,6.481217e-003
1.523514e+003,5.642507e-003
1.525442e+003,5.482197e-003
1.527371e+003,5.111532e-003
1.529299e+003,4.918806e-003
1.531228e+003,4.667563e-003
1.533156e+003,5.436782e-003
1.535085e+003,5.151210e-003
1.537013e+003,5.073824e-003
1.538942e+003,5.829797e-003
1.540870e+003,7.464455e-003
1.542799e+003,6.074530e-003
1.544727e+003,5.675258e-003
1.546656e+003,4.706592e-003
1.548584e+003,4.618947e-003
1.550513e+003,4.672553e-003
1.552441e+003,4.548839e-003
1.554370e+003,4.702715e-003
1.556298e+003,5.005540e-003
1.558227e+003,5.373544e-003
1.560155e+003,5.373308e-003
1.562084e+003,4.026026e-003
1.564012e+003,3.965321e-003
1.565941e+003,3.946586e-003
1.567869e+003,3.996616e-003
1.569798e+003,4.357111e-003
1.571726e+003,4.188515e-003
1.573655e+003,3.817561e-003
1.575583e+003,4.375392e-003
1.577512e+003,4.449843e-003
1.579440e+003,3.961953e-003
1.581369e+003,3.655664e-003
1.583297e+003,3.663855e-003
1.585226e+003,3.617826e-003
1.587154e+003,3.671912e-003
1.589083e+003,3.595532e-003
1.591011e+003,3.626965e-003
1.592940e+003,3.552896e-003
1.594868e+003,3.650621e-003
1.596797e+003,3.579221e-003
1.598725e+003,3.570691e-003
1.600654e+003,3.527577e-003
1.602582e+003,3.645879e-003
1.604511e+003,3.503177e-003
1.606439e+003,3.514212e-003
1.608368e+003,3.576504e-003
1.610296e+003,3.630102e-003
1.612225e+003,3.478660e-003
1.614153e+003,3.533700e-003
1.616082e+003,3.940918e-003
1.618010e+003,4.227324e-003
1.619939e+003,3.692717e-003
1.621867e+003,3.817954e-003
1.623796e+003,4.176746e-003
1.625724e+003,3.935469e-003
1.627653e+003,3.865167e-003
1.629581e+003,3.938933e-003
1.631510e+003,3.793684e-003
1.633438e+003,3.975882e-003
1.635367e+003,4.814708e-003
1.637295e+003,5.060907e-003
1.639224e+003,4.328495e-003
1.641152e+003,4.298177e-003
1.643081e+003,4.276332e-003
1.645009e+003,4.474872e-003
1.646938e+003,5.123803e-003
1.648866e+003,4.795793e-003
1.650795e+003,4.100085e-003
1.652723e+003,4.669603e-003
1.654652e+003,4.691341e-003
1.656580e+003,3.925411e-003
1.658509e+003,3.590840e-003
1.660437e+003,3.663372e-003
1.662366e+003,3.791001e-003
1.664294e+003,3.750180e-003
1.666223e+003,3.464120e-003
1.668151e+003,3.754260e-003
1.670080e+003,3.953950e-003
1.672008e+003,3.587265e-003
1.673937e+003,3.168470e-003
1.675865e+003,3.284114e-003
1.677794e+003,2.934045e-003
1.679722e+003,3.197101e-003
1.681651e+003,3.309601e-003
1.683579e+003,3.595715e-003
1.685508e+003,3.507053e-003
1.687436e+003,2.965776e-003
1.689365e+003,2.710219e-003
1.691293e+003,2.543992e-003
1.693222e+003,2.272860e-003
1.695150e+003,2.887223e-003
1.697079e+003,3.423265e-003
1.699007e+003,2.907486e-003
1.700936e+003,2.954120e-003
1.702864e+003,2.631304e-003
1.704793e+003,2.376488e-003
1.706721e+003,2.641208e-003
1.708650e+003,2.335837e-003
1.710578e+003,2.413512e-003
1.712507e+003,2.528138e-003
1.714435e+003,3.104700e-003
1.716364e+003,3.216834e-003
1.718292e+003,3.244771e-003
1.720221e+003,2.733185e-003
1.722149e+003,2.581970e-003
1.724078e+003,2.742509e-003
1.726006e+003,2.861207e-003
1.727935e+003,2.931021e-003
1.729863e+003,3.539785e-003
1.731792e+003,3.650303e-003
1.733720e+003,4.066581e-003
1.735649e+003,3.865502e-003
1.737577e+003,3.430475e-003
1.739506e+003,3.445535e-003
1.741434e+003,3.282713e-003
1.743363e+003,3.134748e-003
1.745291e+003,3.122286e-003
1.747220e+003,3.158198e-003
1.749148e+003,3.254890e-003
1.751077e+003,2.758092e-003
1.753005e+003,2.100766e-003
1.754934e+003,1.571856e-003
1.756862e+003,1.747447e-003
1.758791e+003,1.413466e-003
1.760719e+003,1.346679e-003
1.762648e+003,1.389975e-003
1.764576e+003,1.018058e-003
1.766505e+003,8.968133e-004
1.768433e+003,1.317291e-003
1.770362e+003,1.373949e-003
1.772290e+003,1.816318e-003
1.774219e+003,1.370845e-003
1.776147e+003,9.086151e-004
1.778076e+003,6.854841e-004
1.780004e+003,8.741366e-004
1.781933e+003,7.752143e-004
1.783861e+003,6.752377e-004
1.785790e+003,6.293627e-004
1.787718e+003,5.765175e-004
1.789646e+003,5.558580e-004
1.791575e+003,1.071071e-003
1.793504e+003,1.017690e-003
1.795432e+003,8.659363e-004
1.797361e+003,6.995909e-004
1.799289e+003,8.273507e-004
1.801218e+003,8.678231e-004
1.803146e+003,5.821167e-004
1.805074e+003,3.699781e-004
1.807003e+003,4.677838e-004
1.808932e+003,3.814045e-004
1.810860e+003,4.227664e-004
1.812789e+003,1.294361e-004
1.814717e+003,-1.956206e-004
1.816646e+003,-3.175652e-004
1.818574e+003,1.041591e-005
1.820502e+003,1.832349e-004
1.822431e+003,3.565745e-004
1.824360e+003,4.080497e-004
1.826288e+003,3.229845e-004
1.828217e+003,-1.666322e-005
1.830145e+003,3.392017e-004
1.832073e+003,-5.623326e-005
1.834002e+003,-3.749467e-004
1.835931e+003,-3.933078e-004
1.837859e+003,-3.282446e-004
1.839788e+003,-5.091876e-004
1.841716e+003,-3.212104e-004
1.843645e+003,-3.073364e-005
1.845573e+003,1.845248e-004
1.847501e+003,-3.196904e-004
1.849430e+003,-5.514966e-004
1.851359e+003,-7.565245e-004
1.853287e+003,-7.269569e-004
1.855216e+003,-8.327020e-004
1.857144e+003,-7.472774e-004
1.859073e+003,-9.195860e-004
1.861001e+003,-9.639803e-004
1.862929e+003,-9.878669e-004
1.864858e+003,-6.534001e-004
1.866787e+003,-3.971132e-004
1.868715e+003,3.032451e-004
1.870644e+003,-2.499474e-004
1.872572e+003,-8.226773e-004
1.874500e+003,-1.115548e-003
1.876429e+003,-1.193966e-003
1.878357e+003,-1.438479e-003
1.880286e+003,-1.221998e-003
1.882215e+003,-1.095559e-003
1.884143e+003,-9.681471e-004
1.886072e+003,-1.114756e-003
1.888000e+003,-9.027561e-004
1.889928e+003,-7.342519e-004
1.891857e+003,-5.591381e-004
1.893785e+003,-6.451327e-004
1.895714e+003,-4.341686e-004
1.897643e+003,-6.377380e-004
1.899571e+003,-7.065181e-004
1.901500e+003,-7.002372e-004
1.903428e+003,-6.939648e-004
1.905356e+003,-6.877035e-004
1.907285e+003,-6.814525e-004
1.909213e+003,-6.752098e-004
1.911142e+003,-6.689783e-004
1.913071e+003,-6.627562e-004
1.914999e+003,-6.565452e-004
1.916927e+003,-6.503426e-004
1.918856e+003,-6.441502e-004
1.920784e+003,-6.379690e-004
1.922713e+003,-6.317971e-004
1.924641e+003,-6.256355e-004
1.926570e+003,-6.194822e-004
1.928499e+003,-6.133402e-004
1.930427e+003,-6.072083e-004
1.932355e+003,-6.010868e-004
1.934284e+003,-5.949726e-004
1.936212e+003,-5.888715e-004
1.938141e+003,-5.827798e-004
1.940070e+003,-5.766954e-004
1.941998e+003,-5.706232e-004
1.943927e+003,-5.645612e-004
1.945855e+003,-5.585095e-004
1.947783e+003,-5.524661e-004
1.949712e+003,-5.464330e-004
1.951640e+003,-5.404111e-004
1.953569e+003,-5.343975e-004
1.955498e+003,-5.283942e-004
1.957426e+003,-5.224012e-004
1.959354e+003,-5.164184e-004
1.961283e+003,-5.104458e-004
1.963211e+003,-5.044825e-004
1.965140e+003,-4.985295e-004
1.967068e+003,-4.925868e-004
1.968997e+003,-4.866533e-004
1.970926e+003,-4.807292e-004
1.972854e+003,-4.748171e-004
1.974782e+003,-4.689135e-004
1.976711e+003,-4.630201e-004
1.978639e+003,-4.571360e-004
1.980568e+003,-4.512621e-004
1.982496e+003,-4.454004e-004
1.984425e+003,-4.395442e-004
1.986354e+003,-4.337011e-004
1.988282e+003,-4.278673e-004
1.990210e+003,-4.220447e-004
1.992139e+003,-4.162295e-004
1.994067e+003,-4.104273e-004
1.995996e+003,-4.046327e-004
1.997924e+003,-3.988501e-004
1.999853e+003,-3.930740e-004
2.001781e+003,-3.873110e-004
2.003710e+003,-3.815563e-004
2.005638e+003,-3.758119e-004
2.007567e+003,-3.700778e-004
2.009495e+003,-3.643548e-004
2.011424e+003,-3.586402e-004
2.013352e+003,-3.529349e-004
2.015281e+003,-3.472408e-004
2.017209e+003,-3.415560e-004
2.019138e+003,-3.358815e-004
2.021066e+003,-3.302172e-004
2.022995e+003,-3.245631e-004
2.024923e+003,-3.189184e-004
2.026852e+003,-3.132839e-004
2.028781e+003,-3.076587e-004
2.030709e+003,-3.020428e-004
2.032637e+003,-2.964390e-004
2.034566e+003,-2.908455e-004
2.036494e+003,-2.852585e-004
2.038423e+003,-2.796855e-004
2.040351e+003,-2.741190e-004
2.042280e+003,-2.685627e-004
2.044208e+003,-2.630195e-004
2.046137e+003,-2.574837e-004
2.048065e+003,-2.519591e-004
2.049994e+003,-2.464447e-004
2.051922e+003,-2.409378e-004
2.053851e+003,-2.354411e-004
2.055779e+003,-2.299566e-004
2.057708e+003,-2.244813e-004
2.059636e+003,-2.190163e-004
2.061565e+003,-2.135616e-004
2.063493e+003,-2.081152e-004
2.065422e+003,-2.026800e-004
2.067350e+003,-1.972551e-004
2.069279e+003,-1.918366e-004
2.071207e+003,-1.864322e-004
2.073136e+003,-1.810361e-004
2.075064e+003,-1.756502e-004
2.076993e+003,-1.702737e-004
2.078921e+003,-1.649084e-004
2.080850e+003,-1.595542e-004
2.082778e+003,-1.542084e-004
2.084707e+003,-1.488691e-004
2.086635e+003,-1.435420e-004
2.088564e+003,-1.382269e-004
2.090492e+003,-1.329212e-004
2.092421e+003,-1.276247e-004
2.094349e+003,-1.223404e-004
2.096278e+003,-1.170626e-004
2.098206e+003,-1.117941e-004
2.100135e+003,-1.065386e-004
2.102063e+003,-1.012916e-004
2.103992e+003,-9.605475e-005
2.105920e+003,-9.082910e-005
2.107849e+003,-8.561276e-005
2.109777e+003,-8.040667e-005
2.111706e+003,-7.520989e-005
2.113634e+003,-7.001963e-005
2.115563e+003,-6.484427e-005
2.117491e+003,-5.967729e-005
2.119420e+003,-5.452055e-005
2.121348e+003,-4.937220e-005
2.123277e+003,-4.423689e-005
2.125205e+003,-3.911089e-005
2.127134e+003,-3.399421e-005
2.129062e+003,-2.888311e-005
2.130991e+003,-2.378691e-005
2.132919e+003,-1.869909e-005
2.134848e+003,-1.362339e-005
2.136776e+003,-8.556060e-006
2.138705e+003,-3.498979e-006
2.140633e+003,1.549721e-006
2.142562e+003,6.588176e-006
2.144490e+003,1.161546e-005
2.146419e+003,1.663249e-005
2.148347e+003,2.164207e-005
2.150276e+003,2.663769e-005
2.152204e+003,3.162585e-005
2.154133e+003,3.660284e-005
2.156061e+003,4.157331e-005
2.157990e+003,4.653260e-005
2.159918e+003,5.147886e-005
2.161847e+003,5.641673e-005
2.163775e+003,6.134529e-005
2.165704e+003,6.626267e-005
2.167632e+003,7.117074e-005
2.169561e+003,7.606763e-005
2.171489e+003,8.095521e-005
2.173418e+003,8.583721e-005
2.175346e+003,9.070616e-005
2.177275e+003,9.556301e-005
2.179203e+003,1.004115e-004
2.181132e+003,1.052506e-004
2.183060e+003,1.100786e-004
2.184989e+003,1.148963e-004
2.186917e+003,1.197075e-004
2.188846e+003,1.245057e-004
2.190774e+003,1.292946e-004
2.192703e+003,1.340732e-004
2.194631e+003,1.388416e-004
2.196560e+003,1.436006e-004
2.198488e+003,1.483476e-004
2.200417e+003,1.530899e-004
2.202345e+003,1.578191e-004
2.204274e+003,1.625391e-004
2.206202e+003,1.672469e-004
2.208131e+003,1.719473e-004
2.210059e+003,1.766346e-004
2.211988e+003,1.813136e-004
2.213916e+003,1.859833e-004
2.215845e+003,1.906408e-004
2.217773e+003,1.952937e-004
2.219702e+003,1.999326e-004
2.221630e+003,2.045622e-004
2.223559e+003,2.091825e-004
2.225487e+003,2.137907e-004
2.227416e+003,2.183914e-004
2.229344e+003,2.229810e-004
2.231273e+003,2.275631e-004
2.233201e+003,2.321340e-004
2.235130e+003,2.366919e-004
2.237058e+003,2.412423e-004
2.238987e+003,2.457816e-004
2.240915e+003,2.503116e-004
2.242844e+003,2.548303e-004
2.244772e+003,2.593435e-004
2.246701e+003,2.638437e-004
2.248629e+003,2.683327e-004
2.250558e+003,2.728142e-004
2.252486e+003,2.772827e-004
2.254415e+003,2.817437e-004
2.256343e+003,2.861954e-004
2.258272e+003,2.906322e-004
2.260200e+003,2.950635e-004
2.262129e+003,2.994873e-004
2.264057e+003,3.038980e-004
2.265986e+003,3.082994e-004
2.267914e+003,3.126878e-004
2.269843e+003,3.170669e-004
2.271771e+003,3.214385e-004
2.273700e+003,3.258009e-004
2.275628e+003,3.301520e-004
2.277557e+003,3.344938e-004
2.279485e+003,3.388263e-004
2.281414e+003,3.431477e-004
2.283342e+003,3.474560e-004
2.285271e+003,3.517587e-004
2.287199e+003,3.560483e-004
2.289128e+003,3.603324e-004
2.291056e+003,3.646053e-004
2.292985e+003,3.688652e-004
2.294913e+003,3.731139e-004
2.296842e+003,3.773570e-004
2.298770e+003,3.815871e-004
2.300699e+003,3.858097e-004
2.302627e+003,3.900230e-004
2.304556e+003,3.942233e-004
2.306484e+003,3.984161e-004
2.308413e+003,4.025977e-004
2.310341e+003,4.067682e-004
2.312270e+003,4.109312e-004
2.314198e+003,4.150830e-004
2.316127e+003,4.192237e-004
2.318055e+003,4.233550e-004
2.319984e+003,4.274808e-004
2.321912e+003,4.315898e-004
2.323841e+003,4.356932e-004
2.325769e+003,4.397873e-004
2.327698e+003,4.438683e-004
2.329626e+003,4.479401e-004
2.331555e+003,4.520006e-004
2.333483e+003,4.560575e-004
2.335412e+003,4.600994e-004
2.337340e+003,4.641321e-004
2.339269e+003,4.681535e-004
2.341197e+003,4.721656e-004
2.343126e+003,4.761685e-004
2.345054e+003,4.801620e-004
2.346983e+003,4.841443e-004
2.348911e+003,4.881173e-004
2.350840e+003,4.920829e-004
2.352768e+003,4.960354e-004
2.354697e+003,4.999768e-004
2.356625e+003,5.039088e-004
2.358554e+003,5.078297e-004
2.360482e+003,5.117431e-004
2.362411e+003,5.156472e-004
2.364339e+003,5.195457e-004
2.366268e+003,5.234238e-004
2.368196e+003,5.272999e-004
2.370125e+003,5.311612e-004
2.372053e+003,5.350132e-004
2.373982e+003,5.388577e-004
2.375910e+003,5.426910e-004
2.377839e+003,5.465169e-004
2.379767e+003,5.503315e-004
2.381696e+003,5.541332e-004
2.383624e+003,5.579256e-004
2.385553e+003,5.617086e-004
2.387481e+003,5.654842e-004
2.389410e+003,5.692504e-004
2.391338e+003,5.730037e-004
2.393267e+003,5.767476e-004
2.395195e+003,5.804822e-004
2.397124e+003,5.842056e-004
2.399052e+003,5.879197e-004
2.400981e+003,5.710628e-004
2.402909e+003,3.692247e-004
2.404838e+003,3.646370e-004
2.406766e+003,6.481353e-004
2.408695e+003,8.888021e-004
2.410623e+003,7.647406e-004
2.412552e+003,7.780846e-004
2.414480e+003,9.966511e-004
2.416409e+003,1.273884e-003
2.418337e+003,1.160916e-003
2.420266e+003,8.924920e-004
2.422194e+003,7.682126e-004
2.424123e+003,7.205531e-004
2.426051e+003,5.975813e-004
2.427979e+003,6.438158e-004
2.429908e+003,6.073974e-004
2.431837e+003,6.159954e-004
2.433765e+003,6.450359e-004
2.435694e+003,7.420946e-004
2.437622e+003,5.929675e-004
2.439551e+003,5.965512e-004
2.441479e+003,7.176548e-004
2.443407e+003,6.976929e-004
2.445336e+003,6.194189e-004
2.447265e+003,8.868463e-004
2.449193e+003,9.089839e-004
2.451122e+003,7.845555e-004
2.453050e+003,7.907599e-004
2.454979e+003,9.329543e-004
2.456907e+003,8.187499e-004
2.458836e+003,7.995293e-004
2.460764e+003,7.530656e-004
2.462693e+003,7.986780e-004
2.464621e+003,8.781776e-004
2.466550e+003,8.886997e-004
2.468478e+003,9.070523e-004
2.470406e+003,1.135355e-003
2.472335e+003,1.298260e-003
2.474264e+003,1.341755e-003
2.476192e+003,1.292188e-003
2.478121e+003,1.285918e-003
2.480049e+003,1.239065e-003
2.481978e+003,1.365673e-003
2.483906e+003,1.434255e-003
2.485835e+003,1.351582e-003
2.487763e+003,1.318788e-003
2.489692e+003,1.480114e-003
2.491620e+003,1.486693e-003
2.493549e+003,1.541816e-003
2.495477e+003,1.601823e-003
2.497406e+003,1.727063e-003
2.499334e+003,1.697231e-003
2.501263e+003,1.775723e-003
2.503191e+003,1.921410e-003
2.505120e+003,2.004003e-003
2.507048e+003,1.930771e-003
2.508977e+003,1.971316e-003
2.510905e+003,1.875397e-003
2.512833e+003,1.891527e-003
2.514762e+003,1.988642e-003
2.516691e+003,2.182167e-003
2.518619e+003,2.346592e-003
2.520548e+003,2.487713e-003
2.522476e+003,2.603592e-003
2.524405e+003,2.790846e-003
2.526333e+003,2.862610e-003
2.528261e+003,2.765805e-003
2.530190e+003,2.646632e-003
2.532119e+003,2.678735e-003
2.534047e+003,2.796385e-003
2.535976e+003,2.903424e-003
2.537904e+003,2.953531e-003
2.539833e+003,2.889676e-003
2.541761e+003,2.839712e-003
2.543689e+003,3.176818e-003
2.545618e+003,3.521755e-003
2.547547e+003,3.526529e-003
2.549475e+003,3.617829e-003
2.551404e+003,3.770765e-003
2.553332e+003,3.737649e-003
2.555260e+003,3.812809e-003
2.557189e+003,4.022708e-003
2.559117e+003,4.084874e-003
2.561046e+003,4.044663e-003
2.562975e+003,4.200796e-003
2.564903e+003,4.288293e-003
2.566832e+003,4.493142e-003
2.568760e+003,4.698157e-003
2.570688e+003,4.739963e-003
2.572617e+003,4.761010e-003
2.574546e+003,5.032245e-003
2.576474e+003,5.186621e-003
2.578403e+003,5.323345e-003
2.580331e+003,5.534375e-003
2.582260e+003,5.818341e-003
2.584188e+003,5.999232e-003
2.586116e+003,6.137911e-003
2.588045e+003,6.452646e-003
2.589974e+003,6.538006e-003
2.591902e+003,6.544163e-003
2.593831e+003,6.911522e-003
2.595759e+003,7.209633e-003
2.597688e+003,7.563332e-003
2.599616e+003,7.779697e-003
2.601544e+003,7.898241e-003
2.603473e+003,8.140838e-003
2.605402e+003,8.575607e-003
2.607330e+003,8.818831e-003
2.609259e+003,8.949632e-003
2.611187e+003,9.005949e-003
2.613115e+003,9.289408e-003
2.615044e+003,9.816509e-003
2.616972e+003,1.027592e-002
2.618901e+003,1.057244e-002
2.620830e+003,1.093821e-002
2.622758e+003,1.140451e-002
2.624687e+003,1.175432e-002
2.626615e+003,1.198559e-002
2.628543e+003,1.247117e-002
2.630472e+003,1.289452e-002
2.632400e+003,1.322738e-002
2.634329e+003,1.348281e-002
2.636258e+003,1.360461e-002
2.638186e+003,1.362600e-002
2.640115e+003,1.363244e-002
2.642043e+003,1.357924e-002
2.643971e+003,1.355299e-002
2.645900e+003,1.367169e-002
2.647828e+003,1.389802e-002
2.649757e+003,1.409360e-002
2.651686e+003,1.428831e-002
2.653614e+003,1.445271e-002
2.655542e+003,1.455182e-002
2.657471e+003,1.458739e-002
2.659399e+003,1.459187e-002
2.661328e+003,1.455972e-002
2.663256e+003,1.440674e-002
2.665185e+003,1.429272e-002
2.667114e+003,1.424706e-002
2.669042e+003,1.413538e-002
2.670970e+003,1.399475e-002
2.672899e+003,1.382483e-002
2.674827e+003,1.365988e-002
2.676756e+003,1.352435e-002
2.678685e+003,1.340773e-002
2.680613e+003,1.331358e-002
2.682542e+003,1.322917e-002
2.684470e+003,1.317190e-002
2.686398e+003,1.309731e-002
2.688327e+003,1.292229e-002
2.690255e+003,1.274015e-002
2.692184e+003,1.263022e-002
2.694113e+003,1.258823e-002
2.696041e+003,1.258015e-002
2.697969e+003,1.259493e-002
2.699898e+003,1.263970e-002
2.701826e+003,1.281109e-002
2.703755e+003,1.302531e-002
2.705683e+003,1.318193e-002
2.707612e+003,1.334737e-002
2.709541e+003,1.347684e-002
2.711469e+003,1.363903e-002
2.713397e+003,1.379535e-002
2.715326e+003,1.388920e-002
2.717254e+003,1.404952e-002
2.719183e+003,1.428457e-002
2.721111e+003,1.453344e-002
2.723040e+003,1.483958e-002
2.724969e+003,1.520659e-002
2.726897e+003,1.547187e-002
2.728825e+003,1.574053e-002
2.730754e+003,1.596904e-002
2.732682e+003,1.616494e-002
2.734611e+003,1.636195e-002
2.736539e+003,1.657639e-002
2.738468e+003,1.668722e-002
2.740396e+003,1.675070e-002
2.742325e+003,1.682064e-002
2.744253e+003,1.686805e-002
2.746182e+003,1.691710e-002
2.748110e+003,1.692627e-002
2.750039e+003,1.700745e-002
2.751967e+003,1.722829e-002
2.753896e+003,1.750785e-002
2.755824e+003,1.778107e-002
2.757753e+003,1.811576e-002
2.759681e+003,1.851494e-002
2.761610e+003,1.894250e-002
2.763538e+003,1.933073e-002
2.765467e+003,1.975022e-002
2.767395e+003,2.022960e-002
2.769324e+003,2.077886e-002
2.771252e+003,2.143305e-002
2.773181e+003,2.212378e-002
2.775109e+003,2.281669e-002
2.777038e+003,2.360420e-002
2.778966e+003,2.461123e-002
2.780895e+003,2.570157e-002
2.782823e+003,2.683992e-002
2.784752e+003,2.804840e-002
2.786680e+003,2.935931e-002
2.788609e+003,3.082981e-002
2.790537e+003,3.242280e-002
2.792466e+003,3.402320e-002
2.794394e+003,3.569391e-002
2.796323e+003,3.750750e-002
2.798251e+003,3.937219e-002
2.800180e+003,4.137210e-002
2.802108e+003,4.339879e-002
2.804037e+003,4.558051e-002
2.805965e+003,4.800719e-002
2.807894e+003,5.061732e-002
2.809822e+003,5.355957e-002
2.811751e+003,5.694324e-002
2.813679e+003,6.078339e-002
2.815608e+003,6.509464e-002
2.817536e+003,7.015833e-002
2.819465e+003,7.621861e-002
2.821393e+003,8.338703e-002
2.823322e+003,9.208602e-002
2.825250e+003,1.028241e-001
2.827179e+003,1.162807e-001
2.829107e+003,1.335395e-001
2.831036e+003,1.562878e-001
2.832964e+003,1.870500e-001
2.834893e+003,2.296789e-001
2.836821e+003,2.898455e-001
2.838750e+003,3.766944e-001
2.840678e+003,5.043224e-001
2.842607e+003,6.885899e-001
2.844535e+003,9.304039e-001
2.846464e+003,1.158555e+000
2.848392e+003,1.183457e+000
2.850321e+003,9.731281e-001
2.852249e+003,7.296162e-001
2.854178e+003,5.493343e-001
2.856106e+003,4.228866e-001
2.858035e+003,3.320847e-001
2.859963e+003,2.670622e-001
2.861892e+003,2.217614e-001
2.863820e+003,1.917047e-001
2.865749e+003,1.734664e-001
2.867677e+003,1.642734e-001
2.869606e+003,1.615072e-001
2.871534e+003,1.629737e-001
2.873463e+003,1.681422e-001
2.875391e+003,1.781155e-001
2.877320e+003,1.936634e-001
2.879248e+003,2.144677e-001
2.881177e+003,2.393371e-001
2.883105e+003,2.671872e-001
2.885034e+003,2.976219e-001
2.886962e+003,3.301163e-001
2.888891e+003,3.638255e-001
2.890819e+003,3.978869e-001
2.892748e+003,4.316707e-001
2.894676e+003,4.647610e-001
2.896605e+003,4.979041e-001
2.898533e+003,5.327488e-001
2.900462e+003,5.717075e-001
2.902390e+003,6.187012e-001
2.904319e+003,6.795121e-001
2.906247e+003,7.619767e-001
2.908176e+003,8.748579e-001
2.910104e+003,1.024856e+000
2.912033e+003,1.203447e+000
2.913961e+003,1.353879e+000
2.915890e+003,1.376786e+000
2.917818e+003,1.252092e+000
2.919747e+003,1.068923e+000
2.921675e+003,8.955113e-001
2.923604e+003,7.499152e-001
2.925532e+003,6.315535e-001
2.927461e+003,5.344607e-001
2.929389e+003,4.527329e-001
2.931318e+003,3.828020e-001
2.933246e+003,3.227016e-001
2.935175e+003,2.712675e-001
2.937103e+003,2.275986e-001
2.939032e+003,1.907195e-001
2.940960e+003,1.600609e-001
2.942889e+003,1.352542e-001
2.944817e+003,1.157475e-001
2.946746e+003,1.012667e-001
2.948674e+003,9.134237e-002
2.950603e+003,8.475805e-002
2.952531e+003,7.982157e-002
2.954460e+003,7.515889e-002
2.956388e+003,7.020989e-002
2.958317e+003,6.487873e-002
2.960245e+003,5.919543e-002
2.962174e+003,5.329907e-002
2.964102e+003,4.751896e-002
2.966031e+003,4.192831e-002
2.967959e+003,3.695550e-002
2.969888e+003,3.269793e-002
2.971816e+003,2.902066e-002
2.973745e+003,2.588679e-002
2.975673e+003,2.333243e-002
2.977602e+003,2.122289e-002
2.979530e+003,1.947632e-002
2.981459e+003,1.799643e-002
2.983387e+003,1.676571e-002
2.985316e+003,1.569799e-002
2.987244e+003,1.475682e-002
2.989173e+003,1.394972e-002
2.991101e+003,1.326273e-002
2.993030e+003,1.264481e-002
2.994958e+003,1.213291e-002
2.996887e+003,1.154285e-002
2.998815e+003,1.105999e-002
3.000744e+003,1.069441e-002
3.002672e+003,1.031163e-002
3.004601e+003,9.940289e-003
3.006529e+003,9.644466e-003
3.008458e+003,9.383576e-003
3.010386e+003,9.156745e-003
3.012315e+003,8.951750e-003
3.014243e+003,8.720621e-003
3.016172e+003,8.483293e-003
3.018100e+003,8.294452e-003
3.020029e+003,8.092988e-003
3.021957e+003,7.920403e-003
3.023886e+003,7.740021e-003
3.025814e+003,7.518480e-003
3.027743e+003,7.294929e-003
3.029671e+003,7.140681e-003
3.031600e+003,7.041441e-003
3.033528e+003,6.807143e-003
3.035457e+003,6.498082e-003
3.037385e+003,6.156886e-003
3.039314e+003,5.924694e-003
3.041242e+003,5.680803e-003
3.043171e+003,5.413759e-003
3.045099e+003,5.200347e-003
3.047028e+003,4.967093e-003
3.048956e+003,4.747307e-003
3.050885e+003,4.523242e-003
3.052813e+003,4.321238e-003
3.054742e+003,4.198793e-003
3.056670e+003,4.129570e-003
3.058599e+003,3.963292e-003
3.060527e+003,3.865873e-003
3.062456e+003,3.786264e-003
3.064384e+003,3.692655e-003
3.066313e+003,3.583891e-003
3.068241e+003,3.508301e-003
3.070170e+003,3.347693e-003
3.072098e+003,3.228545e-003
3.074027e+003,3.177121e-003
3.075955e+003,3.172956e-003
3.077884e+003,3.125485e-003
3.079812e+003,3.052335e-003
3.081741e+003,2.984094e-003
3.083669e+003,2.808921e-003
3.085598e+003,2.583692e-003
3.087526e+003,2.415916e-003
3.089455e+003,2.260782e-003
3.091383e+003,2.097527e-003
3.093312e+003,1.859274e-003
3.095240e+003,1.715362e-003
3.097169e+003,1.518779e-003
3.099097e+003,1.202684e-003
3.101026e+003,9.335745e-004
3.102954e+003,7.696413e-004
3.104883e+003,5.696844e-004
3.106811e+003,4.637577e-004
3.108740e+003,4.171766e-004
3.110668e+003,3.514327e-004
3.112597e+003,2.413951e-004
3.114525e+003,2.075154e-004
3.116454e+003,1.379438e-004
3.118382e+003,2.273917e-005
3.120311e+003,-2.913363e-005
3.122239e+003,2.584048e-005
3.124168e+003,-4.095957e-005
3.126096e+003,-3.286265e-005
3.128025e+003,-9.668991e-006
3.129953e+003,-1.719613e-004
3.131882e+003,-1.834799e-004
3.133810e+003,-1.829695e-004
3.135739e+003,-2.606213e-004
3.137667e+003,-2.632309e-004
3.139596e+003,-2.520774e-004
3.141524e+003,-2.518259e-004
3.143453e+003,-2.111774e-004
3.145381e+003,-1.765303e-004
3.147310e+003,-2.359040e-004
3.149238e+003,-2.451055e-004
3.151167e+003,-2.087187e-004
3.153095e+003,-2.154727e-004
3.155024e+003,-2.054218e-004
3.156952e+003,-2.270937e-004
3.158881e+003,-2.808683e-004
3.160809e+003,-2.456848e-004
3.162738e+003,-1.485776e-004
3.164666e+003,-1.221318e-004
3.166594e+003,-1.213979e-004
3.168523e+003,-1.251567e-004
3.170452e+003,-1.015421e-004
3.172380e+003,1.917779e-005
3.174309e+003,2.523698e-005
3.176237e+003,-9.450689e-005
3.178166e+003,-1.071747e-004
3.180094e+003,-4.453398e-005
3.182022e+003,-1.521222e-005
3.183951e+003,5.947798e-005
3.185880e+003,2.354197e-005
3.187808e+003,-8.127652e-005
3.189737e+003,-4.362874e-005
3.191665e+003,6.891228e-005
3.193594e+003,1.199525e-004
3.195522e+003,5.513988e-005
3.197450e+003,-3.708526e-006
3.199379e+003,4.154257e-005
3.201308e+003,-2.009422e-005
3.203236e+003,-7.585809e-005
3.205165e+003,-6.096810e-005
3.207093e+003,3.607944e-006
3.209021e+003,1.343209e-004
3.210950e+003,1.250897e-004
3.212878e+003,7.443130e-005
3.214807e+003,1.340359e-005
3.216736e+003,9.313226e-007
3.218664e+003,1.524463e-004
3.220593e+003,1.530778e-004
3.222521e+003,2.441928e-006
3.224449e+003,-4.053675e-005
3.226378e+003,9.573251e-005
3.228307e+003,2.066847e-004
3.230235e+003,2.240203e-004
3.232164e+003,1.489799e-004
3.234092e+003,1.525413e-004
3.236021e+003,2.663005e-004
3.237949e+003,2.343077e-004
3.239877e+003,1.355782e-004
3.241806e+003,2.064146e-004
3.243735e+003,3.393088e-004
3.245663e+003,3.921743e-004
3.247592e+003,2.580974e-004
3.249520e+003,2.188403e-004
3.251448e+003,3.474392e-004
3.253377e+003,4.120693e-004
3.255305e+003,3.561210e-004
3.257234e+003,4.434772e-004
3.259163e+003,4.654750e-004
3.261091e+003,3.861133e-004
3.263020e+003,3.935583e-004
3.264948e+003,5.371328e-004
3.266876e+003,4.996751e-004
3.268805e+003,4.588626e-004
3.270733e+003,6.411579e-004
3.272662e+003,7.904284e-004
3.274591e+003,7.211715e-004
3.276519e+003,5.819239e-004
3.278448e+003,5.903877e-004
3.280376e+003,5.830247e-004
3.282304e+003,6.247405e-004
3.284233e+003,6.818119e-004
3.286161e+003,6.799139e-004
3.288090e+003,7.150955e-004
3.290019e+003,7.753130e-004
3.291947e+003,8.668378e-004
3.293875e+003,8.908398e-004
3.295804e+003,8.006804e-004
3.297732e+003,7.617511e-004
3.299661e+003,7.673427e-004
3.301589e+003,7.262286e-004
3.303518e+003,7.046908e-004
3.305447e+003,7.181745e-004
3.307375e+003,7.736627e-004
3.309303e+003,8.657649e-004
3.311232e+003,8.596778e-004
3.313160e+003,8.319914e-004
3.315089e+003,8.408744e-004
3.317018e+003,8.639898e-004
3.318946e+003,8.021779e-004
3.320875e+003,7.703435e-004
3.322803e+003,8.594282e-004
3.324731e+003,9.536818e-004
3.326660e+003,9.765830e-004
3.328588e+003,1.011543e-003
3.330517e+003,1.022352e-003
3.332446e+003,9.986199e-004
3.334374e+003,1.027556e-003
3.336302e+003,1.014950e-003
3.338231e+003,9.780824e-004
3.340159e+003,8.873586e-004
3.342088e+003,7.889699e-004
3.344016e+003,7.900801e-004
3.345945e+003,8.584168e-004
3.347874e+003,9.047855e-004
3.349802e+003,9.228103e-004
3.351730e+003,9.287409e-004
3.353659e+003,9.807721e-004
3.355587e+003,1.045223e-003
3.357516e+003,1.011986e-003
3.359444e+003,1.027731e-003
3.361373e+003,1.097877e-003
3.363302e+003,1.079373e-003
3.365230e+003,9.674076e-004
3.367158e+003,1.002254e-003
3.369087e+003,1.051601e-003
3.371015e+003,1.034381e-003
3.372944e+003,8.966029e-004
3.374872e+003,8.351598e-004
3.376801e+003,8.957945e-004
3.378729e+003,8.762684e-004
3.380658e+003,7.957481e-004
3.382586e+003,7.484909e-004
3.384515e+003,7.674750e-004
3.386443e+003,7.887725e-004
3.388372e+003,7.472634e-004
3.390300e+003,6.925315e-004
3.392229e+003,8.603483e-004
3.394157e+003,8.653421e-004
3.396086e+003,7.220246e-004
3.398014e+003,6.804559e-004
3.399943e+003,6.247237e-004
3.401871e+003,6.084442e-004
3.403800e+003,5.124826e-004
3.405728e+003,3.797337e-004
3.407657e+003,3.667306e-004
3.409585e+003,3.796164e-004
3.411514e+003,3.547296e-004
3.413442e+003,3.890581e-004
3.415371e+003,4.378427e-004
3.417299e+003,4.591029e-004
3.419228e+003,5.956218e-004
3.421156e+003,6.952155e-004
3.423085e+003,5.373377e-004
3.425013e+003,3.891289e-004
3.426942e+003,4.987083e-004
3.428870e+003,5.403236e-004
3.430799e+003,5.215071e-004
3.432727e+003,3.826804e-004
3.434656e+003,1.891982e-004
3.436584e+003,1.808219e-004
3.438513e+003,3.450867e-004
3.440441e+003,4.371591e-004
3.442370e+003,5.371347e-004
3.444298e+003,4.763473e-004
3.446227e+003,6.582830e-004
3.448155e+003,6.668959e-004
3.450084e+003,2.919380e-004
3.452012e+003,2.571028e-004
3.453941e+003,2.104435e-004
3.455869e+003,6.665103e-005
3.457798e+003,-5.639717e-005
3.459726e+003,-9.734742e-005
3.461655e+003,7.600151e-005
3.463583e+003,-2.573989e-005
3.465512e+003,-2.031643e-004
3.467440e+003,-5.231425e-005
3.469369e+003,-1.601540e-004
3.471297e+003,-3.510676e-004
3.473226e+003,-2.711229e-004
3.475154e+003,-1.039095e-004
3.477083e+003,-1.724642e-004
3.479011e+003,-2.158359e-004
3.480940e+003,1.150556e-005
3.482868e+003,-1.653843e-005
3.484797e+003,-2.728533e-004
3.486725e+003,-1.342874e-004
3.488654e+003,-1.096986e-004
3.490582e+003,-3.709625e-004
3.492511e+003,-5.448945e-004
3.494439e+003,-4.551504e-004
3.496368e+003,-3.850199e-004
3.498296e+003,-4.625432e-004
3.500225e+003,-1.707785e-004
3.502153e+003,3.085881e-004
3.504082e+003,2.371985e-004
3.506010e+003,-2.384260e-004
3.507939e+003,-1.235250e-004
3.509867e+003,3.726035e-005
3.511796e+003,-2.891272e-004
3.513724e+003,-5.397778e-004
3.515653e+003,-7.116385e-004
3.517581e+003,-6.458834e-004
3.519510e+003,-5.470216e-004
3.521438e+003,-3.179871e-004
3.523367e+003,1.892652e-004
3.525295e+003,-1.331046e-004
3.527224e+003,-2.155770e-004
3.529152e+003,-1.918525e-004
3.531081e+003,-5.649608e-004
3.533009e+003,-9.487588e-004
3.534938e+003,-8.429792e-004
3.536866e+003,-5.565602e-004
3.538795e+003,-8.780584e-004
3.540723e+003,-9.188130e-004
3.542652e+003,-3.721043e-004
3.544580e+003,2.320223e-004
3.546509e+003,3.495365e-004
3.548437e+003,-1.714565e-004
3.550366e+003,-6.330367e-004
3.552294e+003,-4.659854e-004
3.554223e+003,-8.294266e-004
3.556151e+003,-1.177220e-003
3.558080e+003,-1.047723e-003
3.560008e+003,-7.022619e-004
3.561937e+003,-4.888717e-004
3.563865e+003,-9.458326e-005
3.565794e+003,8.813720e-004
3.567722e+003,1.274891e-003
3.569651e+003,-2.011321e-004
3.571579e+003,-9.676423e-004
3.573508e+003,-8.116364e-004
3.575436e+003,-7.057823e-004
3.577365e+003,-9.646099e-004
3.579293e+003,-9.367839e-004
3.581222e+003,-1.017950e-003
3.583150e+003,-1.086749e-003
3.585079e+003,-8.983798e-004
3.587007e+003,4.058629e-004
3.588936e+003,6.008875e-004
3.590864e+003,-3.584512e-004
3.592793e+003,-2.265777e-004
3.594721e+003,7.839147e-004
3.596650e+003,1.079518e-003
3.598578e+003,1.134412e-003
3.600507e+003,1.559012e-003
3.602435e+003,1.424246e-003
3.604364e+003,9.741802e-004
3.606292e+003,1.321429e-003
3.608221e+003,2.237858e-003
3.610149e+003,1.588909e-003
3.612078e+003,1.117520e-003
3.614006e+003,1.632154e-003
3.615935e+003,6.967429e-004
3.617863e+003,7.395931e-004
3.619792e+003,1.312111e-003
3.621720e+003,1.669656e-004
3.623649e+003,-3.545154e-004
3.625577e+003,-3.042631e-005
3.627506e+003,6.860290e-004
3.629434e+003,2.652673e-003
3.631363e+003,6.800946e-004
3.633291e+003,-2.133045e-004
3.635220e+003,-3.104955e-004
3.637148e+003,-7.356871e-004
3.639077e+003,-5.115625e-004
3.641005e+003,-3.470536e-004
3.642934e+003,-1.287051e-004
3.644862e+003,-1.373664e-004
3.646791e+003,1.229646e-003
3.648719e+003,2.265278e-003
3.650648e+003,2.235385e-003
3.652576e+003,7.629097e-004
3.654505e+003,-3.400501e-004
3.656433e+003,5.986746e-004
3.658362e+003,-2.049636e-004
3.660290e+003,-1.280256e-003
3.662219e+003,-1.501428e-003
3.664147e+003,-1.403291e-003
3.666076e+003,-1.174618e-003
3.668004e+003,-7.902458e-004
3.669933e+003,1.448235e-003
3.671861e+003,4.707519e-004
3.673790e+003,-9.635370e-004
3.675718e+003,2.717350e-003
3.677647e+003,1.211204e-003
3.679575e+003,-3.269259e-004
3.681504e+003,-8.432902e-004
3.683432e+003,-9.594001e-004
3.685361e+003,-8.643568e-004
3.687289e+003,-3.434736e-004
3.689218e+003,1.471322e-003
3.691146e+003,7.406157e-004
3.693075e+003,-4.856326e-004
3.695003e+003,-1.122084e-003
3.696932e+003,-1.230024e-003
3.698860e+003,-1.501868e-003
3.700789e+003,-8.132979e-004
3.702717e+003,-1.744907e-004
3.704646e+003,-9.043980e-004
3.706574e+003,-1.018658e-003
3.708503e+003,-4.703458e-004
3.710431e+003,3.947914e-004
3.712360e+003,8.482784e-004
3.714288e+003,-9.204075e-005
3.716217e+003,-1.039194e-003
3.718145e+003,-6.814636e-004
3.720074e+003,-4.124902e-004
3.722002e+003,-4.731119e-007
3.723931e+003,-9.185821e-005
3.725859e+003,1.687482e-004
3.727788e+003,5.127862e-005
3.729716e+003,-9.581819e-004
3.731645e+003,8.602813e-005
3.733573e+003,1.368072e-003
3.735502e+003,1.805332e-003
3.737430e+003,8.273087e-004
3.739359e+003,4.392900e-004
3.741287e+003,5.196258e-004
3.743216e+003,1.675375e-004
3.745144e+003,2.398141e-003
3.747073e+003,1.580346e-003
3.749001e+003,1.791332e-003
3.750930e+003,2.857011e-003
3.752858e+003,1.563691e-003
3.754787e+003,3.337562e-004
3.756715e+003,4.365295e-005
3.758644e+003,4.874058e-004
3.760572e+003,5.415976e-004
3.762501e+003,-6.043725e-004
3.764429e+003,-6.123856e-004
3.766358e+003,-7.420778e-005
3.768286e+003,-8.669626e-004
3.770215e+003,-3.266707e-005
3.772143e+003,-4.274510e-004
3.774072e+003,-1.017168e-003
3.776000e+003,-8.388795e-004
3.777929e+003,-2.497025e-004
3.779857e+003,6.499849e-004
3.781786e+003,-1.516379e-004
3.783714e+003,-2.300479e-004
3.785643e+003,1.050048e-004
3.787571e+003,-6.365962e-004
3.789500e+003,-9.360015e-004
3.791428e+003,-6.470568e-004
3.793357e+003,-8.585118e-004
3.795285e+003,-4.866533e-004
3.797214e+003,1.027722e-003
3.799142e+003,5.958602e-005
3.801071e+003,1.264151e-003
3.802999e+003,2.050430e-003
3.804927e+003,-2.196543e-004
3.806856e+003,7.134229e-004
3.808785e+003,4.869401e-004
3.810713e+003,-5.620345e-004
3.812642e+003,-5.808584e-004
3.814570e+003,-2.358928e-004
3.816499e+003,1.863126e-003
3.818427e+003,8.064136e-004
3.820355e+003,1.208067e-003
3.822284e+003,2.235219e-003
3.824213e+003,5.582720e-005
3.826141e+003,2.743900e-004
3.828070e+003,5.060174e-004
3.829998e+003,-1.108050e-004
3.831927e+003,8.690059e-004
3.833855e+003,1.342922e-003
3.835783e+003,1.302723e-003
3.837712e+003,1.750324e-003
3.839641e+003,1.980092e-003
3.841569e+003,7.410012e-004
3.843498e+003,5.320311e-004
3.845426e+003,3.761537e-004
3.847354e+003,5.577505e-005
3.849283e+003,7.488057e-004
3.851211e+003,1.466930e-003
3.853140e+003,3.456980e-003
3.855069e+003,2.292313e-003
3.856997e+003,7.464401e-004
3.858926e+003,-2.403185e-005
3.860854e+003,4.685782e-004
3.862782e+003,1.199454e-003
3.864711e+003,2.024870e-003
3.866640e+003,1.104340e-003
3.868568e+003,7.931069e-004
3.870497e+003,2.892070e-003
3.872425e+003,1.209624e-003
3.874354e+003,1.393132e-003
3.876282e+003,9.566918e-004
3.878210e+003,-2.950430e-005
3.880139e+003,1.870688e-003
3.882068e+003,2.071518e-003
3.883996e+003,8.431040e-004
3.885925e+003,1.766335e-003
3.887853e+003,6.517768e-004
3.889781e+003,-8.235499e-005
3.891710e+003,1.487330e-003
3.893638e+003,1.086321e-003
3.895567e+003,4.728027e-004
3.897496e+003,1.036011e-003
3.899424e+003,2.410050e-003
3.901353e+003,2.539687e-003
3.903281e+003,2.523713e-003
3.905209e+003,2.360199e-003
3.907138e+003,8.416548e-004
3.909066e+003,2.839416e-005
3.910995e+003,3.079623e-004
3.912924e+003,5.097911e-004
3.914852e+003,6.895997e-004
3.916781e+003,1.402330e-003
3.918709e+003,1.200926e-003
3.920637e+003,6.717108e-004
3.922566e+003,4.897192e-004
3.924494e+003,1.259033e-003
3.926423e+003,9.073690e-004
3.928352e+003,4.836917e-004
3.930280e+003,1.278602e-003
3.932208e+003,1.650587e-003
3.934137e+003,7.768273e-004
3.936065e+003,-1.252778e-004
3.937994e+003,1.325533e-004
3.939922e+003,2.324209e-004
3.941851e+003,6.613545e-004
3.943780e+003,9.699576e-004
3.945708e+003,3.661476e-004
3.947636e+003,5.715229e-004
3.949565e+003,8.588843e-004
3.951493e+003,4.655272e-004
3.953422e+003,1.071505e-004
3.955351e+003,5.094334e-005
3.957279e+003,2.009682e-004
3.959208e+003,2.061762e-004
3.961136e+003,2.930909e-004
3.963064e+003,2.483614e-004
3.964993e+003,-9.103119e-005
3.966921e+003,-1.605600e-006
3.968850e+003,2.240986e-004
3.970779e+003,2.767220e-004
3.972707e+003,2.222024e-004
3.974635e+003,2.596863e-004
3.976564e+003,2.552569e-004
3.978492e+003,8.038431e-005
3.980421e+003,6.832555e-005
3.982349e+003,1.511686e-004
3.984278e+003,9.439886e-005
3.986207e+003,-1.470745e-005
3.988135e+003,3.755093e-006
3.990063e+003,1.745485e-004
3.991992e+003,1.763925e-004
3.993920e+003,1.424477e-004
3.995849e+003,5.172938e-005
3.997777e+003,-9.611621e-005
3.999706e+003,3.837049e-007
4.001635e+003,0.000000e+000
