3.991992e+002,0.000000e+000
4.011277e+002,0.000000e+000
4.030562e+002,0.000000e+000
4.049846e+002,0.000000e+000
4.069131e+002,0.000000e+000
4.088416e+002,0.000000e+000
4.107701e+002,0.000000e+000
4.126986e+002,0.000000e+000
4.146271e+002,0.000000e+000
4.165556e+002,0.000000e+000
4.184841e+002,0.000000e+000
4.204126e+002,0.000000e+000
4.223411e+002,0.000000e+000
4.242697e+002,0.000000e+000
4.261982e+002,0.000000e+000
4.281266e+002,0.000000e+000
4.300551e+002,0.000000e+000
4.319836e+002,0.000000e+000
4.339121e+002,0.000000e+000
4.358406e+002,0.000000e+000
4.377691e+002,0.000000e+000
4.396976e+002,0.000000e+000
4.416261e+002,0.000000e+000
4.435546e+002,0.000000e+000
4.454831e+002,0.000000e+000
4.474116e+002,0.000000e+000
4.493401e+002,0.000000e+000
4.512686e+002,0.000000e+000
4.531971e+002,0.000000e+000
4.551256e+002,0.000000e+000
4.570541e+002,0.000000e+000
4.589826e+002,0.000000e+000
4.609111e+002,0.000000e+000
4.628396e+002,0.000000e+000
4.647681e+002,0.000000e+000
4.666966e+002,0.000000e+000
4.686251e+002,0.000000e+000
4.705536e+002,0.000000e+000
4.724821e+002,0.000000e+000
4.744106e+002,0.000000e+000
4.763391e+002,0.000000e+000
4.782676e+002,0.000000e+000
4.801961e+002,0.000000e+000
4.821246e+002,0.000000e+000
4.840531e+002,0.000000e+000
4.859816e+002,0.000000e+000
4.879101e+002,0.000000e+000
4.898386e+002,0.000000e+000
4.917671e+002,0.000000e+000
4.936956e+002,0.000000e+000
4.956241e+002,0.000000e+000
4.975526e+002,0.000000e+000
4.994811e+002,0.000000e+000
5.014096e+002,0.000000e+000
5.033381e+002,0.000000e+000
5.052666e+002,0.000000e+000
5.071951e+002,0.000000e+000
5.091236e+002,0.000000e+000
5.110521e+002,0.000000e+000
5.129806e+002,0.000000e+000
5.149091e+002,0.000000e+000
5.168376e+002,0.000000e+000
5.187661e+002,0.000000e+000
5.206946e+002,0.000000e+000
5.226230e+002,0.000000e+000
5.245516e+002,-1.347158e-004
5.264800e+002,-5.114637e-005
5.284086e+002,-5.012285e-005
5.303370e+002,-5.269144e-005
5.322656e+002,-1.715813e-004
5.341940e+002,-2.801390e-004
5.361226e+002,-3.944822e-004
5.380510e+002,-3.889129e-004
5.399796e+002,-3.801957e-004
5.419081e+002,-3.840597e-004
5.438365e+002,-5.756803e-004
5.457650e+002,-6.229365e-004
5.476935e+002,-5.832445e-004
5.496221e+002,-5.009305e-004
5.515505e+002,-5.685566e-004
5.534790e+002,-5.121091e-004
5.554075e+002,-6.528404e-004
5.573361e+002,-7.400224e-004
5.592645e+002,-7.408392e-004
5.611931e+002,-6.203083e-004
5.631215e+002,-6.283857e-004
5.650500e+002,-5.993173e-004
5.669785e+002,-5.185558e-004
5.689070e+002,-3.954861e-004
5.708355e+002,-5.047796e-004
5.727640e+002,-5.261218e-004
5.746925e+002,-5.978411e-004
5.766210e+002,-5.900050e-004
5.785495e+002,-4.870305e-004
5.804780e+002,-4.426697e-004
5.824065e+002,-5.075829e-004
5.843350e+002,-4.566424e-004
5.862635e+002,-5.610585e-004
5.881920e+002,-5.905367e-004
5.901205e+002,-6.313836e-004
5.920490e+002,-6.633634e-004
5.939775e+002,-6.472198e-004
5.959060e+002,-5.543651e-004
5.978345e+002,-5.971333e-004
5.997630e+002,-5.324604e-004
6.016915e+002,-4.413575e-004
6.036200e+002,-4.054829e-004
6.055485e+002,-4.030149e-004
6.074770e+002,-3.617043e-004
6.094055e+002,-4.159464e-004
6.113340e+002,-3.241152e-004
6.132625e+002,-4.465552e-004
6.151910e+002,-5.409271e-004
6.171195e+002,-5.330229e-004
6.190480e+002,-4.375046e-004
6.209765e+002,-3.636163e-004
6.229050e+002,-2.457220e-004
6.248335e+002,-2.230480e-004
6.267620e+002,-2.119793e-004
6.286905e+002,-3.041802e-004
6.306190e+002,-2.775006e-004
6.325475e+002,-2.111057e-004
6.344760e+002,-1.245569e-004
6.364045e+002,-1.238221e-004
6.383330e+002,-3.254972e-005
6.402615e+002,2.231356e-005
6.421899e+002,8.719973e-006
6.441185e+002,3.157184e-006
6.460470e+002,9.229220e-005
6.479755e+002,9.544194e-006
6.499039e+002,-3.593042e-006
6.518325e+002,1.318753e-005
6.537610e+002,2.663489e-005
6.556895e+002,7.022452e-005
6.576179e+002,1.201238e-004
6.595464e+002,9.235181e-005
6.614750e+002,1.684306e-004
6.634034e+002,1.640348e-004
6.653319e+002,3.927667e-005
6.672604e+002,-5.830266e-005
6.691890e+002,9.231828e-005
6.711174e+002,8.366816e-005
6.730460e+002,1.010131e-004
6.749745e+002,9.013992e-005
6.769030e+002,1.640487e-004
6.788314e+002,1.295162e-004
6.807599e+002,1.648944e-004
6.826885e+002,1.880582e-004
6.846169e+002,1.353333e-004
6.865454e+002,2.162615e-004
6.884739e+002,3.876500e-004
6.904025e+002,3.119772e-004
6.923309e+002,4.153270e-004
6.942594e+002,5.203011e-004
6.961879e+002,5.745068e-004
6.981165e+002,5.603582e-004
7.000449e+002,6.317170e-004
7.019734e+002,6.139074e-004
7.039019e+002,6.553680e-004
7.058304e+002,6.993860e-004
7.077589e+002,7.316861e-004
7.096874e+002,6.910833e-004
7.116159e+002,6.899079e-004
7.135444e+002,6.642574e-004
7.154729e+002,6.448235e-004
7.174014e+002,6.718757e-004
7.193299e+002,7.945923e-004
7.212584e+002,8.496847e-004
7.231869e+002,8.585881e-004
7.251154e+002,7.756362e-004
7.270439e+002,8.089701e-004
7.289724e+002,7.784152e-004
7.309009e+002,7.696943e-004
7.328294e+002,6.624451e-004
7.347579e+002,6.294856e-004
7.366864e+002,6.384971e-004
7.386149e+002,6.319406e-004
7.405434e+002,5.744742e-004
7.424719e+002,6.101644e-004
7.444004e+002,5.878704e-004
7.463289e+002,6.052051e-004
7.482574e+002,6.065480e-004
7.501859e+002,6.114012e-004
7.521144e+002,6.082403e-004
7.540428e+002,6.462457e-004
7.559714e+002,6.222241e-004
7.578999e+002,6.626174e-004
7.598284e+002,6.781137e-004
7.617568e+002,6.966507e-004
7.636854e+002,6.526476e-004
7.656139e+002,6.883759e-004
7.675424e+002,7.797861e-004
7.694709e+002,8.643763e-004
7.713994e+002,8.493401e-004
7.733279e+002,8.497620e-004
7.752563e+002,8.295793e-004
7.771849e+002,9.266660e-004
7.791134e+002,1.038415e-003
7.810419e+002,1.179580e-003
7.829703e+002,1.295777e-003
7.848989e+002,1.490867e-003
7.868274e+002,1.702350e-003
7.887559e+002,1.998744e-003
7.906843e+002,2.276463e-003
7.926129e+002,2.564428e-003
7.945414e+002,2.781013e-003
7.964698e+002,3.077426e-003
7.983983e+002,3.455373e-003
8.003268e+002,3.938211e-003
8.022554e+002,4.556124e-003
8.041838e+002,5.849191e-003
8.061123e+002,7.787302e-003
8.080408e+002,9.456410e-003
8.099694e+002,9.348345e-003
8.118978e+002,7.533829e-003
8.138263e+002,5.437951e-003
8.157548e+002,4.173031e-003
8.176833e+002,3.565796e-003
8.196118e+002,3.302958e-003
8.215403e+002,3.138104e-003
8.234689e+002,3.138352e-003
8.253973e+002,3.272152e-003
8.273258e+002,3.512443e-003
8.292543e+002,3.794404e-003
8.311829e+002,4.285167e-003
8.331113e+002,4.943027e-003
8.350398e+002,6.210422e-003
8.369683e+002,9.449735e-003
8.388969e+002,1.655277e-002
8.408253e+002,2.091230e-002
8.427538e+002,1.537972e-002
8.446823e+002,8.371876e-003
8.466108e+002,5.285652e-003
8.485393e+002,4.036922e-003
8.504678e+002,3.362823e-003
8.523963e+002,3.070046e-003
8.543248e+002,2.900141e-003
8.562533e+002,2.689633e-003
8.581818e+002,2.526693e-003
8.601103e+002,2.389328e-003
8.620388e+002,2.379268e-003
8.639673e+002,2.348759e-003
8.658958e+002,2.289704e-003
8.678243e+002,2.176341e-003
8.697528e+002,2.144773e-003
8.716813e+002,2.134415e-003
8.736098e+002,2.119639e-003
8.755383e+002,2.074662e-003
8.774668e+002,2.079183e-003
8.793953e+002,2.074619e-003
8.813238e+002,2.126703e-003
8.832523e+002,2.240010e-003
8.851808e+002,2.448462e-003
8.871093e+002,2.607552e-003
8.890378e+002,2.814185e-003
8.909663e+002,3.126728e-003
8.928948e+002,3.859529e-003
8.948232e+002,5.294610e-003
8.967518e+002,7.434614e-003
8.986803e+002,8.828410e-003
9.006088e+002,8.147456e-003
9.025372e+002,6.013132e-003
9.044658e+002,4.201762e-003
9.063943e+002,3.162103e-003
9.083228e+002,2.674975e-003
9.102512e+002,2.440680e-003
9.121797e+002,2.391149e-003
9.141083e+002,2.284545e-003
9.160367e+002,2.206404e-003
9.179653e+002,2.158272e-003
9.198937e+002,2.174625e-003
9.218223e+002,2.206482e-003
9.237507e+002,2.310954e-003
9.256793e+002,2.369673e-003
9.276077e+002,2.431983e-003
9.295363e+002,2.496663e-003
9.314647e+002,2.630656e-003
9.333932e+002,2.798259e-003
9.353217e+002,3.166633e-003
9.372502e+002,3.801170e-003
9.391787e+002,4.427142e-003
9.411072e+002,4.498758e-003
9.430358e+002,4.199879e-003
9.449642e+002,3.860302e-003
9.468928e+002,3.757905e-003
9.488212e+002,3.754443e-003
9.507498e+002,3.882402e-003
9.526782e+002,4.094873e-003
9.546068e+002,4.419294e-003
9.565352e+002,4.747974e-003
9.584637e+002,5.256459e-003
9.603922e+002,5.971728e-003
9.623207e+002,6.918356e-003
9.642492e+002,8.262824e-003
9.661777e+002,1.062695e-002
9.681062e+002,1.509715e-002
9.700347e+002,2.227775e-002
9.719632e+002,2.787662e-002
9.738917e+002,2.628251e-002
9.758202e+002,2.000971e-002
9.777487e+002,1.410738e-002
9.796772e+002,1.003647e-002
9.816057e+002,7.802634e-003
9.835342e+002,6.797872e-003
9.854627e+002,6.668246e-003
9.873912e+002,7.096092e-003
9.893197e+002,8.277148e-003
9.912482e+002,1.049253e-002
9.931767e+002,1.451299e-002
9.951052e+002,2.049686e-002
9.970337e+002,2.506689e-002
9.989622e+002,2.314906e-002
1.000891e+003,1.678456e-002
1.002819e+003,1.160069e-002
1.004748e+003,8.901008e-003
1.006676e+003,7.543103e-003
1.008605e+003,6.931707e-003
1.010533e+003,6.638617e-003
1.012462e+003,6.567008e-003
1.014390e+003,6.582186e-003
1.016319e+003,6.680039e-003
1.018247e+003,6.668096e-003
1.020176e+003,6.564716e-003
1.022104e+003,6.387982e-003
1.024033e+003,6.291195e-003
1.025961e+003,6.205318e-003
1.027890e+003,6.178391e-003
1.029818e+003,6.116576e-003
1.031747e+003,6.206150e-003
1.033675e+003,6.374906e-003
1.035604e+003,6.516740e-003
1.037532e+003,6.554983e-003
1.039461e+003,6.739422e-003
1.041389e+003,7.126422e-003
1.043318e+003,7.576297e-003
1.045246e+003,7.557357e-003
1.047175e+003,7.093741e-003
1.049103e+003,6.465578e-003
1.051032e+003,6.064311e-003
1.052960e+003,5.743489e-003
1.054889e+003,5.556940e-003
1.056817e+003,5.480401e-003
1.058746e+003,5.457647e-003
1.060674e+003,5.361741e-003
1.062603e+003,5.353499e-003
1.064531e+003,5.359362e-003
1.066460e+003,5.436067e-003
1.068388e+003,5.428355e-003
1.070317e+003,5.458923e-003
1.072245e+003,5.521606e-003
1.074174e+003,5.667225e-003
1.076102e+003,5.806121e-003
1.078031e+003,5.975284e-003
1.079959e+003,6.158779e-003
1.081888e+003,6.416804e-003
1.083816e+003,6.504625e-003
1.085745e+003,6.591921e-003
1.087673e+003,6.730881e-003
1.089602e+003,6.980249e-003
1.091530e+003,7.226801e-003
1.093459e+003,7.546311e-003
1.095387e+003,7.967771e-003
1.097316e+003,8.589998e-003
1.099244e+003,9.340565e-003
1.101173e+003,9.996302e-003
1.103101e+003,1.000195e-002
1.105030e+003,9.306519e-003
1.106958e+003,8.392455e-003
1.108887e+003,7.774388e-003
1.110815e+003,7.362039e-003
1.112744e+003,7.195157e-003
1.114672e+003,7.055922e-003
1.116601e+003,6.963226e-003
1.118529e+003,6.836335e-003
1.120458e+003,6.724360e-003
1.122386e+003,6.562414e-003
1.124315e+003,6.468093e-003
1.126243e+003,6.383050e-003
1.128172e+003,6.385312e-003
1.130100e+003,6.479150e-003
1.132029e+003,6.710028e-003
1.133957e+003,7.002738e-003
1.135885e+003,7.441278e-003
1.137814e+003,8.007033e-003
1.139743e+003,8.805188e-003
1.141671e+003,9.703194e-003
1.143600e+003,1.075296e-002
1.145528e+003,1.192198e-002
1.147457e+003,1.341950e-002
1.149385e+003,1.508446e-002
1.151314e+003,1.657522e-002
1.153242e+003,1.742674e-002
1.155171e+003,1.796386e-002
1.157099e+003,1.862790e-002
1.159028e+003,1.975160e-002
1.160956e+003,2.142486e-002
1.162885e+003,2.404916e-002
1.164813e+003,2.713652e-002
1.166742e+003,2.901567e-002
1.168670e+003,2.711016e-002
1.170599e+003,2.173262e-002
1.172527e+003,1.608531e-002
1.174456e+003,1.217152e-002
1.176384e+003,9.786199e-003
1.178313e+003,8.442355e-003
1.180241e+003,7.580587e-003
1.182170e+003,7.103235e-003
1.184098e+003,6.782589e-003
1.186027e+003,6.649493e-003
1.187955e+003,6.540594e-003
1.189884e+003,6.522668e-003
1.191812e+003,6.472250e-003
1.193740e+003,6.496961e-003
1.195669e+003,6.503168e-003
1.197598e+003,6.578345e-003
1.199526e+003,6.644504e-003
1.201455e+003,6.764846e-003
1.203383e+003,6.890406e-003
1.205312e+003,7.118783e-003
1.207240e+003,7.332576e-003
1.209168e+003,7.567752e-003
1.211097e+003,7.807872e-003
1.213026e+003,8.191045e-003
1.214954e+003,8.618637e-003
1.216883e+003,9.085618e-003
1.218811e+003,9.294699e-003
1.220740e+003,9.215109e-003
1.222668e+003,8.866103e-003
1.224596e+003,8.582284e-003
1.226525e+003,8.429321e-003
1.228453e+003,8.433707e-003
1.230382e+003,8.441221e-003
1.232311e+003,8.537046e-003
1.234239e+003,8.611610e-003
1.236167e+003,8.705846e-003
1.238096e+003,8.722804e-003
1.240025e+003,8.852558e-003
1.241953e+003,8.933540e-003
1.243882e+003,9.089076e-003
1.245810e+003,9.183963e-003
1.247739e+003,9.354744e-003
1.249667e+003,9.660812e-003
1.251595e+003,1.049242e-002
1.253524e+003,1.173665e-002
1.255453e+003,1.226089e-002
1.257381e+003,1.112201e-002
1.259310e+003,9.617136e-003
1.261238e+003,8.514998e-003
1.263167e+003,7.871946e-003
1.265095e+003,7.316292e-003
1.267023e+003,6.913186e-003
1.268952e+003,6.594603e-003
1.270880e+003,6.453608e-003
1.272809e+003,6.351891e-003
1.274738e+003,6.367153e-003
1.276666e+003,6.373471e-003
1.278594e+003,6.486156e-003
1.280523e+003,6.587206e-003
1.282451e+003,6.741983e-003
1.284380e+003,6.848073e-003
1.286308e+003,7.112492e-003
1.288237e+003,7.432443e-003
1.290166e+003,7.964964e-003
1.292094e+003,8.574154e-003
1.294022e+003,9.261473e-003
1.295951e+003,9.596281e-003
1.297879e+003,9.637143e-003
1.299808e+003,9.741749e-003
1.301736e+003,1.071847e-002
1.303665e+003,1.181578e-002
1.305594e+003,1.113464e-002
1.307522e+003,8.915254e-003
1.309450e+003,7.514111e-003
1.311379e+003,6.997969e-003
1.313307e+003,6.991083e-003
1.315236e+003,7.055854e-003
1.317164e+003,7.320667e-003
1.319093e+003,7.528624e-003
1.321021e+003,7.979202e-003
1.322950e+003,8.547418e-003
1.324878e+003,9.443669e-003
1.326807e+003,1.008359e-002
1.328735e+003,1.052335e-002
1.330664e+003,1.029001e-002
1.332592e+003,9.783848e-003
1.334521e+003,9.276625e-003
1.336449e+003,9.253622e-003
1.338378e+003,9.377941e-003
1.340306e+003,9.830656e-003
1.342235e+003,1.021968e-002
1.344163e+003,1.109524e-002
1.346092e+003,1.213646e-002
1.348021e+003,1.374094e-002
1.349949e+003,1.570756e-002
1.351877e+003,1.881379e-002
1.353806e+003,2.322777e-002
1.355734e+003,2.948509e-002
1.357663e+003,3.403751e-002
1.359591e+003,3.446655e-002
1.361520e+003,3.094187e-002
1.363448e+003,2.807536e-002
1.365377e+003,2.805777e-002
1.367305e+003,3.322125e-002
1.369234e+003,4.725667e-002
1.371162e+003,7.234029e-002
1.373091e+003,1.068729e-001
1.375019e+003,1.362180e-001
1.376948e+003,1.221504e-001
1.378876e+003,8.494332e-002
1.380805e+003,5.277547e-002
1.382733e+003,3.210692e-002
1.384662e+003,2.024257e-002
1.386590e+003,1.377046e-002
1.388519e+003,1.034976e-002
1.390447e+003,8.791625e-003
1.392376e+003,8.258354e-003
1.394304e+003,7.789545e-003
1.396233e+003,7.588429e-003
1.398161e+003,7.329996e-003
1.400090e+003,7.333127e-003
1.402018e+003,7.227514e-003
1.403947e+003,7.333772e-003
1.405875e+003,7.329264e-003
1.407804e+003,7.486963e-003
1.409732e+003,7.618112e-003
1.411661e+003,7.940617e-003
1.413589e+003,8.203048e-003
1.415518e+003,8.552598e-003
1.417446e+003,8.865791e-003
1.419375e+003,9.274708e-003
1.421303e+003,9.617423e-003
1.423232e+003,1.024465e-002
1.425160e+003,1.121831e-002
1.427089e+003,1.240359e-002
1.429017e+003,1.477841e-002
1.430946e+003,1.966539e-002
1.432874e+003,2.652897e-002
1.434803e+003,3.210317e-002
1.436731e+003,3.314208e-002
1.438660e+003,3.264702e-002
1.440588e+003,3.501759e-002
1.442517e+003,4.096013e-002
1.444445e+003,5.078977e-002
1.446374e+003,6.300930e-002
1.448302e+003,7.663347e-002
1.450231e+003,8.321130e-002
1.452159e+003,8.544477e-002
1.454088e+003,8.555248e-002
1.456016e+003,8.541113e-002
1.457945e+003,8.215275e-002
1.459873e+003,7.960734e-002
1.461802e+003,7.558277e-002
1.463730e+003,6.904480e-002
1.465659e+003,5.578707e-002
1.467587e+003,4.480354e-002
1.469516e+003,3.554293e-002
1.471444e+003,2.743146e-002
1.473373e+003,1.782910e-002
1.475301e+003,1.359638e-002
1.477230e+003,1.048813e-002
1.479158e+003,8.813722e-003
1.481087e+003,7.500260e-003
1.483015e+003,6.526710e-003
1.484944e+003,5.834648e-003
1.486872e+003,5.416439e-003
1.488801e+003,4.953777e-003
1.490729e+003,4.592227e-003
1.492658e+003,4.234104e-003
1.494586e+003,4.141950e-003
1.496515e+003,3.992750e-003
1.498443e+003,3.901673e-003
1.500372e+003,3.708764e-003
1.502300e+003,3.611306e-003
1.504229e+003,3.555944e-003
1.506157e+003,3.616227e-003
1.508086e+003,3.523826e-003
1.510014e+003,3.506212e-003
1.511943e+003,3.368643e-003
1.513871e+003,3.400402e-003
1.515800e+003,3.573914e-003
1.517728e+003,3.552716e-003
1.519657e+003,3.477678e-003
1.521585e+003,3.379174e-003
1.523514e+003,3.352486e-003
1.525442e+003,3.410253e-003
1.527371e+003,3.419233e-003
1.529299e+003,3.394901e-003
1.531228e+003,3.379942e-003
1.533156e+003,3.578125e-003
1.535085e+003,3.646055e-003
1.537013e+003,3.669784e-003
1.538942e+003,3.664026e-003
1.540870e+003,3.542924e-003
1.542799e+003,3.605241e-003
1.544727e+003,3.643493e-003
1.546656e+003,3.530268e-003
1.548584e+003,3.634348e-003
1.550513e+003,3.711348e-003
1.552441e+003,3.765983e-003
1.554370e+003,3.833435e-003
1.556298e+003,3.654104e-003
1.558227e+003,3.113263e-003
1.560155e+003,3.089700e-003
1.562084e+003,3.235004e-003
1.564012e+003,3.286112e-003
1.565941e+003,3.261650e-003
1.567869e+003,3.248320e-003
1.569798e+003,3.212117e-003
1.571726e+003,3.165859e-003
1.573655e+003,3.209659e-003
1.575583e+003,3.251772e-003
1.577512e+003,3.117091e-003
1.579440e+003,3.041067e-003
1.581369e+003,3.062177e-003
1.583297e+003,3.099451e-003
1.585226e+003,3.125802e-003
1.587154e+003,3.137331e-003
1.589083e+003,3.167154e-003
1.591011e+003,3.241023e-003
1.592940e+003,3.304440e-003
1.594868e+003,3.344485e-003
1.596797e+003,3.327790e-003
1.598725e+003,3.363350e-003
1.600654e+003,3.415992e-003
1.602582e+003,3.418371e-003
1.604511e+003,3.434218e-003
1.606439e+003,3.512424e-003
1.608368e+003,3.611662e-003
1.610296e+003,3.709583e-003
1.612225e+003,3.773653e-003
1.614153e+003,3.807512e-003
1.616082e+003,3.910241e-003
1.618010e+003,3.978238e-003
1.619939e+003,4.031793e-003
1.621867e+003,4.236966e-003
1.623796e+003,4.393653e-003
1.625724e+003,4.423880e-003
1.627653e+003,4.619718e-003
1.629581e+003,4.774667e-003
1.631510e+003,4.844601e-003
1.633438e+003,4.899463e-003
1.635367e+003,5.024165e-003
1.637295e+003,5.072701e-003
1.639224e+003,5.022206e-003
1.641152e+003,5.082550e-003
1.643081e+003,5.257317e-003
1.645009e+003,5.472274e-003
1.646938e+003,5.665712e-003
1.648866e+003,5.502264e-003
1.650795e+003,5.380861e-003
1.652723e+003,5.160124e-003
1.654652e+003,5.080533e-003
1.656580e+003,5.070986e-003
1.658509e+003,5.089217e-003
1.660437e+003,5.152077e-003
1.662366e+003,5.130528e-003
1.664294e+003,4.954614e-003
1.666223e+003,4.874138e-003
1.668151e+003,4.890467e-003
1.670080e+003,4.768531e-003
1.672008e+003,4.555932e-003
1.673937e+003,4.499655e-003
1.675865e+003,4.392677e-003
1.677794e+003,4.368526e-003
1.679722e+003,4.489620e-003
1.681651e+003,4.507810e-003
1.683579e+003,4.484567e-003
1.685508e+003,3.962399e-003
1.687436e+003,3.863515e-003
1.689365e+003,3.824819e-003
1.691293e+003,3.701398e-003
1.693222e+003,3.679927e-003
1.695150e+003,3.780496e-003
1.697079e+003,3.731310e-003
1.699007e+003,3.481925e-003
1.700936e+003,3.044613e-003
1.702864e+003,3.168202e-003
1.704793e+003,3.205059e-003
1.706721e+003,3.119053e-003
1.708650e+003,3.125539e-003
1.710578e+003,3.203126e-003
1.712507e+003,3.326125e-003
1.714435e+003,3.511543e-003
1.716364e+003,3.574406e-003
1.718292e+003,3.465370e-003
1.720221e+003,3.363046e-003
1.722149e+003,3.524151e-003
1.724078e+003,3.752279e-003
1.726006e+003,3.958968e-003
1.727935e+003,4.324374e-003
1.729863e+003,4.916646e-003
1.731792e+003,5.321993e-003
1.733720e+003,6.022903e-003
1.735649e+003,7.082512e-003
1.737577e+003,7.690017e-003
1.739506e+003,8.830076e-003
1.741434e+003,9.834580e-003
1.743363e+003,1.043730e-002
1.745291e+003,1.068889e-002
1.747220e+003,1.056523e-002
1.749148e+003,9.805670e-003
1.751077e+003,8.498413e-003
1.753005e+003,7.046537e-003
1.754934e+003,5.907268e-003
1.756862e+003,4.695152e-003
1.758791e+003,3.720964e-003
1.760719e+003,3.169938e-003
1.762648e+003,2.395282e-003
1.764576e+003,1.890299e-003
1.766505e+003,1.757052e-003
1.768433e+003,1.634404e-003
1.770362e+003,1.530495e-003
1.772290e+003,1.336819e-003
1.774219e+003,1.041747e-003
1.776147e+003,9.972062e-004
1.778076e+003,1.035087e-003
1.780004e+003,1.125546e-003
1.781933e+003,9.829234e-004
1.783861e+003,1.000675e-003
1.785790e+003,9.473786e-004
1.787718e+003,8.972539e-004
1.789646e+003,1.013076e-003
1.791575e+003,1.124016e-003
1.793504e+003,8.745138e-004
1.795432e+003,8.267183e-004
1.797361e+003,7.129246e-004
1.799289e+003,7.268889e-004
1.801218e+003,6.740000e-004
1.803146e+003,5.333228e-004
1.805074e+003,4.505897e-004
1.807003e+003,4.845234e-004
1.808932e+003,4.508318e-004
1.810860e+003,3.112741e-004
1.812789e+003,1.161452e-005
1.814717e+003,-3.907764e-004
1.816646e+003,-6.475663e-004
1.818574e+003,-1.759930e-004
1.820502e+003,1.971861e-004
1.822431e+003,3.164988e-004
1.824360e+003,3.764601e-004
1.826288e+003,3.699353e-004
1.828217e+003,3.877059e-004
1.830145e+003,3.287364e-004
1.832073e+003,3.332458e-005
1.834002e+003,-8.849427e-006
1.835931e+003,-1.209602e-005
1.837859e+003,8.618645e-005
1.839788e+003,5.938299e-005
1.841716e+003,-4.865229e-006
1.843645e+003,-1.194170e-004
1.845573e+003,-2.576998e-004
1.847501e+003,-3.042771e-004
1.849430e+003,-1.625558e-004
1.851359e+003,-1.145517e-004
1.853287e+003,-2.522450e-004
1.855216e+003,-5.048756e-004
1.857144e+003,-4.359614e-004
1.859073e+003,-4.031165e-004
1.861001e+003,-4.168926e-004
1.862929e+003,-4.594857e-004
1.864858e+003,-4.386436e-004
1.866787e+003,-4.801946e-004
1.868715e+003,-4.539760e-004
1.870644e+003,-4.637046e-004
1.872572e+003,-4.185950e-004
1.874500e+003,-5.769627e-004
1.876429e+003,-4.469538e-004
1.878357e+003,-5.132230e-004
1.880286e+003,-6.124554e-004
1.882215e+003,-6.524613e-004
1.884143e+003,-5.275887e-004
1.886072e+003,-6.194748e-004
1.888000e+003,-6.775968e-004
1.889928e+003,-7.135272e-004
1.891857e+003,-6.402889e-004
1.893785e+003,-5.981876e-004
1.895714e+003,-6.174743e-004
1.897643e+003,-8.543348e-004
1.899571e+003,-1.024915e-003
1.901500e+003,-1.012271e-003
1.903428e+003,-9.996388e-004
1.905356e+003,-9.870203e-004
1.907285e+003,-9.744158e-004
1.909213e+003,-9.618243e-004
1.911142e+003,-9.492440e-004
1.913071e+003,-9.366767e-004
1.914999e+003,-9.241244e-004
1.916927e+003,-9.115841e-004
1.918856e+003,-8.990560e-004
1.920784e+003,-8.865409e-004
1.922713e+003,-8.740397e-004
1.924641e+003,-8.615516e-004
1.926570e+003,-8.490747e-004
1.928499e+003,-8.366127e-004
1.930427e+003,-8.241627e-004
1.932355e+003,-8.117268e-004
1.934284e+003,-7.993011e-004
1.936212e+003,-7.868912e-004
1.938141e+003,-7.744934e-004
1.940070e+003,-7.621069e-004
1.941998e+003,-7.497342e-004
1.943927e+003,-7.373756e-004
1.945855e+003,-7.250300e-004
1.947783e+003,-7.126955e-004
1.949712e+003,-7.003760e-004
1.951640e+003,-6.880686e-004
1.953569e+003,-6.757742e-004
1.955498e+003,-6.634919e-004
1.957426e+003,-6.512236e-004
1.959354e+003,-6.389683e-004
1.961283e+003,-6.267261e-004
1.963211e+003,-6.144941e-004
1.965140e+003,-6.022779e-004
1.967068e+003,-5.900748e-004
1.968997e+003,-5.778838e-004
1.970926e+003,-5.657049e-004
1.972854e+003,-5.535409e-004
1.974782e+003,-5.413890e-004
1.976711e+003,-5.292492e-004
1.978639e+003,-5.171224e-004
1.980568e+003,-5.050097e-004
1.982496e+003,-4.929099e-004
1.984425e+003,-4.808214e-004
1.986354e+003,-4.687477e-004
1.988282e+003,-4.566871e-004
1.990210e+003,-4.446385e-004
1.992139e+003,-4.326012e-004
1.994067e+003,-4.205797e-004
1.995996e+003,-4.085694e-004
1.997924e+003,-3.965730e-004
1.999853e+003,-3.845887e-004
2.001781e+003,-3.726175e-004
2.003710e+003,-3.606612e-004
2.005638e+003,-3.487160e-004
2.007567e+003,-3.367830e-004
2.009495e+003,-3.248649e-004
2.011424e+003,-3.129588e-004
2.013352e+003,-3.010640e-004
2.015281e+003,-2.891831e-004
2.017209e+003,-2.773171e-004
2.019138e+003,-2.654633e-004
2.021066e+003,-2.536206e-004
2.022995e+003,-2.417928e-004
2.024923e+003,-2.299780e-004
2.026852e+003,-2.181754e-004
2.028781e+003,-2.063848e-004
2.030709e+003,-1.946092e-004
2.032637e+003,-1.828456e-004
2.034566e+003,-1.710951e-004
2.036494e+003,-1.593567e-004
2.038423e+003,-1.476314e-004
2.040351e+003,-1.359200e-004
2.042280e+003,-1.242207e-004
2.044208e+003,-1.125354e-004
2.046137e+003,-1.008622e-004
2.048065e+003,-8.920208e-005
2.049994e+003,-7.755496e-005
2.051922e+003,-6.592087e-005
2.053851e+003,-5.429704e-005
2.055779e+003,-4.268996e-005
2.057708e+003,-3.109407e-005
2.059636e+003,-1.951307e-005
2.061565e+003,-7.943250e-006
2.063493e+003,3.613532e-006
2.065422e+003,1.515634e-005
2.067350e+003,2.668612e-005
2.069279e+003,3.820565e-005
2.071207e+003,4.971121e-005
2.073136e+003,6.120279e-005
2.075064e+003,7.268041e-005
2.076993e+003,8.414686e-005
2.078921e+003,9.559840e-005
2.080850e+003,1.070388e-004
2.082778e+003,1.184652e-004
2.084707e+003,1.298822e-004
2.086635e+003,1.412826e-004
2.088564e+003,1.526698e-004
2.090492e+003,1.640460e-004
2.092421e+003,1.754081e-004
2.094349e+003,1.867572e-004
2.096278e+003,1.980932e-004
2.098206e+003,2.094181e-004
2.100135e+003,2.207281e-004
2.102063e+003,2.320250e-004
2.103992e+003,2.433108e-004
2.105920e+003,2.545826e-004
2.107849e+003,2.658404e-004
2.109777e+003,2.770852e-004
2.111706e+003,2.883188e-004
2.113634e+003,2.995403e-004
2.115563e+003,3.107470e-004
2.117491e+003,3.219415e-004
2.119420e+003,3.331220e-004
2.121348e+003,3.442895e-004
2.123277e+003,3.554439e-004
2.125205e+003,3.665853e-004
2.127134e+003,3.777146e-004
2.129062e+003,3.888337e-004
2.130991e+003,3.999360e-004
2.132919e+003,4.110262e-004
2.134848e+003,4.221033e-004
2.136776e+003,4.331674e-004
2.138705e+003,4.442194e-004
2.140633e+003,4.552575e-004
2.142562e+003,4.662853e-004
2.144490e+003,4.772972e-004
2.146419e+003,4.882971e-004
2.148347e+003,4.992839e-004
2.150276e+003,5.102577e-004
2.152204e+003,5.212184e-004
2.154133e+003,5.321670e-004
2.156061e+003,5.431045e-004
2.157990e+003,5.540261e-004
2.159918e+003,5.649338e-004
2.161847e+003,5.758312e-004
2.163775e+003,5.867137e-004
2.165704e+003,5.975822e-004
2.167632e+003,6.084405e-004
2.169561e+003,6.192848e-004
2.171489e+003,6.301152e-004
2.173418e+003,6.409362e-004
2.175346e+003,6.517414e-004
2.177275e+003,6.625336e-004
2.179203e+003,6.733136e-004
2.181132e+003,6.840816e-004
2.183060e+003,6.948328e-004
2.184989e+003,7.055737e-004
2.186917e+003,7.163044e-004
2.188846e+003,7.270183e-004
2.190774e+003,7.377202e-004
2.192703e+003,7.484080e-004
2.194631e+003,7.590838e-004
2.196560e+003,7.697484e-004
2.198488e+003,7.803971e-004
2.200417e+003,7.910365e-004
2.202345e+003,8.016611e-004
2.204274e+003,8.122735e-004
2.206202e+003,8.228710e-004
2.208131e+003,8.334555e-004
2.210059e+003,8.440288e-004
2.211988e+003,8.545872e-004
2.213916e+003,8.651335e-004
2.215845e+003,8.756667e-004
2.217773e+003,8.861898e-004
2.219702e+003,8.966969e-004
2.221630e+003,9.071920e-004
2.223559e+003,9.176740e-004
2.225487e+003,9.281421e-004
2.227416e+003,9.385971e-004
2.229344e+003,9.490419e-004
2.231273e+003,9.594746e-004
2.233201e+003,9.698914e-004
2.235130e+003,9.802934e-004
2.237058e+003,9.906860e-004
2.238987e+003,1.001064e-003
2.240915e+003,1.011427e-003
2.242844e+003,1.021778e-003
2.244772e+003,1.032122e-003
2.246701e+003,1.042448e-003
2.248629e+003,1.052761e-003
2.250558e+003,1.063062e-003
2.252486e+003,1.073349e-003
2.254415e+003,1.083625e-003
2.256343e+003,1.093885e-003
2.258272e+003,1.104134e-003
2.260200e+003,1.114369e-003
2.262129e+003,1.124594e-003
2.264057e+003,1.134805e-003
2.265986e+003,1.145001e-003
2.267914e+003,1.155185e-003
2.269843e+003,1.165356e-003
2.271771e+003,1.175513e-003
2.273700e+003,1.185658e-003
2.275628e+003,1.195793e-003
2.277557e+003,1.205914e-003
2.279485e+003,1.216019e-003
2.281414e+003,1.226113e-003
2.283342e+003,1.236192e-003
2.285271e+003,1.246260e-003
2.287199e+003,1.256314e-003
2.289128e+003,1.266357e-003
2.291056e+003,1.276387e-003
2.292985e+003,1.286401e-003
2.294913e+003,1.296404e-003
2.296842e+003,1.306393e-003
2.298770e+003,1.316371e-003
2.300699e+003,1.326335e-003
2.302627e+003,1.336288e-003
2.304556e+003,1.346226e-003
2.306484e+003,1.356151e-003
2.308413e+003,1.366062e-003
2.310341e+003,1.375962e-003
2.312270e+003,1.385849e-003
2.314198e+003,1.395721e-003
2.316127e+003,1.405581e-003
2.318055e+003,1.415428e-003
2.319984e+003,1.425265e-003
2.321912e+003,1.435085e-003
2.323841e+003,1.444895e-003
2.325769e+003,1.454690e-003
2.327698e+003,1.464472e-003
2.329626e+003,1.474243e-003
2.331555e+003,1.483997e-003
2.333483e+003,1.493745e-003
2.335412e+003,1.503475e-003
2.337340e+003,1.513193e-003
2.339269e+003,1.522899e-003
2.341197e+003,1.532590e-003
2.343126e+003,1.542269e-003
2.345054e+003,1.551935e-003
2.346983e+003,1.561590e-003
2.348911e+003,1.571230e-003
2.350840e+003,1.580858e-003
2.352768e+003,1.590471e-003
2.354697e+003,1.600073e-003
2.356625e+003,1.609661e-003
2.358554e+003,1.619236e-003
2.360482e+003,1.628799e-003
2.362411e+003,1.638349e-003
2.364339e+003,1.647888e-003
2.366268e+003,1.657411e-003
2.368196e+003,1.666921e-003
2.370125e+003,1.676419e-003
2.372053e+003,1.685903e-003
2.373982e+003,1.695376e-003
2.375910e+003,1.704835e-003
2.377839e+003,1.714284e-003
2.379767e+003,1.723715e-003
2.381696e+003,1.733135e-003
2.383624e+003,1.742542e-003
2.385553e+003,1.751936e-003
2.387481e+003,1.761318e-003
2.389410e+003,1.770686e-003
2.391338e+003,1.780044e-003
2.393267e+003,1.789386e-003
2.395195e+003,1.798715e-003
2.397124e+003,1.808031e-003
2.399052e+003,1.817335e-003
2.400981e+003,1.706697e-003
2.402909e+003,1.591275e-003
2.404838e+003,1.728342e-003
2.406766e+003,1.943503e-003
2.408695e+003,2.099326e-003
2.410623e+003,2.095399e-003
2.412552e+003,2.039918e-003
2.414480e+003,1.947550e-003
2.416409e+003,1.997011e-003
2.418337e+003,2.028232e-003
2.420266e+003,2.153201e-003
2.422194e+003,2.379998e-003
2.424123e+003,2.502029e-003
2.426051e+003,2.444394e-003
2.427979e+003,2.432248e-003
2.429908e+003,2.449989e-003
2.431837e+003,2.417499e-003
2.433765e+003,2.384046e-003
2.435694e+003,2.470672e-003
2.437622e+003,2.476303e-003
2.439551e+003,2.537912e-003
2.441479e+003,2.555568e-003
2.443407e+003,2.538539e-003
2.445336e+003,2.683588e-003
2.447265e+003,2.838261e-003
2.449193e+003,2.808503e-003
2.451122e+003,2.919608e-003
2.453050e+003,3.012057e-003
2.454979e+003,2.976444e-003
2.456907e+003,2.794954e-003
2.458836e+003,2.596728e-003
2.460764e+003,2.366914e-003
2.462693e+003,2.248205e-003
2.464621e+003,2.259481e-003
2.466550e+003,2.385532e-003
2.468478e+003,2.403382e-003
2.470406e+003,2.349017e-003
2.472335e+003,2.232501e-003
2.474264e+003,2.238824e-003
2.476192e+003,2.394935e-003
2.478121e+003,2.424633e-003
2.480049e+003,2.246591e-003
2.481978e+003,2.294470e-003
2.483906e+003,2.457498e-003
2.485835e+003,2.494389e-003
2.487763e+003,2.578790e-003
2.489692e+003,2.564363e-003
2.491620e+003,2.392197e-003
2.493549e+003,2.436389e-003
2.495477e+003,2.494830e-003
2.497406e+003,2.503684e-003
2.499334e+003,2.465269e-003
2.501263e+003,2.351800e-003
2.503191e+003,2.191162e-003
2.505120e+003,2.322372e-003
2.507048e+003,2.579149e-003
2.508977e+003,2.642649e-003
2.510905e+003,2.613032e-003
2.512833e+003,2.728393e-003
2.514762e+003,2.695799e-003
2.516691e+003,2.615542e-003
2.518619e+003,2.762912e-003
2.520548e+003,2.920948e-003
2.522476e+003,3.027599e-003
2.524405e+003,3.171724e-003
2.526333e+003,3.100185e-003
2.528261e+003,3.070992e-003
2.530190e+003,3.223447e-003
2.532119e+003,3.440017e-003
2.534047e+003,3.513121e-003
2.535976e+003,3.556428e-003
2.537904e+003,3.758802e-003
2.539833e+003,3.758278e-003
2.541761e+003,3.698742e-003
2.543689e+003,3.775776e-003
2.545618e+003,3.954465e-003
2.547547e+003,4.083815e-003
2.549475e+003,4.025472e-003
2.551404e+003,4.057463e-003
2.553332e+003,4.051374e-003
2.555260e+003,4.198535e-003
2.557189e+003,4.277144e-003
2.559117e+003,4.442291e-003
2.561046e+003,4.628591e-003
2.562975e+003,4.757196e-003
2.564903e+003,4.841194e-003
2.566832e+003,5.059827e-003
2.568760e+003,5.216170e-003
2.570688e+003,5.301382e-003
2.572617e+003,5.458138e-003
2.574546e+003,5.802104e-003
2.576474e+003,6.090915e-003
2.578403e+003,6.381085e-003
2.580331e+003,6.602554e-003
2.582260e+003,6.702004e-003
2.584188e+003,6.548312e-003
2.586116e+003,6.303932e-003
2.588045e+003,6.250299e-003
2.589974e+003,6.202165e-003
2.591902e+003,6.043091e-003
2.593831e+003,5.955923e-003
2.595759e+003,6.039633e-003
2.597688e+003,6.176513e-003
2.599616e+003,6.246273e-003
2.601544e+003,6.395971e-003
2.603473e+003,6.519166e-003
2.605402e+003,6.789757e-003
2.607330e+003,7.042385e-003
2.609259e+003,7.280517e-003
2.611187e+003,7.581964e-003
2.613115e+003,7.786380e-003
2.615044e+003,7.862296e-003
2.616972e+003,7.951409e-003
2.618901e+003,7.992202e-003
2.620830e+003,8.077876e-003
2.622758e+003,8.134750e-003
2.624687e+003,8.100804e-003
2.626615e+003,8.071320e-003
2.628543e+003,8.084171e-003
2.630472e+003,8.152969e-003
2.632400e+003,8.300290e-003
2.634329e+003,8.389726e-003
2.636258e+003,8.465996e-003
2.638186e+003,8.653738e-003
2.640115e+003,8.806033e-003
2.642043e+003,8.904645e-003
2.643971e+003,9.061186e-003
2.645900e+003,9.252973e-003
2.647828e+003,9.450160e-003
2.649757e+003,9.626832e-003
2.651686e+003,9.789309e-003
2.653614e+003,9.969188e-003
2.655542e+003,1.010310e-002
2.657471e+003,1.017797e-002
2.659399e+003,1.023429e-002
2.661328e+003,1.000301e-002
2.663256e+003,9.596309e-003
2.665185e+003,9.275289e-003
2.667114e+003,9.073284e-003
2.669042e+003,9.014593e-003
2.670970e+003,9.073657e-003
2.672899e+003,9.199640e-003
2.674827e+003,9.314659e-003
2.676756e+003,9.423586e-003
2.678685e+003,9.414783e-003
2.680613e+003,9.315301e-003
2.682542e+003,9.281669e-003
2.684470e+003,9.297216e-003
2.686398e+003,9.341042e-003
2.688327e+003,9.359525e-003
2.690255e+003,9.408891e-003
2.692184e+003,9.451106e-003
2.694113e+003,9.469923e-003
2.696041e+003,9.525076e-003
2.697969e+003,9.573623e-003
2.699898e+003,9.717462e-003
2.701826e+003,9.976326e-003
2.703755e+003,1.022955e-002
2.705683e+003,1.051516e-002
2.707612e+003,1.080269e-002
2.709541e+003,1.116755e-002
2.711469e+003,1.160162e-002
2.713397e+003,1.211946e-002
2.715326e+003,1.277869e-002
2.717254e+003,1.355623e-002
2.719183e+003,1.435493e-002
2.721111e+003,1.491968e-002
2.723040e+003,1.495245e-002
2.724969e+003,1.449931e-002
2.726897e+003,1.383074e-002
2.728825e+003,1.320911e-002
2.730754e+003,1.270962e-002
2.732682e+003,1.234146e-002
2.734611e+003,1.204439e-002
2.736539e+003,1.173861e-002
2.738468e+003,1.143765e-002
2.740396e+003,1.116419e-002
2.742325e+003,1.094922e-002
2.744253e+003,1.080668e-002
2.746182e+003,1.076285e-002
2.748110e+003,1.076130e-002
2.750039e+003,1.069078e-002
2.751967e+003,1.070043e-002
2.753896e+003,1.079946e-002
2.755824e+003,1.097668e-002
2.757753e+003,1.118781e-002
2.759681e+003,1.145211e-002
2.761610e+003,1.170539e-002
2.763538e+003,1.189045e-002
2.765467e+003,1.209068e-002
2.767395e+003,1.227459e-002
2.769324e+003,1.246271e-002
2.771252e+003,1.272144e-002
2.773181e+003,1.305982e-002
2.775109e+003,1.342343e-002
2.777038e+003,1.384876e-002
2.778966e+003,1.431616e-002
2.780895e+003,1.481301e-002
2.782823e+003,1.541473e-002
2.784752e+003,1.615734e-002
2.786680e+003,1.697817e-002
2.788609e+003,1.790576e-002
2.790537e+003,1.885834e-002
2.792466e+003,1.976138e-002
2.794394e+003,2.056542e-002
2.796323e+003,2.116971e-002
2.798251e+003,2.180091e-002
2.800180e+003,2.265964e-002
2.802108e+003,2.393903e-002
2.804037e+003,2.553779e-002
2.805965e+003,2.723810e-002
2.807894e+003,2.878306e-002
2.809822e+003,3.017331e-002
2.811751e+003,3.152134e-002
2.813679e+003,3.298553e-002
2.815608e+003,3.476163e-002
2.817536e+003,3.694534e-002
2.819465e+003,3.967049e-002
2.821393e+003,4.314144e-002
2.823322e+003,4.761091e-002
2.825250e+003,5.361209e-002
2.827179e+003,6.205891e-002
2.829107e+003,7.464665e-002
2.831036e+003,9.308352e-002
2.832964e+003,1.169059e-001
2.834893e+003,1.409063e-001
2.836821e+003,1.560258e-001
2.838750e+003,1.568326e-001
2.840678e+003,1.449613e-001
2.842607e+003,1.263925e-001
2.844535e+003,1.077193e-001
2.846464e+003,9.283946e-002
2.848392e+003,8.270316e-002
2.850321e+003,7.678756e-002
2.852249e+003,7.406717e-002
2.854178e+003,7.411538e-002
2.856106e+003,7.772980e-002
2.858035e+003,8.644672e-002
2.859963e+003,1.022281e-001
2.861892e+003,1.247339e-001
2.863820e+003,1.467938e-001
2.865749e+003,1.582226e-001
2.867677e+003,1.572373e-001
2.869606e+003,1.509399e-001
2.871534e+003,1.457423e-001
2.873463e+003,1.444836e-001
2.875391e+003,1.465400e-001
2.877320e+003,1.478737e-001
2.879248e+003,1.454762e-001
2.881177e+003,1.408600e-001
2.883105e+003,1.366741e-001
2.885034e+003,1.340484e-001
2.886962e+003,1.328071e-001
2.888891e+003,1.327423e-001
2.890819e+003,1.343587e-001
2.892748e+003,1.388603e-001
2.894676e+003,1.467201e-001
2.896605e+003,1.579570e-001
2.898533e+003,1.720237e-001
2.900462e+003,1.879149e-001
2.902390e+003,2.045181e-001
2.904319e+003,2.206437e-001
2.906247e+003,2.348226e-001
2.908176e+003,2.474471e-001
2.910104e+003,2.620972e-001
2.912033e+003,2.826155e-001
2.913961e+003,3.069405e-001
2.915890e+003,3.245975e-001
2.917818e+003,3.249441e-001
2.919747e+003,3.092644e-001
2.921675e+003,2.876017e-001
2.923604e+003,2.661027e-001
2.925532e+003,2.439004e-001
2.927461e+003,2.189244e-001
2.929389e+003,1.922434e-001
2.931318e+003,1.671971e-001
2.933246e+003,1.468133e-001
2.935175e+003,1.327695e-001
2.937103e+003,1.261130e-001
2.939032e+003,1.282085e-001
2.940960e+003,1.410539e-001
2.942889e+003,1.659907e-001
2.944817e+003,2.001860e-001
2.946746e+003,2.341915e-001
2.948674e+003,2.547591e-001
2.950603e+003,2.533929e-001
2.952531e+003,2.353609e-001
2.954460e+003,2.153302e-001
2.956388e+003,2.036863e-001
2.958317e+003,1.996669e-001
2.960245e+003,1.943619e-001
2.962174e+003,1.789706e-001
2.964102e+003,1.545870e-001
2.966031e+003,1.286815e-001
2.967959e+003,1.050536e-001
2.969888e+003,8.429745e-002
2.971816e+003,6.675597e-002
2.973745e+003,5.247660e-002
2.975673e+003,4.123856e-002
2.977602e+003,3.261642e-002
2.979530e+003,2.594085e-002
2.981459e+003,2.076763e-002
2.983387e+003,1.679743e-002
2.985316e+003,1.373470e-002
2.987244e+003,1.137096e-002
2.989173e+003,9.531403e-003
2.991101e+003,8.115904e-003
2.993030e+003,6.952163e-003
2.994958e+003,6.095886e-003
2.996887e+003,5.434345e-003
2.998815e+003,4.902096e-003
3.000744e+003,4.413968e-003
3.002672e+003,4.066313e-003
3.004601e+003,3.811918e-003
3.006529e+003,3.469743e-003
3.008458e+003,3.075548e-003
3.010386e+003,2.637278e-003
3.012315e+003,2.195340e-003
3.014243e+003,1.877282e-003
3.016172e+003,1.577342e-003
3.018100e+003,1.275558e-003
3.020029e+003,1.040556e-003
3.021957e+003,8.346364e-004
3.023886e+003,7.123221e-004
3.025814e+003,6.416179e-004
3.027743e+003,5.112924e-004
3.029671e+003,3.976002e-004
3.031600e+003,3.276691e-004
3.033528e+003,2.700798e-004
3.035457e+003,1.986399e-004
3.037385e+003,2.579316e-004
3.039314e+003,2.714433e-004
3.041242e+003,2.423506e-004
3.043171e+003,2.108645e-004
3.045099e+003,2.106354e-004
3.047028e+003,2.907682e-004
3.048956e+003,3.530681e-004
3.050885e+003,3.274828e-004
3.052813e+003,3.544819e-004
3.054742e+003,3.967974e-004
3.056670e+003,4.324876e-004
3.058599e+003,4.859976e-004
3.060527e+003,5.239360e-004
3.062456e+003,5.052090e-004
3.064384e+003,4.527718e-004
3.066313e+003,3.762562e-004
3.068241e+003,3.766548e-004
3.070170e+003,3.707539e-004
3.072098e+003,4.175901e-004
3.074027e+003,4.667547e-004
3.075955e+003,4.824791e-004
3.077884e+003,5.272832e-004
3.079812e+003,5.041305e-004
3.081741e+003,4.920270e-004
3.083669e+003,6.229188e-004
3.085598e+003,6.303545e-004
3.087526e+003,5.539451e-004
3.089455e+003,5.754512e-004
3.091383e+003,6.520413e-004
3.093312e+003,7.217657e-004
3.095240e+003,7.508863e-004
3.097169e+003,7.143468e-004
3.099097e+003,7.229615e-004
3.101026e+003,6.776918e-004
3.102954e+003,7.300824e-004
3.104883e+003,8.328445e-004
3.106811e+003,9.397063e-004
3.108740e+003,9.640232e-004
3.110668e+003,1.049232e-003
3.112597e+003,1.065051e-003
3.114525e+003,1.040986e-003
3.116454e+003,1.167668e-003
3.118382e+003,1.258543e-003
3.120311e+003,1.205355e-003
3.122239e+003,1.248375e-003
3.124168e+003,1.376120e-003
3.126096e+003,1.402775e-003
3.128025e+003,1.388956e-003
3.129953e+003,1.483537e-003
3.131882e+003,1.576234e-003
3.133810e+003,1.719536e-003
3.135739e+003,1.774622e-003
3.137667e+003,1.818471e-003
3.139596e+003,1.838706e-003
3.141524e+003,1.864983e-003
3.143453e+003,1.880817e-003
3.145381e+003,1.847766e-003
3.147310e+003,1.894403e-003
3.149238e+003,2.010709e-003
3.151167e+003,1.990164e-003
3.153095e+003,1.926191e-003
3.155024e+003,1.980389e-003
3.156952e+003,2.073957e-003
3.158881e+003,2.089608e-003
3.160809e+003,2.098888e-003
3.162738e+003,2.059750e-003
3.164666e+003,2.016079e-003
3.166594e+003,2.078481e-003
3.168523e+003,2.263682e-003
3.170452e+003,2.305815e-003
3.172380e+003,2.141079e-003
3.174309e+003,2.106037e-003
3.176237e+003,2.246778e-003
3.178166e+003,2.401181e-003
3.180094e+003,2.482451e-003
3.182022e+003,2.575383e-003
3.183951e+003,2.577746e-003
3.185880e+003,2.521332e-003
3.187808e+003,2.619158e-003
3.189737e+003,2.701849e-003
3.191665e+003,2.687283e-003
3.193594e+003,2.717307e-003
3.195522e+003,2.806319e-003
3.197450e+003,2.880692e-003
3.199379e+003,2.804326e-003
3.201308e+003,2.747152e-003
3.203236e+003,2.809079e-003
3.205165e+003,2.766395e-003
3.207093e+003,2.780015e-003
3.209021e+003,2.812009e-003
3.210950e+003,2.691926e-003
3.212878e+003,2.571695e-003
3.214807e+003,2.513766e-003
3.216736e+003,2.450129e-003
3.218664e+003,2.414798e-003
3.220593e+003,2.430473e-003
3.222521e+003,2.491072e-003
3.224449e+003,2.433315e-003
3.226378e+003,2.301956e-003
3.228307e+003,2.187179e-003
3.230235e+003,2.224246e-003
3.232164e+003,2.321184e-003
3.234092e+003,2.296532e-003
3.236021e+003,2.165757e-003
3.237949e+003,2.118848e-003
3.239877e+003,2.128687e-003
3.241806e+003,2.163179e-003
3.243735e+003,2.227731e-003
3.245663e+003,2.223099e-003
3.247592e+003,2.201835e-003
3.249520e+003,2.167413e-003
3.251448e+003,2.237558e-003
3.253377e+003,2.346665e-003
3.255305e+003,2.367137e-003
3.257234e+003,2.384666e-003
3.259163e+003,2.357882e-003
3.261091e+003,2.467513e-003
3.263020e+003,2.593532e-003
3.264948e+003,2.624728e-003
3.266876e+003,2.653861e-003
3.268805e+003,2.691604e-003
3.270733e+003,2.748221e-003
3.272662e+003,2.782086e-003
3.274591e+003,2.707483e-003
3.276519e+003,2.726672e-003
3.278448e+003,2.752056e-003
3.280376e+003,2.867822e-003
3.282304e+003,2.854286e-003
3.284233e+003,2.845928e-003
3.286161e+003,2.838878e-003
3.288090e+003,2.913857e-003
3.290019e+003,3.038121e-003
3.291947e+003,3.040234e-003
3.293875e+003,3.020488e-003
3.295804e+003,3.002156e-003
3.297732e+003,2.914267e-003
3.299661e+003,2.879944e-003
3.301589e+003,2.874257e-003
3.303518e+003,2.857652e-003
3.305447e+003,2.841799e-003
3.307375e+003,2.903996e-003
3.309303e+003,2.936948e-003
3.311232e+003,2.975171e-003
3.313160e+003,2.948381e-003
3.315089e+003,2.783677e-003
3.317018e+003,2.746675e-003
3.318946e+003,2.845863e-003
3.320875e+003,2.683818e-003
3.322803e+003,2.705632e-003
3.324731e+003,2.945906e-003
3.326660e+003,3.015395e-003
3.328588e+003,2.988098e-003
3.330517e+003,3.008321e-003
3.332446e+003,2.996009e-003
3.334374e+003,3.015570e-003
3.336302e+003,3.152911e-003
3.338231e+003,3.107464e-003
3.340159e+003,3.007058e-003
3.342088e+003,3.104309e-003
3.344016e+003,3.116405e-003
3.345945e+003,3.087252e-003
3.347874e+003,3.060201e-003
3.349802e+003,3.000844e-003
3.351730e+003,2.910256e-003
3.353659e+003,2.930809e-003
3.355587e+003,2.977375e-003
3.357516e+003,2.950143e-003
3.359444e+003,2.857588e-003
3.361373e+003,2.838053e-003
3.363302e+003,2.840122e-003
3.365230e+003,2.837762e-003
3.367158e+003,2.788672e-003
3.369087e+003,2.726704e-003
3.371015e+003,2.642972e-003
3.372944e+003,2.603890e-003
3.374872e+003,2.723068e-003
3.376801e+003,2.769485e-003
3.378729e+003,2.657676e-003
3.380658e+003,2.582621e-003
3.382586e+003,2.611013e-003
3.384515e+003,2.638631e-003
3.386443e+003,2.554063e-003
3.388372e+003,2.542531e-003
3.390300e+003,2.587143e-003
3.392229e+003,2.502263e-003
3.394157e+003,2.389058e-003
3.396086e+003,2.470339e-003
3.398014e+003,2.506280e-003
3.399943e+003,2.443230e-003
3.401871e+003,2.302678e-003
3.403800e+003,2.271406e-003
3.405728e+003,2.333885e-003
3.407657e+003,2.387367e-003
3.409585e+003,2.404509e-003
3.411514e+003,2.378132e-003
3.413442e+003,2.342978e-003
3.415371e+003,2.316978e-003
3.417299e+003,2.358599e-003
3.419228e+003,2.386674e-003
3.421156e+003,2.325037e-003
3.423085e+003,2.113976e-003
3.425013e+003,2.049804e-003
3.426942e+003,2.049005e-003
3.428870e+003,1.934854e-003
3.430799e+003,1.925085e-003
3.432727e+003,1.946835e-003
3.434656e+003,1.938896e-003
3.436584e+003,1.906302e-003
3.438513e+003,1.857691e-003
3.440441e+003,1.899574e-003
3.442370e+003,1.959464e-003
3.444298e+003,1.857677e-003
3.446227e+003,1.928963e-003
3.448155e+003,1.913041e-003
3.450084e+003,1.672037e-003
3.452012e+003,1.533836e-003
3.453941e+003,1.627838e-003
3.455869e+003,1.578419e-003
3.457798e+003,1.480414e-003
3.459726e+003,1.531092e-003
3.461655e+003,1.575997e-003
3.463583e+003,1.448199e-003
3.465512e+003,1.451109e-003
3.467440e+003,1.476999e-003
3.469369e+003,1.437882e-003
3.471297e+003,1.348952e-003
3.473226e+003,1.432311e-003
3.475154e+003,1.451323e-003
3.477083e+003,1.323037e-003
3.479011e+003,1.439987e-003
3.480940e+003,1.561986e-003
3.482868e+003,1.332482e-003
3.484797e+003,1.230091e-003
3.486725e+003,1.270480e-003
3.488654e+003,1.090925e-003
3.490582e+003,9.189397e-004
3.492511e+003,9.235963e-004
3.494439e+003,9.337738e-004
3.496368e+003,8.389223e-004
3.498296e+003,8.634068e-004
3.500225e+003,1.026284e-003
3.502153e+003,1.154590e-003
3.504082e+003,9.821486e-004
3.506010e+003,6.772075e-004
3.507939e+003,6.926712e-004
3.509867e+003,7.396694e-004
3.511796e+003,6.480273e-004
3.513724e+003,5.489551e-004
3.515653e+003,5.014502e-004
3.517581e+003,5.674642e-004
3.519510e+003,4.856903e-004
3.521438e+003,5.287789e-004
3.523367e+003,5.743988e-004
3.525295e+003,4.273821e-004
3.527224e+003,4.279017e-004
3.529152e+003,2.370831e-004
3.531081e+003,7.207505e-005
3.533009e+003,7.178821e-005
3.534938e+003,2.902262e-004
3.536866e+003,1.956038e-004
3.538795e+003,-1.847744e-005
3.540723e+003,1.520161e-004
3.542652e+003,3.441591e-004
3.544580e+003,4.180167e-004
3.546509e+003,1.793224e-004
3.548437e+003,-2.143439e-004
3.550366e+003,-2.338216e-004
3.552294e+003,-2.356488e-004
3.554223e+003,-3.686864e-004
3.556151e+003,-3.729910e-004
3.558080e+003,-3.241990e-004
3.560008e+003,-2.921112e-004
3.561937e+003,-3.060997e-004
3.563865e+003,-1.118481e-004
3.565794e+003,1.560226e-004
3.567722e+003,-5.202983e-004
3.569651e+003,-1.042562e-003
3.571579e+003,-1.118589e-003
3.573508e+003,-1.051441e-003
3.575436e+003,-9.093583e-004
3.577365e+003,-8.825399e-004
3.579293e+003,-8.493252e-004
3.581222e+003,-9.782016e-004
3.583150e+003,-9.804145e-004
3.585079e+003,-6.907955e-004
3.587007e+003,-5.935095e-004
3.588936e+003,-1.041258e-003
3.590864e+003,-1.207884e-003
3.592793e+003,-9.389520e-004
3.594721e+003,-6.704088e-004
3.596650e+003,-8.455012e-004
3.598578e+003,-1.038427e-003
3.600507e+003,-1.107763e-003
3.602435e+003,-1.122216e-003
3.604364e+003,-9.681899e-004
3.606292e+003,-7.248912e-004
3.608221e+003,-6.636158e-004
3.610149e+003,-1.034634e-003
3.612078e+003,-9.665601e-004
3.614006e+003,-8.805580e-004
3.615935e+003,-8.594841e-004
3.617863e+003,-1.061050e-003
3.619792e+003,-1.532704e-003
3.621720e+003,-1.531079e-003
3.623649e+003,-1.080375e-003
3.625577e+003,-6.380826e-004
3.627506e+003,-4.798844e-004
3.629434e+003,-1.308748e-003
3.631363e+003,-1.550449e-003
3.633291e+003,-1.497706e-003
3.635220e+003,-1.389453e-003
3.637148e+003,-1.069367e-003
3.639077e+003,-9.414162e-004
3.641005e+003,-8.075759e-004
3.642934e+003,-8.135606e-004
3.644862e+003,-4.730206e-004
3.646791e+003,-1.270156e-004
3.648719e+003,-6.156992e-004
3.650648e+003,-1.256535e-003
3.652576e+003,-1.853867e-003
3.654505e+003,-1.651119e-003
3.656433e+003,-1.403157e-003
3.658362e+003,-1.385547e-003
3.660290e+003,-1.349598e-003
3.662219e+003,-1.161488e-003
3.664147e+003,-8.451808e-004
3.666076e+003,-6.918032e-004
3.668004e+003,-5.964190e-005
3.669933e+003,1.172181e-004
3.671861e+003,-7.616468e-004
3.673790e+003,-9.411387e-004
3.675718e+003,-1.407418e-003
3.677647e+003,-1.327472e-003
3.679575e+003,-1.389528e-003
3.681504e+003,-1.145300e-003
3.683432e+003,-5.998500e-004
3.685361e+003,-2.699289e-004
3.687289e+003,3.072433e-004
3.689218e+003,6.832369e-005
3.691146e+003,-8.573253e-004
3.693075e+003,-1.158642e-003
3.695003e+003,-6.734971e-004
3.696932e+003,-3.802907e-004
3.698860e+003,-3.985986e-004
3.700789e+003,-2.667103e-004
3.702717e+003,-4.183631e-004
3.704646e+003,-4.523098e-004
3.706574e+003,-1.917332e-004
3.708503e+003,2.651531e-004
3.710431e+003,2.327301e-004
3.712360e+003,-7.185675e-004
3.714288e+003,-9.030122e-004
3.716217e+003,-6.534569e-004
3.718145e+003,-4.252400e-004
3.720074e+003,-1.544636e-004
3.722002e+003,6.517395e-005
3.723931e+003,4.304573e-006
3.725859e+003,6.758422e-005
3.727788e+003,-1.601335e-004
3.729716e+003,1.036059e-004
3.731645e+003,1.754332e-004
3.733573e+003,4.591383e-004
3.735502e+003,-2.492033e-005
3.737430e+003,-7.364526e-004
3.739359e+003,-1.187678e-004
3.741287e+003,4.340690e-004
3.743216e+003,8.856039e-004
3.745144e+003,3.136490e-004
3.747073e+003,1.773201e-004
3.749001e+003,1.737922e-004
3.750930e+003,-1.541730e-004
3.752858e+003,-4.376043e-004
3.754787e+003,-2.473537e-004
3.756715e+003,1.139883e-004
3.758644e+003,3.350023e-004
3.760572e+003,3.116503e-004
3.762501e+003,4.074071e-004
3.764429e+003,7.247273e-004
3.766358e+003,3.742445e-004
3.768286e+003,1.971666e-004
3.770215e+003,-9.500235e-005
3.772143e+003,-3.859773e-005
3.774072e+003,2.276432e-004
3.776000e+003,2.925321e-004
3.777929e+003,4.068147e-004
3.779857e+003,2.795327e-004
3.781786e+003,7.234700e-005
3.783714e+003,1.795329e-004
3.785643e+003,1.679808e-004
3.787571e+003,-6.978400e-005
3.789500e+003,-1.812167e-005
3.791428e+003,3.229361e-004
3.793357e+003,3.682189e-004
3.795285e+003,8.284599e-004
3.797214e+003,8.538533e-004
3.799142e+003,6.626341e-004
3.801071e+003,5.701240e-004
3.802999e+003,-3.058668e-004
3.804927e+003,-2.755336e-004
3.806856e+003,-3.792588e-004
3.808785e+003,-2.097879e-004
3.810713e+003,2.429876e-004
3.812642e+003,5.332362e-004
3.814570e+003,1.174048e-003
3.816499e+003,7.876288e-004
3.818427e+003,6.057564e-004
3.820355e+003,7.986985e-004
3.822284e+003,-1.638811e-004
3.824213e+003,-2.334639e-004
3.826141e+003,1.040678e-004
3.828070e+003,4.402027e-004
3.829998e+003,7.561147e-004
3.831927e+003,9.077787e-004
3.833855e+003,9.741522e-004
3.835783e+003,6.943755e-004
3.837712e+003,5.143322e-004
3.839641e+003,2.523214e-004
3.841569e+003,-1.537874e-004
3.843498e+003,-4.362129e-005
3.845426e+003,1.814440e-004
3.847354e+003,6.178487e-004
3.849283e+003,1.030313e-003
3.851211e+003,1.468321e-003
3.853140e+003,6.560050e-004
3.855069e+003,-3.324989e-004
3.856997e+003,-1.413561e-004
3.858926e+003,1.521967e-004
3.860854e+003,6.259661e-004
3.862782e+003,1.064576e-003
3.864711e+003,8.662827e-004
3.866640e+003,2.956912e-004
3.868568e+003,7.725917e-004
3.870497e+003,1.013614e-004
3.872425e+003,-1.235232e-004
3.874354e+003,1.016911e-004
3.876282e+003,9.963848e-005
3.878210e+003,4.740320e-004
3.880139e+003,1.018465e-003
3.882068e+003,7.262770e-004
3.883996e+003,5.383082e-004
3.885925e+003,2.536401e-004
3.887853e+003,1.801755e-004
3.889781e+003,4.767682e-004
3.891710e+003,5.018413e-004
3.893638e+003,3.041178e-004
3.895567e+003,3.386848e-004
3.897496e+003,8.203276e-004
3.899424e+003,9.901747e-004
3.901353e+003,6.382708e-004
3.903281e+003,3.483649e-004
3.905209e+003,-9.279326e-005
3.907138e+003,-2.354644e-004
3.909066e+003,9.661540e-006
3.910995e+003,4.279204e-004
3.912924e+003,5.305056e-004
3.914852e+003,6.229132e-004
3.916781e+003,5.409475e-004
3.918709e+003,4.132595e-004
3.920637e+003,2.981145e-004
3.922566e+003,3.453996e-004
3.924494e+003,4.753023e-004
3.926423e+003,3.210064e-004
3.928352e+003,3.199577e-004
3.930280e+003,4.500262e-004
3.932208e+003,4.609488e-004
3.934137e+003,1.091324e-004
3.936065e+003,2.052095e-004
3.937994e+003,3.317371e-004
3.939922e+003,3.050659e-004
3.941851e+003,4.568473e-004
3.943780e+003,2.946425e-004
3.945708e+003,2.688318e-004
3.947636e+003,3.631208e-004
3.949565e+003,2.405159e-004
3.951493e+003,2.348237e-005
3.953422e+003,-1.131371e-005
3.955351e+003,1.764633e-004
3.957279e+003,3.325976e-004
3.959208e+003,3.505349e-004
3.961136e+003,3.414117e-004
3.963064e+003,1.286846e-004
3.964993e+003,-1.122802e-005
3.966921e+003,-1.592562e-006
3.968850e+003,3.275648e-005
3.970779e+003,2.072267e-004
3.972707e+003,2.667252e-004
3.974635e+003,2.894774e-004
3.976564e+003,2.544131e-004
3.978492e+003,2.167653e-004
3.980421e+003,1.755916e-004
3.982349e+003,1.973845e-004
3.984278e+003,1.965296e-004
3.986207e+003,2.886746e-004
3.988135e+003,3.999695e-004
3.990063e+003,4.231110e-004
3.991992e+003,4.758406e-004
3.993920e+003,4.664864e-004
3.995849e+003,3.926735e-004
3.997777e+003,2.387017e-004
3.999706e+003,2.424065e-004
4.001635e+003,0.000000e+000
