3.991992e+002,0.000000e+000
4.011277e+002,0.000000e+000
4.030562e+002,0.000000e+000
4.049846e+002,0.000000e+000
4.069131e+002,0.000000e+000
4.088416e+002,0.000000e+000
4.107701e+002,0.000000e+000
4.126986e+002,0.000000e+000
4.146271e+002,0.000000e+000
4.165556e+002,0.000000e+000
4.184841e+002,0.000000e+000
4.204126e+002,0.000000e+000
4.223411e+002,0.000000e+000
4.242697e+002,0.000000e+000
4.261982e+002,0.000000e+000
4.281266e+002,0.000000e+000
4.300551e+002,0.000000e+000
4.319836e+002,0.000000e+000
4.339121e+002,0.000000e+000
4.358406e+002,0.000000e+000
4.377691e+002,0.000000e+000
4.396976e+002,0.000000e+000
4.416261e+002,0.000000e+000
4.435546e+002,0.000000e+000
4.454831e+002,0.000000e+000
4.474116e+002,0.000000e+000
4.493401e+002,0.000000e+000
4.512686e+002,0.000000e+000
4.531971e+002,0.000000e+000
4.551256e+002,0.000000e+000
4.570541e+002,0.000000e+000
4.589826e+002,0.000000e+000
4.609111e+002,0.000000e+000
4.628396e+002,0.000000e+000
4.647681e+002,0.000000e+000
4.666966e+002,0.000000e+000
4.686251e+002,0.000000e+000
4.705536e+002,0.000000e+000
4.724821e+002,0.000000e+000
4.744106e+002,0.000000e+000
4.763391e+002,0.000000e+000
4.782676e+002,0.000000e+000
4.801961e+002,0.000000e+000
4.821246e+002,0.000000e+000
4.840531e+002,0.000000e+000
4.859816e+002,0.000000e+000
4.879101e+002,0.000000e+000
4.898386e+002,0.000000e+000
4.917671e+002,0.000000e+000
4.936956e+002,0.000000e+000
4.956241e+002,0.000000e+000
4.975526e+002,0.000000e+000
4.994811e+002,0.000000e+000
5.014096e+002,0.000000e+000
5.033381e+002,0.000000e+000
5.052666e+002,0.000000e+000
5.071951e+002,0.000000e+000
5.091236e+002,0.000000e+000
5.110521e+002,0.000000e+000
5.129806e+002,0.000000e+000
5.149091e+002,0.000000e+000
5.168376e+002,0.000000e+000
5.187661e+002,0.000000e+000
5.206946e+002,0.000000e+000
5.226230e+002,0.000000e+000
5.245516e+002,-1.465875e-004
5.264800e+002,-6.749982e-005
5.284086e+002,-9.361596e-005
5.303370e+002,-1.654678e-004
5.322656e+002,-3.357301e-005
5.341940e+002,-6.534578e-005
5.361226e+002,-2.655433e-005
5.380510e+002,-6.262714e-005
5.399796e+002,-1.019684e-004
5.419081e+002,-1.024818e-004
5.438365e+002,-1.242330e-004
5.457650e+002,-1.652682e-004
5.476935e+002,-1.467469e-004
5.496221e+002,-1.854129e-004
5.515505e+002,-1.047482e-005
5.534790e+002,1.742219e-004
5.554075e+002,1.393280e-004
5.573361e+002,-5.711673e-005
5.592645e+002,-8.220458e-005
5.611931e+002,-7.519859e-005
5.631215e+002,1.361687e-005
5.650500e+002,1.645728e-005
5.669785e+002,-1.166121e-004
5.689070e+002,-1.905056e-004
5.708355e+002,-2.226889e-004
5.727640e+002,-2.392728e-004
5.746925e+002,-2.069386e-004
5.766210e+002,-1.725070e-004
5.785495e+002,-9.379210e-005
5.804780e+002,-1.730608e-004
5.824065e+002,-2.561364e-004
5.843350e+002,-3.325670e-004
5.862635e+002,-1.675709e-004
5.881920e+002,-1.194646e-004
5.901205e+002,-1.848356e-004
5.920490e+002,-2.508551e-004
5.939775e+002,-1.692151e-004
5.959060e+002,-1.112005e-004
5.978345e+002,2.061762e-005
5.997630e+002,-4.986161e-005
6.016915e+002,-4.867208e-005
6.036200e+002,-1.907849e-005
6.055485e+002,1.195632e-005
6.074770e+002,2.826599e-005
6.094055e+002,8.283439e-005
6.113340e+002,1.067339e-004
6.132625e+002,1.029008e-004
6.151910e+002,-4.567986e-005
6.171195e+002,-8.152530e-005
6.190480e+002,8.557108e-006
6.209765e+002,1.125562e-004
6.229050e+002,2.236424e-004
6.248335e+002,3.231216e-004
6.267620e+002,3.650358e-004
6.286905e+002,4.468656e-004
6.306190e+002,4.415095e-004
6.325475e+002,4.563621e-004
6.344760e+002,4.984200e-004
6.364045e+002,5.072586e-004
6.383330e+002,4.816381e-004
6.402615e+002,6.654728e-004
6.421899e+002,7.219538e-004
6.441185e+002,5.989211e-004
6.460470e+002,5.664525e-004
6.479755e+002,6.843252e-004
6.499039e+002,7.398298e-004
6.518325e+002,7.850106e-004
6.537610e+002,6.800093e-004
6.556895e+002,6.443734e-004
6.576179e+002,6.971704e-004
6.595464e+002,8.557216e-004
6.614750e+002,8.928643e-004
6.634034e+002,8.693825e-004
6.653319e+002,8.028568e-004
6.672604e+002,9.097114e-004
6.691890e+002,9.790483e-004
6.711174e+002,1.165808e-003
6.730460e+002,1.217560e-003
6.749745e+002,1.334977e-003
6.769030e+002,1.457498e-003
6.788314e+002,1.580757e-003
6.807599e+002,1.637680e-003
6.826885e+002,1.864634e-003
6.846169e+002,2.089919e-003
6.865454e+002,2.322518e-003
6.884739e+002,2.491312e-003
6.904025e+002,2.775991e-003
6.923309e+002,3.111122e-003
6.942594e+002,3.577756e-003
6.961879e+002,4.028940e-003
6.981165e+002,4.797715e-003
7.000449e+002,5.718548e-003
7.019734e+002,7.063568e-003
7.039019e+002,8.717535e-003
7.058304e+002,1.105892e-002
7.077589e+002,1.424130e-002
7.096874e+002,1.907626e-002
7.116159e+002,2.686076e-002
7.135444e+002,4.158725e-002
7.154729e+002,6.771794e-002
7.174014e+002,1.029483e-001
7.193299e+002,1.171840e-001
7.212584e+002,8.735391e-002
7.231869e+002,5.800531e-002
7.251154e+002,4.759471e-002
7.270439e+002,5.200193e-002
7.289724e+002,6.814340e-002
7.309009e+002,6.538918e-002
7.328294e+002,3.761135e-002
7.347579e+002,1.913478e-002
7.366864e+002,1.258407e-002
7.386149e+002,9.880302e-003
7.405434e+002,8.241084e-003
7.424719e+002,7.273229e-003
7.444004e+002,6.538649e-003
7.463289e+002,5.978920e-003
7.482574e+002,5.463448e-003
7.501859e+002,5.117942e-003
7.521144e+002,4.790295e-003
7.540428e+002,4.540499e-003
7.559714e+002,4.244159e-003
7.578999e+002,3.962374e-003
7.598284e+002,3.698651e-003
7.617568e+002,3.539705e-003
7.636854e+002,3.405397e-003
7.656139e+002,3.272475e-003
7.675424e+002,3.072354e-003
7.694709e+002,2.957934e-003
7.713994e+002,2.864051e-003
7.733279e+002,2.758933e-003
7.752563e+002,2.659737e-003
7.771849e+002,2.593941e-003
7.791134e+002,2.550794e-003
7.810419e+002,2.572178e-003
7.829703e+002,2.497322e-003
7.848989e+002,2.417655e-003
7.868274e+002,2.404352e-003
7.887559e+002,2.476275e-003
7.906843e+002,2.498292e-003
7.926129e+002,2.495465e-003
7.945414e+002,2.466845e-003
7.964698e+002,2.377272e-003
7.983983e+002,2.345222e-003
8.003268e+002,2.421182e-003
8.022554e+002,2.382092e-003
8.041838e+002,2.346233e-003
8.061123e+002,2.372746e-003
8.080408e+002,2.309330e-003
8.099694e+002,2.218561e-003
8.118978e+002,2.159362e-003
8.138263e+002,2.052743e-003
8.157548e+002,1.943058e-003
8.176833e+002,1.944681e-003
8.196118e+002,1.923595e-003
8.215403e+002,1.839841e-003
8.234689e+002,1.833130e-003
8.253973e+002,1.816091e-003
8.273258e+002,1.678485e-003
8.292543e+002,1.592420e-003
8.311829e+002,1.557329e-003
8.331113e+002,1.594692e-003
8.350398e+002,1.638015e-003
8.369683e+002,1.652105e-003
8.388969e+002,1.700631e-003
8.408253e+002,1.826811e-003
8.427538e+002,1.893582e-003
8.446823e+002,1.847122e-003
8.466108e+002,1.803181e-003
8.485393e+002,1.855063e-003
8.504678e+002,1.868613e-003
8.523963e+002,1.853662e-003
8.543248e+002,1.841734e-003
8.562533e+002,1.867050e-003
8.581818e+002,1.891596e-003
8.601103e+002,1.883261e-003
8.620388e+002,1.877260e-003
8.639673e+002,1.894560e-003
8.658958e+002,1.866276e-003
8.678243e+002,1.839935e-003
8.697528e+002,1.869858e-003
8.716813e+002,1.958117e-003
8.736098e+002,1.961602e-003
8.755383e+002,2.024655e-003
8.774668e+002,2.107408e-003
8.793953e+002,2.100324e-003
8.813238e+002,2.062789e-003
8.832523e+002,2.129829e-003
8.851808e+002,2.206747e-003
8.871093e+002,2.319926e-003
8.890378e+002,2.350466e-003
8.909663e+002,2.354841e-003
8.928948e+002,2.272928e-003
8.948232e+002,2.153207e-003
8.967518e+002,2.037193e-003
8.986803e+002,2.019841e-003
9.006088e+002,2.041587e-003
9.025372e+002,2.229048e-003
9.044658e+002,2.564980e-003
9.063943e+002,3.021217e-003
9.083228e+002,3.274631e-003
9.102512e+002,3.069716e-003
9.121797e+002,2.666235e-003
9.141083e+002,2.328876e-003
9.160367e+002,2.092319e-003
9.179653e+002,2.025893e-003
9.198937e+002,1.923823e-003
9.218223e+002,1.905020e-003
9.237507e+002,1.798944e-003
9.256793e+002,1.754639e-003
9.276077e+002,1.786046e-003
9.295363e+002,1.836395e-003
9.314647e+002,1.813268e-003
9.333932e+002,1.813927e-003
9.353217e+002,1.796418e-003
9.372502e+002,1.792169e-003
9.391787e+002,1.796144e-003
9.411072e+002,1.746613e-003
9.430358e+002,1.750050e-003
9.449642e+002,1.821244e-003
9.468928e+002,1.816919e-003
9.488212e+002,1.888846e-003
9.507498e+002,1.921190e-003
9.526782e+002,1.893072e-003
9.546068e+002,1.906047e-003
9.565352e+002,2.030055e-003
9.584637e+002,2.064582e-003
9.603922e+002,2.116062e-003
9.623207e+002,2.164174e-003
9.642492e+002,2.282571e-003
9.661777e+002,2.351335e-003
9.681062e+002,2.377074e-003
9.700347e+002,2.302590e-003
9.719632e+002,2.287648e-003
9.738917e+002,2.278824e-003
9.758202e+002,2.235927e-003
9.777487e+002,2.213448e-003
9.796772e+002,2.288287e-003
9.816057e+002,2.358234e-003
9.835342e+002,2.478201e-003
9.854627e+002,2.544287e-003
9.873912e+002,2.689697e-003
9.893197e+002,2.827961e-003
9.912482e+002,2.908507e-003
9.931767e+002,2.854320e-003
9.951052e+002,2.855782e-003
9.970337e+002,2.876598e-003
9.989622e+002,2.888520e-003
1.000891e+003,2.869180e-003
1.002819e+003,2.896925e-003
1.004748e+003,2.932838e-003
1.006676e+003,3.026822e-003
1.008605e+003,3.108808e-003
1.010533e+003,3.231731e-003
1.012462e+003,3.362536e-003
1.014390e+003,3.481622e-003
1.016319e+003,3.528230e-003
1.018247e+003,3.614191e-003
1.020176e+003,3.681736e-003
1.022104e+003,3.727350e-003
1.024033e+003,3.721272e-003
1.025961e+003,3.710651e-003
1.027890e+003,3.719449e-003
1.029818e+003,3.806486e-003
1.031747e+003,3.837094e-003
1.033675e+003,3.908925e-003
1.035604e+003,3.905878e-003
1.037532e+003,3.926018e-003
1.039461e+003,3.980669e-003
1.041389e+003,4.091066e-003
1.043318e+003,4.132348e-003
1.045246e+003,4.213583e-003
1.047175e+003,4.321442e-003
1.049103e+003,4.464438e-003
1.051032e+003,4.541690e-003
1.052960e+003,4.528515e-003
1.054889e+003,4.463706e-003
1.056817e+003,4.528094e-003
1.058746e+003,4.589330e-003
1.060674e+003,4.692569e-003
1.062603e+003,4.797291e-003
1.064531e+003,4.847671e-003
1.066460e+003,4.852462e-003
1.068388e+003,4.893941e-003
1.070317e+003,4.943575e-003
1.072245e+003,5.114174e-003
1.074174e+003,5.342608e-003
1.076102e+003,5.571472e-003
1.078031e+003,5.742896e-003
1.079959e+003,5.892241e-003
1.081888e+003,5.919735e-003
1.083816e+003,5.958583e-003
1.085745e+003,5.905321e-003
1.087673e+003,5.902055e-003
1.089602e+003,5.925425e-003
1.091530e+003,5.912298e-003
1.093459e+003,5.839555e-003
1.095387e+003,5.804702e-003
1.097316e+003,5.726736e-003
1.099244e+003,5.701525e-003
1.101173e+003,5.534980e-003
1.103101e+003,5.427871e-003
1.105030e+003,5.353574e-003
1.106958e+003,5.293563e-003
1.108887e+003,5.250040e-003
1.110815e+003,5.284901e-003
1.112744e+003,5.278281e-003
1.114672e+003,5.320067e-003
1.116601e+003,5.326631e-003
1.118529e+003,5.392197e-003
1.120458e+003,5.356249e-003
1.122386e+003,5.317381e-003
1.124315e+003,5.224611e-003
1.126243e+003,5.178262e-003
1.128172e+003,5.165325e-003
1.130100e+003,5.286707e-003
1.132029e+003,5.424724e-003
1.133957e+003,5.654813e-003
1.135885e+003,5.894409e-003
1.137814e+003,6.173971e-003
1.139743e+003,6.383876e-003
1.141671e+003,6.637746e-003
1.143600e+003,6.885059e-003
1.145528e+003,7.243325e-003
1.147457e+003,7.663825e-003
1.149385e+003,8.274374e-003
1.151314e+003,8.990786e-003
1.153242e+003,9.671986e-003
1.155171e+003,1.016009e-002
1.157099e+003,1.048828e-002
1.159028e+003,1.066266e-002
1.160956e+003,1.076808e-002
1.162885e+003,1.065018e-002
1.164813e+003,1.046030e-002
1.166742e+003,1.015984e-002
1.168670e+003,9.789045e-003
1.170599e+003,9.338540e-003
1.172527e+003,8.934428e-003
1.174456e+003,8.526531e-003
1.176384e+003,8.212140e-003
1.178313e+003,7.752191e-003
1.180241e+003,7.335767e-003
1.182170e+003,7.026745e-003
1.184098e+003,6.858276e-003
1.186027e+003,6.748376e-003
1.187955e+003,6.721096e-003
1.189884e+003,6.672763e-003
1.191812e+003,6.738553e-003
1.193740e+003,6.783489e-003
1.195669e+003,6.892744e-003
1.197598e+003,7.018420e-003
1.199526e+003,7.195198e-003
1.201455e+003,7.394901e-003
1.203383e+003,7.730905e-003
1.205312e+003,8.050432e-003
1.207240e+003,8.439235e-003
1.209168e+003,8.752006e-003
1.211097e+003,9.075143e-003
1.213026e+003,9.329334e-003
1.214954e+003,9.582978e-003
1.216883e+003,9.778800e-003
1.218811e+003,1.005562e-002
1.220740e+003,1.029399e-002
1.222668e+003,1.054400e-002
1.224596e+003,1.074441e-002
1.226525e+003,1.100808e-002
1.228453e+003,1.122471e-002
1.230382e+003,1.148330e-002
1.232311e+003,1.165261e-002
1.234239e+003,1.183831e-002
1.236167e+003,1.196269e-002
1.238096e+003,1.207352e-002
1.240025e+003,1.205831e-002
1.241953e+003,1.201944e-002
1.243882e+003,1.182451e-002
1.245810e+003,1.161233e-002
1.247739e+003,1.128383e-002
1.249667e+003,1.093421e-002
1.251595e+003,1.053153e-002
1.253524e+003,1.021293e-002
1.255453e+003,9.857249e-003
1.257381e+003,9.563390e-003
1.259310e+003,9.220307e-003
1.261238e+003,8.895351e-003
1.263167e+003,8.567933e-003
1.265095e+003,8.327939e-003
1.267023e+003,8.055871e-003
1.268952e+003,7.918762e-003
1.270880e+003,7.790561e-003
1.272809e+003,7.756837e-003
1.274738e+003,7.756989e-003
1.276666e+003,7.804508e-003
1.278594e+003,7.794160e-003
1.280523e+003,7.894698e-003
1.282451e+003,7.946735e-003
1.284380e+003,8.104237e-003
1.286308e+003,8.215913e-003
1.288237e+003,8.447138e-003
1.290166e+003,8.678439e-003
1.292094e+003,9.072079e-003
1.294022e+003,9.480086e-003
1.295951e+003,9.952873e-003
1.297879e+003,1.026853e-002
1.299808e+003,1.055024e-002
1.301736e+003,1.065909e-002
1.303665e+003,1.071890e-002
1.305594e+003,1.062505e-002
1.307522e+003,1.050738e-002
1.309450e+003,1.019734e-002
1.311379e+003,9.880882e-003
1.313307e+003,9.398334e-003
1.315236e+003,8.966648e-003
1.317164e+003,8.503425e-003
1.319093e+003,8.081116e-003
1.321021e+003,7.567724e-003
1.322950e+003,7.224109e-003
1.324878e+003,6.936928e-003
1.326807e+003,6.830051e-003
1.328735e+003,6.729544e-003
1.330664e+003,6.811433e-003
1.332592e+003,6.983294e-003
1.334521e+003,7.436745e-003
1.336449e+003,8.011071e-003
1.338378e+003,8.882925e-003
1.340306e+003,9.588832e-003
1.342235e+003,1.007209e-002
1.344163e+003,1.048457e-002
1.346092e+003,1.113813e-002
1.348021e+003,1.183044e-002
1.349949e+003,1.262253e-002
1.351877e+003,1.301811e-002
1.353806e+003,1.309995e-002
1.355734e+003,1.282703e-002
1.357663e+003,1.280852e-002
1.359591e+003,1.313031e-002
1.361520e+003,1.400725e-002
1.363448e+003,1.517798e-002
1.365377e+003,1.632533e-002
1.367305e+003,1.705659e-002
1.369234e+003,1.703967e-002
1.371162e+003,1.600076e-002
1.373091e+003,1.492302e-002
1.375019e+003,1.442035e-002
1.376948e+003,1.443847e-002
1.378876e+003,1.278765e-002
1.380805e+003,1.000848e-002
1.382733e+003,7.851425e-003
1.384662e+003,6.947134e-003
1.386590e+003,6.379561e-003
1.388519e+003,6.050621e-003
1.390447e+003,5.719939e-003
1.392376e+003,5.722135e-003
1.394304e+003,5.650828e-003
1.396233e+003,5.781571e-003
1.398161e+003,5.663413e-003
1.400090e+003,5.753324e-003
1.402018e+003,5.640150e-003
1.403947e+003,5.895523e-003
1.405875e+003,5.857604e-003
1.407804e+003,6.000553e-003
1.409732e+003,6.112614e-003
1.411661e+003,6.568146e-003
1.413589e+003,6.722961e-003
1.415518e+003,7.199641e-003
1.417446e+003,7.460449e-003
1.419375e+003,8.180362e-003
1.421303e+003,8.513915e-003
1.423232e+003,9.611772e-003
1.425160e+003,1.097998e-002
1.427089e+003,1.291827e-002
1.429017e+003,1.545034e-002
1.430946e+003,1.919021e-002
1.432874e+003,2.219023e-002
1.434803e+003,2.508825e-002
1.436731e+003,2.807539e-002
1.438660e+003,3.083521e-002
1.440588e+003,3.227982e-002
1.442517e+003,3.430837e-002
1.444445e+003,3.586448e-002
1.446374e+003,3.831227e-002
1.448302e+003,4.170778e-002
1.450231e+003,4.712495e-002
1.452159e+003,5.529756e-002
1.454088e+003,6.604496e-002
1.456016e+003,7.691867e-002
1.457945e+003,1.032261e-001
1.459873e+003,1.504298e-001
1.461802e+003,1.971269e-001
1.463730e+003,1.958856e-001
1.465659e+003,1.515901e-001
1.467587e+003,1.383430e-001
1.469516e+003,1.360611e-001
1.471444e+003,1.547931e-001
1.473373e+003,1.379274e-001
1.475301e+003,7.473440e-002
1.477230e+003,3.304034e-002
1.479158e+003,2.109229e-002
1.481087e+003,1.550190e-002
1.483015e+003,1.293977e-002
1.484944e+003,1.091202e-002
1.486872e+003,1.038164e-002
1.488801e+003,8.959622e-003
1.490729e+003,8.487090e-003
1.492658e+003,7.353447e-003
1.494586e+003,7.424577e-003
1.496515e+003,6.648029e-003
1.498443e+003,6.671661e-003
1.500372e+003,5.923947e-003
1.502300e+003,5.873937e-003
1.504229e+003,5.439397e-003
1.506157e+003,6.080111e-003
1.508086e+003,5.021097e-003
1.510014e+003,5.202801e-003
1.511943e+003,4.700152e-003
1.513871e+003,4.872088e-003
1.515800e+003,4.702475e-003
1.517728e+003,4.897765e-003
1.519657e+003,4.556017e-003
1.521585e+003,4.821090e-003
1.523514e+003,4.316823e-003
1.525442e+003,4.605289e-003
1.527371e+003,4.151840e-003
1.529299e+003,4.155816e-003
1.531228e+003,4.061329e-003
1.533156e+003,4.380717e-003
1.535085e+003,4.108178e-003
1.537013e+003,4.302039e-003
1.538942e+003,4.125330e-003
1.540870e+003,4.448604e-003
1.542799e+003,4.027352e-003
1.544727e+003,4.071875e-003
1.546656e+003,3.697875e-003
1.548584e+003,3.822193e-003
1.550513e+003,3.712302e-003
1.552441e+003,3.837269e-003
1.554370e+003,3.661849e-003
1.556298e+003,3.799648e-003
1.558227e+003,3.632774e-003
1.560155e+003,3.407933e-003
1.562084e+003,3.143793e-003
1.564012e+003,3.298158e-003
1.565941e+003,3.179445e-003
1.567869e+003,3.361061e-003
1.569798e+003,3.267137e-003
1.571726e+003,3.273151e-003
1.573655e+003,3.261769e-003
1.575583e+003,3.467210e-003
1.577512e+003,3.167132e-003
1.579440e+003,3.226234e-003
1.581369e+003,3.198085e-003
1.583297e+003,3.277049e-003
1.585226e+003,3.186669e-003
1.587154e+003,3.237423e-003
1.589083e+003,3.180429e-003
1.591011e+003,3.230623e-003
1.592940e+003,3.166958e-003
1.594868e+003,3.231808e-003
1.596797e+003,3.087043e-003
1.598725e+003,3.086698e-003
1.600654e+003,2.996691e-003
1.602582e+003,3.044817e-003
1.604511e+003,2.946159e-003
1.606439e+003,3.002557e-003
1.608368e+003,2.973948e-003
1.610296e+003,3.035265e-003
1.612225e+003,2.956820e-003
1.614153e+003,3.093001e-003
1.616082e+003,3.108570e-003
1.618010e+003,3.132423e-003
1.619939e+003,3.037906e-003
1.621867e+003,3.110518e-003
1.623796e+003,3.088175e-003
1.625724e+003,3.261388e-003
1.627653e+003,3.294554e-003
1.629581e+003,3.335779e-003
1.631510e+003,3.298047e-003
1.633438e+003,3.456871e-003
1.635367e+003,3.376834e-003
1.637295e+003,3.461638e-003
1.639224e+003,3.558786e-003
1.641152e+003,3.706260e-003
1.643081e+003,3.584001e-003
1.645009e+003,3.746325e-003
1.646938e+003,3.610692e-003
1.648866e+003,3.448927e-003
1.650795e+003,3.349519e-003
1.652723e+003,3.361660e-003
1.654652e+003,3.096596e-003
1.656580e+003,3.220397e-003
1.658509e+003,3.112638e-003
1.660437e+003,3.195423e-003
1.662366e+003,3.155763e-003
1.664294e+003,2.988588e-003
1.666223e+003,2.820439e-003
1.668151e+003,2.817964e-003
1.670080e+003,2.535114e-003
1.672008e+003,2.491349e-003
1.673937e+003,2.413817e-003
1.675865e+003,2.412981e-003
1.677794e+003,2.247404e-003
1.679722e+003,2.298419e-003
1.681651e+003,2.166853e-003
1.683579e+003,2.128415e-003
1.685508e+003,1.870839e-003
1.687436e+003,2.008219e-003
1.689365e+003,1.867161e-003
1.691293e+003,1.840278e-003
1.693222e+003,1.785627e-003
1.695150e+003,1.836948e-003
1.697079e+003,1.732226e-003
1.699007e+003,1.818495e-003
1.700936e+003,1.377090e-003
1.702864e+003,1.591976e-003
1.704793e+003,1.664073e-003
1.706721e+003,1.791646e-003
1.708650e+003,1.797756e-003
1.710578e+003,1.921662e-003
1.712507e+003,1.935897e-003
1.714435e+003,2.233306e-003
1.716364e+003,2.320106e-003
1.718292e+003,2.371866e-003
1.720221e+003,2.338628e-003
1.722149e+003,2.495457e-003
1.724078e+003,2.577857e-003
1.726006e+003,2.853294e-003
1.727935e+003,3.142639e-003
1.729863e+003,3.632104e-003
1.731792e+003,3.965404e-003
1.733720e+003,4.684200e-003
1.735649e+003,5.248069e-003
1.737577e+003,5.990392e-003
1.739506e+003,7.081948e-003
1.741434e+003,8.261481e-003
1.743363e+003,9.328165e-003
1.745291e+003,1.024021e-002
1.747220e+003,1.070574e-002
1.749148e+003,1.073301e-002
1.751077e+003,9.423457e-003
1.753005e+003,7.776545e-003
1.754934e+003,6.512116e-003
1.756862e+003,5.072952e-003
1.758791e+003,3.844555e-003
1.760719e+003,3.060265e-003
1.762648e+003,2.059401e-003
1.764576e+003,1.687653e-003
1.766505e+003,1.500409e-003
1.768433e+003,1.313320e-003
1.770362e+003,1.154671e-003
1.772290e+003,1.167750e-003
1.774219e+003,8.120846e-004
1.776147e+003,6.540981e-004
1.778076e+003,5.955498e-004
1.780004e+003,6.487600e-004
1.781933e+003,4.912731e-004
1.783861e+003,5.229861e-004
1.785790e+003,3.569541e-004
1.787718e+003,4.024180e-004
1.789646e+003,4.956441e-004
1.791575e+003,5.747147e-004
1.793504e+003,2.348700e-004
1.795432e+003,3.167714e-004
1.797361e+003,3.146469e-004
1.799289e+003,3.641371e-004
1.801218e+003,3.010181e-004
1.803146e+003,2.459125e-004
1.805074e+003,1.620967e-005
1.807003e+003,-1.439266e-005
1.808932e+003,-6.159768e-005
1.810860e+003,-5.637319e-005
1.812789e+003,-3.108715e-004
1.814717e+003,-5.392580e-004
1.816646e+003,-7.587222e-004
1.818574e+003,-4.484748e-004
1.820502e+003,-3.228425e-004
1.822431e+003,-2.103120e-004
1.824360e+003,-2.798715e-004
1.826288e+003,-3.128126e-004
1.828217e+003,-4.840476e-004
1.830145e+003,-5.736852e-004
1.832073e+003,-8.220986e-004
1.834002e+003,-7.334811e-004
1.835931e+003,-7.036262e-004
1.837859e+003,-6.853690e-004
1.839788e+003,-8.427692e-004
1.841716e+003,-6.107730e-004
1.843645e+003,-4.774388e-004
1.845573e+003,-4.734742e-004
1.847501e+003,-7.351831e-004
1.849430e+003,-7.968930e-004
1.851359e+003,-9.741572e-004
1.853287e+003,-9.776111e-004
1.855216e+003,-1.193147e-003
1.857144e+003,-1.076529e-003
1.859073e+003,-1.063020e-003
1.861001e+003,-9.360656e-004
1.862929e+003,-1.035684e-003
1.864858e+003,-9.886135e-004
1.866787e+003,-1.221519e-003
1.868715e+003,-1.007588e-003
1.870644e+003,-1.185250e-003
1.872572e+003,-1.127849e-003
1.874500e+003,-1.200047e-003
1.876429e+003,-1.185523e-003
1.878357e+003,-1.343079e-003
1.880286e+003,-1.293242e-003
1.882215e+003,-1.496994e-003
1.884143e+003,-1.181383e-003
1.886072e+003,-1.197269e-003
1.888000e+003,-1.307927e-003
1.889928e+003,-1.543705e-003
1.891857e+003,-1.108577e-003
1.893785e+003,-9.472540e-004
1.895714e+003,-6.897596e-004
1.897643e+003,-7.440946e-004
1.899571e+003,-5.942758e-004
1.901500e+003,-5.892389e-004
1.903428e+003,-5.842121e-004
1.905356e+003,-5.791963e-004
1.907285e+003,-5.741913e-004
1.909213e+003,-5.691960e-004
1.911142e+003,-5.642108e-004
1.913071e+003,-5.592359e-004
1.914999e+003,-5.542715e-004
1.916927e+003,-5.493178e-004
1.918856e+003,-5.443736e-004
1.920784e+003,-5.394407e-004
1.922713e+003,-5.345177e-004
1.924641e+003,-5.296052e-004
1.926570e+003,-5.247020e-004
1.928499e+003,-5.198100e-004
1.930427e+003,-5.149285e-004
1.932355e+003,-5.100572e-004
1.934284e+003,-5.051959e-004
1.936212e+003,-5.003451e-004
1.938141e+003,-4.955051e-004
1.940070e+003,-4.906745e-004
1.941998e+003,-4.858545e-004
1.943927e+003,-4.810456e-004
1.945855e+003,-4.762465e-004
1.947783e+003,-4.714574e-004
1.949712e+003,-4.666790e-004
1.951640e+003,-4.619111e-004
1.953569e+003,-4.571532e-004
1.955498e+003,-4.524051e-004
1.957426e+003,-4.476684e-004
1.959354e+003,-4.429417e-004
1.961283e+003,-4.382255e-004
1.963211e+003,-4.335186e-004
1.965140e+003,-4.288228e-004
1.967068e+003,-4.241373e-004
1.968997e+003,-4.194623e-004
1.970926e+003,-4.147973e-004
1.972854e+003,-4.101426e-004
1.974782e+003,-4.054988e-004
1.976711e+003,-4.008648e-004
1.978639e+003,-3.962410e-004
1.980568e+003,-3.916277e-004
1.982496e+003,-3.870248e-004
1.984425e+003,-3.824322e-004
1.986354e+003,-3.778497e-004
1.988282e+003,-3.732783e-004
1.990210e+003,-3.687164e-004
1.992139e+003,-3.641651e-004
1.994067e+003,-3.596239e-004
1.995996e+003,-3.550933e-004
1.997924e+003,-3.505736e-004
1.999853e+003,-3.460627e-004
2.001781e+003,-3.415635e-004
2.003710e+003,-3.370743e-004
2.005638e+003,-3.325951e-004
2.007567e+003,-3.281264e-004
2.009495e+003,-3.236679e-004
2.011424e+003,-3.192204e-004
2.013352e+003,-3.147817e-004
2.015281e+003,-3.103549e-004
2.017209e+003,-3.059378e-004
2.019138e+003,-3.015313e-004
2.021066e+003,-2.971345e-004
2.022995e+003,-2.927484e-004
2.024923e+003,-2.883731e-004
2.026852e+003,-2.840078e-004
2.028781e+003,-2.796524e-004
2.030709e+003,-2.753076e-004
2.032637e+003,-2.709730e-004
2.034566e+003,-2.666495e-004
2.036494e+003,-2.623349e-004
2.038423e+003,-2.580318e-004
2.040351e+003,-2.537388e-004
2.042280e+003,-2.494557e-004
2.044208e+003,-2.451835e-004
2.046137e+003,-2.409210e-004
2.048065e+003,-2.366700e-004
2.049994e+003,-2.324283e-004
2.051922e+003,-2.281975e-004
2.053851e+003,-2.239752e-004
2.055779e+003,-2.197651e-004
2.057708e+003,-2.155651e-004
2.059636e+003,-2.113753e-004
2.061565e+003,-2.071960e-004
2.063493e+003,-2.030267e-004
2.065422e+003,-1.988683e-004
2.067350e+003,-1.947198e-004
2.069279e+003,-1.905807e-004
2.071207e+003,-1.864529e-004
2.073136e+003,-1.823350e-004
2.075064e+003,-1.782281e-004
2.076993e+003,-1.741312e-004
2.078921e+003,-1.700453e-004
2.080850e+003,-1.659691e-004
2.082778e+003,-1.619034e-004
2.084707e+003,-1.578466e-004
2.086635e+003,-1.538012e-004
2.088564e+003,-1.497667e-004
2.090492e+003,-1.457420e-004
2.092421e+003,-1.417282e-004
2.094349e+003,-1.377240e-004
2.096278e+003,-1.337307e-004
2.098206e+003,-1.297465e-004
2.100135e+003,-1.257733e-004
2.102063e+003,-1.218109e-004
2.103992e+003,-1.178586e-004
2.105920e+003,-1.139168e-004
2.107849e+003,-1.099850e-004
2.109777e+003,-1.060644e-004
2.111706e+003,-1.021530e-004
2.113634e+003,-9.825127e-005
2.115563e+003,-9.436114e-005
2.117491e+003,-9.048101e-005
2.119420e+003,-8.661160e-005
2.121348e+003,-8.275243e-005
2.123277e+003,-7.890351e-005
2.125205e+003,-7.506483e-005
2.127134e+003,-7.123617e-005
2.129062e+003,-6.741728e-005
2.130991e+003,-6.360933e-005
2.132919e+003,-5.981256e-005
2.134848e+003,-5.602557e-005
2.136776e+003,-5.224859e-005
2.138705e+003,-4.848256e-005
2.140633e+003,-4.472630e-005
2.142562e+003,-4.097982e-005
2.144490e+003,-3.724429e-005
2.146419e+003,-3.351946e-005
2.148347e+003,-2.980465e-005
2.150276e+003,-2.610032e-005
2.152204e+003,-2.240646e-005
2.154133e+003,-1.872238e-005
2.156061e+003,-1.504784e-005
2.157990e+003,-1.138472e-005
2.159918e+003,-7.732539e-006
2.161847e+003,-4.090136e-006
2.163775e+003,-4.577450e-007
2.165704e+003,3.163703e-006
2.167632e+003,6.775139e-006
2.169561e+003,1.037610e-005
2.171489e+003,1.396704e-005
2.173418e+003,1.754845e-005
2.175346e+003,2.111890e-005
2.177275e+003,2.467888e-005
2.179203e+003,2.822815e-005
2.181132e+003,3.176741e-005
2.183060e+003,3.529596e-005
2.184989e+003,3.881450e-005
2.186917e+003,4.232372e-005
2.188846e+003,4.582154e-005
2.190774e+003,4.930911e-005
2.192703e+003,5.278597e-005
2.194631e+003,5.625305e-005
2.196560e+003,5.970942e-005
2.198488e+003,6.315578e-005
2.200417e+003,6.659259e-005
2.202345e+003,7.001846e-005
2.204274e+003,7.343409e-005
2.206202e+003,7.683854e-005
2.208131e+003,8.023321e-005
2.210059e+003,8.361717e-005
2.211988e+003,8.699135e-005
2.213916e+003,9.035436e-005
2.215845e+003,9.370781e-005
2.217773e+003,9.705219e-005
2.219702e+003,1.003845e-004
2.221630e+003,1.037072e-004
2.223559e+003,1.070187e-004
2.225487e+003,1.103207e-004
2.227416e+003,1.136118e-004
2.229344e+003,1.168929e-004
2.231273e+003,1.201651e-004
2.233201e+003,1.234252e-004
2.235130e+003,1.266750e-004
2.237058e+003,1.299144e-004
2.238987e+003,1.331440e-004
2.240915e+003,1.363626e-004
2.242844e+003,1.395715e-004
2.244772e+003,1.427713e-004
2.246701e+003,1.459590e-004
2.248629e+003,1.491369e-004
2.250558e+003,1.523041e-004
2.252486e+003,1.554615e-004
2.254415e+003,1.586084e-004
2.256343e+003,1.617447e-004
2.258272e+003,1.648706e-004
2.260200e+003,1.679861e-004
2.262129e+003,1.710930e-004
2.264057e+003,1.741876e-004
2.265986e+003,1.772726e-004
2.267914e+003,1.803471e-004
2.269843e+003,1.834109e-004
2.271771e+003,1.864652e-004
2.273700e+003,1.895083e-004
2.275628e+003,1.925428e-004
2.277557e+003,1.955654e-004
2.279485e+003,1.985782e-004
2.281414e+003,2.015806e-004
2.283342e+003,2.045720e-004
2.285271e+003,2.075536e-004
2.287199e+003,2.105245e-004
2.289128e+003,2.134866e-004
2.291056e+003,2.164370e-004
2.292985e+003,2.193775e-004
2.294913e+003,2.223076e-004
2.296842e+003,2.252269e-004
2.298770e+003,2.281363e-004
2.300699e+003,2.310351e-004
2.302627e+003,2.339247e-004
2.304556e+003,2.368027e-004
2.306484e+003,2.396710e-004
2.308413e+003,2.425283e-004
2.310341e+003,2.453753e-004
2.312270e+003,2.482124e-004
2.314198e+003,2.510389e-004
2.316127e+003,2.538553e-004
2.318055e+003,2.566611e-004
2.319984e+003,2.594579e-004
2.321912e+003,2.622434e-004
2.323841e+003,2.650181e-004
2.325769e+003,2.677832e-004
2.327698e+003,2.705371e-004
2.329626e+003,2.732815e-004
2.331555e+003,2.760144e-004
2.333483e+003,2.787393e-004
2.335412e+003,2.814527e-004
2.337340e+003,2.841551e-004
2.339269e+003,2.868478e-004
2.341197e+003,2.895296e-004
2.343126e+003,2.922015e-004
2.345054e+003,2.948621e-004
2.346983e+003,2.975143e-004
2.348911e+003,3.001560e-004
2.350840e+003,3.027855e-004
2.352768e+003,3.054063e-004
2.354697e+003,3.080154e-004
2.356625e+003,3.106152e-004
2.358554e+003,3.132038e-004
2.360482e+003,3.157831e-004
2.362411e+003,3.183517e-004
2.364339e+003,3.209109e-004
2.366268e+003,3.234586e-004
2.368196e+003,3.259955e-004
2.370125e+003,3.285231e-004
2.372053e+003,3.310395e-004
2.373982e+003,3.335462e-004
2.375910e+003,3.360426e-004
2.377839e+003,3.385292e-004
2.379767e+003,3.410052e-004
2.381696e+003,3.434699e-004
2.383624e+003,3.459244e-004
2.385553e+003,3.483696e-004
2.387481e+003,3.508031e-004
2.389410e+003,3.532278e-004
2.391338e+003,3.556423e-004
2.393267e+003,3.580456e-004
2.395195e+003,3.604377e-004
2.397124e+003,3.628209e-004
2.399052e+003,3.651930e-004
2.400981e+003,3.707628e-004
2.402909e+003,3.497112e-004
2.404838e+003,4.018429e-004
2.406766e+003,5.025971e-004
2.408695e+003,7.266705e-004
2.410623e+003,7.758671e-004
2.412552e+003,7.219370e-004
2.414480e+003,7.189536e-004
2.416409e+003,7.733968e-004
2.418337e+003,7.984564e-004
2.420266e+003,8.403938e-004
2.422194e+003,7.140231e-004
2.424123e+003,4.935442e-004
2.426051e+003,4.717652e-004
2.427979e+003,6.102766e-004
2.429908e+003,6.268821e-004
2.431837e+003,6.364658e-004
2.433765e+003,5.564657e-004
2.435694e+003,5.402197e-004
2.437622e+003,5.615084e-004
2.439551e+003,5.004108e-004
2.441479e+003,3.891615e-004
2.443407e+003,5.178717e-004
2.445336e+003,6.118766e-004
2.447265e+003,6.822459e-004
2.449193e+003,6.168941e-004
2.451122e+003,6.664819e-004
2.453050e+003,7.372973e-004
2.454979e+003,7.802695e-004
2.456907e+003,7.093661e-004
2.458836e+003,5.975063e-004
2.460764e+003,5.705799e-004
2.462693e+003,6.266474e-004
2.464621e+003,6.707418e-004
2.466550e+003,7.660617e-004
2.468478e+003,7.343930e-004
2.470406e+003,7.654252e-004
2.472335e+003,6.374815e-004
2.474264e+003,7.429365e-004
2.476192e+003,8.642278e-004
2.478121e+003,9.533707e-004
2.480049e+003,9.847609e-004
2.481978e+003,1.078021e-003
2.483906e+003,9.709131e-004
2.485835e+003,1.033419e-003
2.487763e+003,9.722458e-004
2.489692e+003,9.365096e-004
2.491620e+003,1.027414e-003
2.493549e+003,1.076106e-003
2.495477e+003,1.015834e-003
2.497406e+003,1.113907e-003
2.499334e+003,1.140626e-003
2.501263e+003,1.192377e-003
2.503191e+003,1.260547e-003
2.505120e+003,1.305288e-003
2.507048e+003,1.299821e-003
2.508977e+003,1.396224e-003
2.510905e+003,1.458649e-003
2.512833e+003,1.495213e-003
2.514762e+003,1.658527e-003
2.516691e+003,1.929142e-003
2.518619e+003,2.021309e-003
2.520548e+003,2.024724e-003
2.522476e+003,2.095912e-003
2.524405e+003,2.323674e-003
2.526333e+003,2.491924e-003
2.528261e+003,2.626297e-003
2.530190e+003,2.562481e-003
2.532119e+003,2.529049e-003
2.534047e+003,2.513138e-003
2.535976e+003,2.381337e-003
2.537904e+003,2.372895e-003
2.539833e+003,2.590584e-003
2.541761e+003,2.698927e-003
2.543689e+003,2.918012e-003
2.545618e+003,3.123620e-003
2.547547e+003,3.227802e-003
2.549475e+003,3.240510e-003
2.551404e+003,3.247353e-003
2.553332e+003,3.442704e-003
2.555260e+003,3.667980e-003
2.557189e+003,3.661997e-003
2.559117e+003,3.727850e-003
2.561046e+003,3.883504e-003
2.562975e+003,4.039921e-003
2.564903e+003,4.233597e-003
2.566832e+003,4.257897e-003
2.568760e+003,4.262235e-003
2.570688e+003,4.386796e-003
2.572617e+003,4.557791e-003
2.574546e+003,4.800562e-003
2.576474e+003,5.039776e-003
2.578403e+003,5.274046e-003
2.580331e+003,5.475316e-003
2.582260e+003,5.604884e-003
2.584188e+003,5.746495e-003
2.586116e+003,6.006333e-003
2.588045e+003,6.227205e-003
2.589974e+003,6.594073e-003
2.591902e+003,6.908402e-003
2.593831e+003,7.037904e-003
2.595759e+003,7.160559e-003
2.597688e+003,7.434279e-003
2.599616e+003,7.619182e-003
2.601544e+003,7.774302e-003
2.603473e+003,8.012116e-003
2.605402e+003,8.324474e-003
2.607330e+003,8.633168e-003
2.609259e+003,8.981515e-003
2.611187e+003,9.262044e-003
2.613115e+003,9.543215e-003
2.615044e+003,9.864712e-003
2.616972e+003,1.027675e-002
2.618901e+003,1.062742e-002
2.620830e+003,1.096002e-002
2.622758e+003,1.131858e-002
2.624687e+003,1.183830e-002
2.626615e+003,1.237765e-002
2.628543e+003,1.282248e-002
2.630472e+003,1.320691e-002
2.632400e+003,1.349540e-002
2.634329e+003,1.373431e-002
2.636258e+003,1.388310e-002
2.638186e+003,1.395745e-002
2.640115e+003,1.391440e-002
2.642043e+003,1.385400e-002
2.643971e+003,1.388595e-002
2.645900e+003,1.389431e-002
2.647828e+003,1.393558e-002
2.649757e+003,1.405143e-002
2.651686e+003,1.428002e-002
2.653614e+003,1.447409e-002
2.655542e+003,1.459631e-002
2.657471e+003,1.470597e-002
2.659399e+003,1.476568e-002
2.661328e+003,1.468370e-002
2.663256e+003,1.453786e-002
2.665185e+003,1.432634e-002
2.667114e+003,1.413062e-002
2.669042e+003,1.400701e-002
2.670970e+003,1.383500e-002
2.672899e+003,1.366005e-002
2.674827e+003,1.349728e-002
2.676756e+003,1.331040e-002
2.678685e+003,1.321516e-002
2.680613e+003,1.314945e-002
2.682542e+003,1.298676e-002
2.684470e+003,1.277253e-002
2.686398e+003,1.260881e-002
2.688327e+003,1.248330e-002
2.690255e+003,1.239707e-002
2.692184e+003,1.226977e-002
2.694113e+003,1.223190e-002
2.696041e+003,1.220286e-002
2.697969e+003,1.217902e-002
2.699898e+003,1.224303e-002
2.701826e+003,1.234038e-002
2.703755e+003,1.249508e-002
2.705683e+003,1.274058e-002
2.707612e+003,1.296178e-002
2.709541e+003,1.317993e-002
2.711469e+003,1.333818e-002
2.713397e+003,1.347536e-002
2.715326e+003,1.358632e-002
2.717254e+003,1.373173e-002
2.719183e+003,1.390556e-002
2.721111e+003,1.416655e-002
2.723040e+003,1.440988e-002
2.724969e+003,1.467919e-002
2.726897e+003,1.499425e-002
2.728825e+003,1.529556e-002
2.730754e+003,1.549419e-002
2.732682e+003,1.568372e-002
2.734611e+003,1.588146e-002
2.736539e+003,1.607488e-002
2.738468e+003,1.622579e-002
2.740396e+003,1.631365e-002
2.742325e+003,1.635432e-002
2.744253e+003,1.637087e-002
2.746182e+003,1.634645e-002
2.748110e+003,1.634220e-002
2.750039e+003,1.641560e-002
2.751967e+003,1.655514e-002
2.753896e+003,1.677398e-002
2.755824e+003,1.701175e-002
2.757753e+003,1.735262e-002
2.759681e+003,1.775642e-002
2.761610e+003,1.814960e-002
2.763538e+003,1.854763e-002
2.765467e+003,1.896195e-002
2.767395e+003,1.946488e-002
2.769324e+003,2.004884e-002
2.771252e+003,2.066277e-002
2.773181e+003,2.136072e-002
2.775109e+003,2.220050e-002
2.777038e+003,2.315414e-002
2.778966e+003,2.411558e-002
2.780895e+003,2.520281e-002
2.782823e+003,2.641246e-002
2.784752e+003,2.773023e-002
2.786680e+003,2.912609e-002
2.788609e+003,3.063789e-002
2.790537e+003,3.232713e-002
2.792466e+003,3.413345e-002
2.794394e+003,3.592887e-002
2.796323e+003,3.774942e-002
2.798251e+003,3.965798e-002
2.800180e+003,4.169884e-002
2.802108e+003,4.384079e-002
2.804037e+003,4.617444e-002
2.805965e+003,4.869765e-002
2.807894e+003,5.151080e-002
2.809822e+003,5.464258e-002
2.811751e+003,5.816976e-002
2.813679e+003,6.217811e-002
2.815608e+003,6.685825e-002
2.817536e+003,7.223250e-002
2.819465e+003,7.847563e-002
2.821393e+003,8.593573e-002
2.823322e+003,9.509551e-002
2.825250e+003,1.064765e-001
2.827179e+003,1.208744e-001
2.829107e+003,1.394543e-001
2.831036e+003,1.641444e-001
2.832964e+003,1.977452e-001
2.834893e+003,2.449887e-001
2.836821e+003,3.124015e-001
2.838750e+003,4.106242e-001
2.840678e+003,5.573509e-001
2.842607e+003,7.747434e-001
2.844535e+003,1.072837e+000
2.846464e+003,1.372695e+000
2.848392e+003,1.411712e+000
2.850321e+003,1.137196e+000
2.852249e+003,8.362578e-001
2.854178e+003,6.252252e-001
2.856106e+003,4.812059e-001
2.858035e+003,3.783548e-001
2.859963e+003,3.044624e-001
2.861892e+003,2.526857e-001
2.863820e+003,2.179374e-001
2.865749e+003,1.965874e-001
2.867677e+003,1.855541e-001
2.869606e+003,1.818569e-001
2.871534e+003,1.829192e-001
2.873463e+003,1.880950e-001
2.875391e+003,1.986988e-001
2.877320e+003,2.159225e-001
2.879248e+003,2.392459e-001
2.881177e+003,2.673479e-001
2.883105e+003,2.991347e-001
2.885034e+003,3.340565e-001
2.886962e+003,3.714460e-001
2.888891e+003,4.102922e-001
2.890819e+003,4.497353e-001
2.892748e+003,4.891707e-001
2.894676e+003,5.279790e-001
2.896605e+003,5.669094e-001
2.898533e+003,6.078876e-001
2.900462e+003,6.538085e-001
2.902390e+003,7.095153e-001
2.904319e+003,7.822874e-001
2.906247e+003,8.817103e-001
2.908176e+003,1.019192e+000
2.910104e+003,1.203760e+000
2.912033e+003,1.423420e+000
2.913961e+003,1.602197e+000
2.915890e+003,1.614736e+000
2.917818e+003,1.448297e+000
2.919747e+003,1.221731e+000
2.921675e+003,1.015414e+000
2.923604e+003,8.470299e-001
2.925532e+003,7.126177e-001
2.927461e+003,6.034817e-001
2.929389e+003,5.120023e-001
2.931318e+003,4.337948e-001
2.933246e+003,3.666435e-001
2.935175e+003,3.092235e-001
2.937103e+003,2.604025e-001
2.939032e+003,2.191738e-001
2.940960e+003,1.849278e-001
2.942889e+003,1.570443e-001
2.944817e+003,1.351785e-001
2.946746e+003,1.189608e-001
2.948674e+003,1.077531e-001
2.950603e+003,1.002871e-001
2.952531e+003,9.463827e-002
2.954460e+003,8.932696e-002
2.956388e+003,8.369023e-002
2.958317e+003,7.750479e-002
2.960245e+003,7.092964e-002
2.962174e+003,6.413306e-002
2.964102e+003,5.731542e-002
2.966031e+003,5.082808e-002
2.967959e+003,4.506224e-002
2.969888e+003,4.004658e-002
2.971816e+003,3.580588e-002
2.973745e+003,3.231521e-002
2.975673e+003,2.942625e-002
2.977602e+003,2.695017e-002
2.979530e+003,2.486781e-002
2.981459e+003,2.314079e-002
2.983387e+003,2.165966e-002
2.985316e+003,2.038062e-002
2.987244e+003,1.933121e-002
2.989173e+003,1.836015e-002
2.991101e+003,1.752720e-002
2.993030e+003,1.687810e-002
2.994958e+003,1.628170e-002
2.996887e+003,1.581494e-002
2.998815e+003,1.543212e-002
3.000744e+003,1.500686e-002
3.002672e+003,1.463518e-002
3.004601e+003,1.424531e-002
3.006529e+003,1.387599e-002
3.008458e+003,1.355813e-002
3.010386e+003,1.320316e-002
3.012315e+003,1.262724e-002
3.014243e+003,1.211275e-002
3.016172e+003,1.176332e-002
3.018100e+003,1.144111e-002
3.020029e+003,1.112018e-002
3.021957e+003,1.084701e-002
3.023886e+003,1.054511e-002
3.025814e+003,1.030404e-002
3.027743e+003,1.003302e-002
3.029671e+003,9.649153e-003
3.031600e+003,9.338223e-003
3.033528e+003,9.081298e-003
3.035457e+003,8.748959e-003
3.037385e+003,8.512605e-003
3.039314e+003,8.258461e-003
3.041242e+003,7.891413e-003
3.043171e+003,7.547439e-003
3.045099e+003,7.270424e-003
3.047028e+003,7.003724e-003
3.048956e+003,6.767355e-003
3.050885e+003,6.467295e-003
3.052813e+003,6.166507e-003
3.054742e+003,6.040911e-003
3.056670e+003,5.936639e-003
3.058599e+003,5.818931e-003
3.060527e+003,5.666369e-003
3.062456e+003,5.456256e-003
3.064384e+003,5.240163e-003
3.066313e+003,5.070174e-003
3.068241e+003,5.062395e-003
3.070170e+003,4.887777e-003
3.072098e+003,4.653692e-003
3.074027e+003,4.552829e-003
3.075955e+003,4.506845e-003
3.077884e+003,4.417795e-003
3.079812e+003,4.320811e-003
3.081741e+003,4.078389e-003
3.083669e+003,3.901744e-003
3.085598e+003,3.762418e-003
3.087526e+003,3.644689e-003
3.089455e+003,3.516085e-003
3.091383e+003,3.256305e-003
3.093312e+003,2.964745e-003
3.095240e+003,2.729394e-003
3.097169e+003,2.418118e-003
3.099097e+003,2.170016e-003
3.101026e+003,1.896814e-003
3.102954e+003,1.634085e-003
3.104883e+003,1.451950e-003
3.106811e+003,1.418711e-003
3.108740e+003,1.331407e-003
3.110668e+003,1.165783e-003
3.112597e+003,1.090781e-003
3.114525e+003,9.627263e-004
3.116454e+003,8.855336e-004
3.118382e+003,8.033612e-004
3.120311e+003,6.915489e-004
3.122239e+003,7.019960e-004
3.124168e+003,7.309932e-004
3.126096e+003,7.039555e-004
3.128025e+003,5.894010e-004
3.129953e+003,4.911926e-004
3.131882e+003,5.343114e-004
3.133810e+003,5.105259e-004
3.135739e+003,4.442735e-004
3.137667e+003,4.232200e-004
3.139596e+003,3.461577e-004
3.141524e+003,2.844972e-004
3.143453e+003,2.561780e-004
3.145381e+003,3.157705e-004
3.147310e+003,4.041800e-004
3.149238e+003,4.157587e-004
3.151167e+003,4.279790e-004
3.153095e+003,4.059495e-004
3.155024e+003,3.496120e-004
3.156952e+003,2.788939e-004
3.158881e+003,2.551479e-004
3.160809e+003,2.788822e-004
3.162738e+003,2.275906e-004
3.164666e+003,2.005976e-004
3.166594e+003,1.890864e-004
3.168523e+003,1.788242e-004
3.170452e+003,2.251794e-004
3.172380e+003,3.043702e-004
3.174309e+003,2.346942e-004
3.176237e+003,2.242113e-004
3.178166e+003,3.267368e-004
3.180094e+003,3.480930e-004
3.182022e+003,3.754124e-004
3.183951e+003,3.567012e-004
3.185880e+003,3.559114e-004
3.187808e+003,3.612842e-004
3.189737e+003,2.766056e-004
3.191665e+003,2.600141e-004
3.193594e+003,2.721390e-004
3.195522e+003,1.289947e-004
3.197450e+003,1.216559e-004
3.199379e+003,2.084598e-004
3.201308e+003,2.205754e-004
3.203236e+003,3.098948e-004
3.205165e+003,2.697315e-004
3.207093e+003,1.830207e-004
3.209021e+003,1.101112e-004
3.210950e+003,1.808358e-004
3.212878e+003,3.387155e-004
3.214807e+003,3.004717e-004
3.216736e+003,2.284050e-004
3.218664e+003,2.520559e-004
3.220593e+003,2.418095e-004
3.222521e+003,3.447691e-004
3.224449e+003,3.547696e-004
3.226378e+003,2.142107e-004
3.228307e+003,1.425762e-004
3.230235e+003,1.570918e-004
3.232164e+003,1.456616e-004
3.234092e+003,1.214938e-004
3.236021e+003,1.619048e-004
3.237949e+003,2.816925e-004
3.239877e+003,3.155516e-004
3.241806e+003,3.103307e-004
3.243735e+003,3.331043e-004
3.245663e+003,2.547409e-004
3.247592e+003,1.907898e-004
3.249520e+003,2.360558e-004
3.251448e+003,3.190944e-004
3.253377e+003,3.747949e-004
3.255305e+003,3.899718e-004
3.257234e+003,5.394993e-004
3.259163e+003,6.460743e-004
3.261091e+003,6.270725e-004
3.263020e+003,5.564755e-004
3.264948e+003,5.131168e-004
3.266876e+003,4.870258e-004
3.268805e+003,5.002460e-004
3.270733e+003,5.135881e-004
3.272662e+003,5.615363e-004
3.274591e+003,5.356167e-004
3.276519e+003,5.895318e-004
3.278448e+003,6.752126e-004
3.280376e+003,6.914213e-004
3.282304e+003,7.327152e-004
3.284233e+003,6.830404e-004
3.286161e+003,6.066775e-004
3.288090e+003,6.513800e-004
3.290019e+003,6.709043e-004
3.291947e+003,6.733192e-004
3.293875e+003,6.288337e-004
3.295804e+003,5.938560e-004
3.297732e+003,6.492287e-004
3.299661e+003,7.232651e-004
3.301589e+003,7.250458e-004
3.303518e+003,7.242942e-004
3.305447e+003,7.988308e-004
3.307375e+003,8.532694e-004
3.309303e+003,8.470658e-004
3.311232e+003,8.303579e-004
3.313160e+003,7.211389e-004
3.315089e+003,7.497752e-004
3.317018e+003,6.694747e-004
3.318946e+003,6.435383e-004
3.320875e+003,7.586703e-004
3.322803e+003,8.003535e-004
3.324731e+003,8.515082e-004
3.326660e+003,8.208342e-004
3.328588e+003,8.104388e-004
3.330517e+003,7.368214e-004
3.332446e+003,7.469216e-004
3.334374e+003,8.161971e-004
3.336302e+003,7.641464e-004
3.338231e+003,7.877443e-004
3.340159e+003,9.134263e-004
3.342088e+003,9.841863e-004
3.344016e+003,9.030923e-004
3.345945e+003,8.167699e-004
3.347874e+003,7.888647e-004
3.349802e+003,8.375756e-004
3.351730e+003,7.583285e-004
3.353659e+003,7.373802e-004
3.355587e+003,8.941526e-004
3.357516e+003,9.543421e-004
3.359444e+003,8.535562e-004
3.361373e+003,9.257840e-004
3.363302e+003,9.424454e-004
3.365230e+003,8.378793e-004
3.367158e+003,8.231625e-004
3.369087e+003,7.929225e-004
3.371015e+003,7.416140e-004
3.372944e+003,7.259091e-004
3.374872e+003,7.486865e-004
3.376801e+003,7.673185e-004
3.378729e+003,7.357048e-004
3.380658e+003,6.625550e-004
3.382586e+003,6.387383e-004
3.384515e+003,6.354377e-004
3.386443e+003,6.584497e-004
3.388372e+003,6.506322e-004
3.390300e+003,6.620279e-004
3.392229e+003,6.486531e-004
3.394157e+003,5.748058e-004
3.396086e+003,5.879831e-004
3.398014e+003,5.013198e-004
3.399943e+003,4.115002e-004
3.401871e+003,3.896533e-004
3.403800e+003,4.302152e-004
3.405728e+003,5.055815e-004
3.407657e+003,4.202081e-004
3.409585e+003,2.822094e-004
3.411514e+003,2.896814e-004
3.413442e+003,2.466189e-004
3.415371e+003,2.630716e-004
3.417299e+003,2.900297e-004
3.419228e+003,2.605701e-004
3.421156e+003,2.172701e-004
3.423085e+003,2.230071e-004
3.425013e+003,2.333159e-004
3.426942e+003,1.684362e-004
3.428870e+003,1.760907e-004
3.430799e+003,2.114428e-004
3.432727e+003,1.858138e-004
3.434656e+003,1.217844e-004
3.436584e+003,3.075600e-005
3.438513e+003,5.577132e-005
3.440441e+003,1.190193e-004
3.442370e+003,1.155268e-004
3.444298e+003,9.813253e-005
3.446227e+003,1.649568e-004
3.448155e+003,1.227260e-004
3.450084e+003,6.917305e-005
3.452012e+003,-3.509130e-005
3.453941e+003,-6.771646e-005
3.455869e+003,-5.728379e-005
3.457798e+003,-4.049484e-005
3.459726e+003,6.073155e-006
3.461655e+003,-1.665102e-004
3.463583e+003,-1.901835e-004
3.465512e+003,-5.522929e-005
3.467440e+003,-1.088195e-004
3.469369e+003,-2.238983e-004
3.471297e+003,-3.172215e-004
3.473226e+003,-2.927650e-004
3.475154e+003,-3.052438e-004
3.477083e+003,-3.355909e-004
3.479011e+003,-3.411509e-004
3.480940e+003,-3.102766e-004
3.482868e+003,-3.799330e-004
3.484797e+003,-4.004035e-004
3.486725e+003,-4.340345e-004
3.488654e+003,-5.488852e-004
3.490582e+003,-5.729767e-004
3.492511e+003,-4.683239e-004
3.494439e+003,-5.507693e-004
3.496368e+003,-5.984530e-004
3.498296e+003,-5.311985e-004
3.500225e+003,-4.769387e-004
3.502153e+003,-4.400164e-004
3.504082e+003,-6.544562e-004
3.506010e+003,-8.174516e-004
3.507939e+003,-7.892055e-004
3.509867e+003,-7.399861e-004
3.511796e+003,-6.226925e-004
3.513724e+003,-6.113946e-004
3.515653e+003,-7.772911e-004
3.517581e+003,-8.168425e-004
3.519510e+003,-7.793587e-004
3.521438e+003,-6.466275e-004
3.523367e+003,-6.325012e-004
3.525295e+003,-8.289553e-004
3.527224e+003,-8.887565e-004
3.529152e+003,-1.132474e-003
3.531081e+003,-1.281110e-003
3.533009e+003,-1.251056e-003
3.534938e+003,-1.141450e-003
3.536866e+003,-1.149127e-003
3.538795e+003,-1.182405e-003
3.540723e+003,-9.865435e-004
3.542652e+003,-7.636314e-004
3.544580e+003,-7.492630e-004
3.546509e+003,-1.017555e-003
3.548437e+003,-1.390986e-003
3.550366e+003,-1.381326e-003
3.552294e+003,-1.267949e-003
3.554223e+003,-1.428305e-003
3.556151e+003,-1.514876e-003
3.558080e+003,-1.392388e-003
3.560008e+003,-1.265487e-003
3.561937e+003,-1.230563e-003
3.563865e+003,-1.201778e-003
3.565794e+003,-1.344217e-003
3.567722e+003,-1.573231e-003
3.569651e+003,-1.698988e-003
3.571579e+003,-1.739669e-003
3.573508e+003,-1.634893e-003
3.575436e+003,-1.411081e-003
3.577365e+003,-1.283096e-003
3.579293e+003,-1.209248e-003
3.581222e+003,-1.282020e-003
3.583150e+003,-1.211436e-003
3.585079e+003,-1.091536e-003
3.587007e+003,-1.133642e-003
3.588936e+003,-1.215989e-003
3.590864e+003,-1.037005e-003
3.592793e+003,-7.299958e-004
3.594721e+003,-4.251096e-004
3.596650e+003,-1.107184e-004
3.598578e+003,4.508197e-004
3.600507e+003,8.828873e-004
3.602435e+003,9.642523e-004
3.604364e+003,1.088303e-003
3.606292e+003,1.101492e-003
3.608221e+003,9.046309e-004
3.610149e+003,7.278249e-004
3.612078e+003,3.465423e-004
3.614006e+003,-1.768386e-004
3.615935e+003,-2.883067e-004
3.617863e+003,-4.872466e-004
3.619792e+003,-6.522173e-004
3.621720e+003,-5.471837e-004
3.623649e+003,-5.805250e-004
3.625577e+003,-4.584072e-004
3.627506e+003,-2.225358e-004
3.629434e+003,-7.877564e-004
3.631363e+003,-9.152563e-004
3.633291e+003,-8.562095e-004
3.635220e+003,-7.996419e-004
3.637148e+003,-6.561708e-004
3.639077e+003,-5.048858e-004
3.641005e+003,-1.288569e-004
3.642934e+003,-3.262423e-005
3.644862e+003,1.160083e-004
3.646791e+003,2.954779e-004
3.648719e+003,-3.491323e-004
3.650648e+003,-1.015595e-003
3.652576e+003,-1.038870e-003
3.654505e+003,-9.650569e-004
3.656433e+003,-1.159986e-003
3.658362e+003,-1.272897e-003
3.660290e+003,-1.065475e-003
3.662219e+003,-8.913893e-004
3.664147e+003,-9.328881e-004
3.666076e+003,-8.197846e-004
3.668004e+003,-5.197460e-004
3.669933e+003,-1.003805e-003
3.671861e+003,-1.319189e-003
3.673790e+003,-1.361018e-003
3.675718e+003,-2.099357e-003
3.677647e+003,-1.478896e-003
3.679575e+003,-1.189176e-003
3.681504e+003,-1.316830e-003
3.683432e+003,-1.191760e-003
3.685361e+003,-9.974837e-004
3.687289e+003,-1.129559e-003
3.689218e+003,-1.428793e-003
3.691146e+003,-1.121018e-003
3.693075e+003,-9.872504e-004
3.695003e+003,-1.161619e-003
3.696932e+003,-1.335413e-003
3.698860e+003,-1.018042e-003
3.700789e+003,-5.983142e-004
3.702717e+003,-8.196970e-004
3.704646e+003,-1.028311e-003
3.706574e+003,-9.822585e-004
3.708503e+003,-1.024583e-003
3.710431e+003,-1.186103e-003
3.712360e+003,-1.082010e-003
3.714288e+003,-9.750780e-004
3.716217e+003,-8.754628e-004
3.718145e+003,-1.072230e-003
3.720074e+003,-1.255408e-003
3.722002e+003,-1.028583e-003
3.723931e+003,-8.839620e-004
3.725859e+003,-6.535472e-004
3.727788e+003,-8.378131e-004
3.729716e+003,-9.213733e-004
3.731645e+003,-1.065004e-003
3.733573e+003,-1.170923e-003
3.735502e+003,-1.077888e-003
3.737430e+003,-1.175201e-003
3.739359e+003,-1.281837e-003
3.741287e+003,-1.056846e-003
3.743216e+003,-9.686742e-004
3.745144e+003,-1.175428e-003
3.747073e+003,-8.090390e-004
3.749001e+003,-7.564807e-004
3.750930e+003,-8.657724e-004
3.752858e+003,-1.232741e-003
3.754787e+003,-1.119231e-003
3.756715e+003,-7.883199e-004
3.758644e+003,-7.595671e-004
3.760572e+003,-7.616449e-004
3.762501e+003,-5.216012e-004
3.764429e+003,-4.721927e-004
3.766358e+003,-5.865898e-004
3.768286e+003,-5.012117e-004
3.770215e+003,-6.725974e-004
3.772143e+003,-6.742664e-004
3.774072e+003,-4.863115e-004
3.776000e+003,-2.755905e-004
3.777929e+003,-1.019454e-004
3.779857e+003,-1.927633e-004
3.781786e+003,-2.745865e-004
3.783714e+003,-3.293445e-004
3.785643e+003,-4.783897e-004
3.787571e+003,-4.624082e-004
3.789500e+003,-5.948516e-004
3.791428e+003,-5.538724e-004
3.793357e+003,-8.714292e-005
3.795285e+003,1.890128e-004
3.797214e+003,3.553368e-005
3.799142e+003,2.874527e-005
3.801071e+003,-2.930388e-004
3.802999e+003,-6.732037e-004
3.804927e+003,-4.429631e-004
3.806856e+003,-3.561359e-004
3.808785e+003,-1.348611e-004
3.810713e+003,1.648981e-004
3.812642e+003,3.673881e-004
3.814570e+003,5.191592e-004
3.816499e+003,3.129030e-004
3.818427e+003,4.663225e-004
3.820355e+003,1.426283e-004
3.822284e+003,-6.401399e-004
3.824213e+003,-1.406912e-004
3.826141e+003,1.997491e-004
3.828070e+003,1.854273e-004
3.829998e+003,5.499721e-004
3.831927e+003,6.992100e-004
3.833855e+003,5.928092e-004
3.835783e+003,3.536204e-004
3.837712e+003,-8.434337e-005
3.839641e+003,-4.529022e-006
3.841569e+003,2.115639e-004
3.843498e+003,3.693840e-004
3.845426e+003,5.719326e-004
3.847354e+003,6.210469e-004
3.849283e+003,6.738082e-004
3.851211e+003,1.026967e-003
3.853140e+003,5.303770e-004
3.855069e+003,2.370337e-004
3.856997e+003,3.232984e-004
3.858926e+003,1.278799e-004
3.860854e+003,2.988623e-004
3.862782e+003,5.955389e-004
3.864711e+003,5.694991e-004
3.866640e+003,6.706221e-004
3.868568e+003,7.098345e-004
3.870497e+003,3.123470e-004
3.872425e+003,5.621798e-004
3.874354e+003,4.075803e-004
3.876282e+003,3.640177e-004
3.878210e+003,7.858761e-004
3.880139e+003,9.765066e-004
3.882068e+003,8.427631e-004
3.883996e+003,9.512268e-004
3.885925e+003,5.523171e-004
3.887853e+003,3.038151e-004
3.889781e+003,6.277682e-004
3.891710e+003,8.093733e-004
3.893638e+003,7.236544e-004
3.895567e+003,9.401087e-004
3.897496e+003,1.242226e-003
3.899424e+003,1.150702e-003
3.901353e+003,9.957505e-004
3.903281e+003,8.662092e-004
3.905209e+003,4.432201e-004
3.907138e+003,5.004182e-004
3.909066e+003,6.451458e-004
3.910995e+003,7.181792e-004
3.912924e+003,9.459145e-004
3.914852e+003,1.235121e-003
3.916781e+003,1.139499e-003
3.918709e+003,8.688904e-004
3.920637e+003,7.989407e-004
3.922566e+003,8.895621e-004
3.924494e+003,8.228244e-004
3.926423e+003,6.486075e-004
3.928352e+003,7.823175e-004
3.930280e+003,8.406723e-004
3.932208e+003,7.031057e-004
3.934137e+003,5.660709e-004
3.936065e+003,5.470915e-004
3.937994e+003,5.019167e-004
3.939922e+003,4.459051e-004
3.941851e+003,4.194621e-004
3.943780e+003,3.424129e-004
3.945708e+003,4.713871e-004
3.947636e+003,6.057722e-004
3.949565e+003,5.143108e-004
3.951493e+003,4.562810e-004
3.953422e+003,4.115310e-004
3.955351e+003,4.944867e-004
3.957279e+003,5.923277e-004
3.959208e+003,6.984677e-004
3.961136e+003,6.569149e-004
3.963064e+003,6.084321e-004
3.964993e+003,5.936753e-004
3.966921e+003,5.661836e-004
3.968850e+003,6.048167e-004
3.970779e+003,6.064782e-004
3.972707e+003,5.671345e-004
3.974635e+003,6.965045e-004
3.976564e+003,7.067109e-004
3.978492e+003,6.459542e-004
3.980421e+003,7.669097e-004
3.982349e+003,7.674508e-004
3.984278e+003,6.737486e-004
3.986207e+003,6.476082e-004
3.988135e+003,5.974583e-004
3.990063e+003,5.692504e-004
3.991992e+003,5.730195e-004
3.993920e+003,6.264215e-004
3.995849e+003,6.007208e-004
3.997777e+003,5.023414e-004
3.999706e+003,5.227774e-004
4.001635e+003,0.000000e+000
