3.991992e+002,0.000000e+000
4.011277e+002,0.000000e+000
4.030562e+002,0.000000e+000
4.049846e+002,0.000000e+000
4.069131e+002,0.000000e+000
4.088416e+002,0.000000e+000
4.107701e+002,0.000000e+000
4.126986e+002,0.000000e+000
4.146271e+002,0.000000e+000
4.165556e+002,0.000000e+000
4.184841e+002,0.000000e+000
4.204126e+002,0.000000e+000
4.223411e+002,0.000000e+000
4.242697e+002,0.000000e+000
4.261982e+002,0.000000e+000
4.281266e+002,0.000000e+000
4.300551e+002,0.000000e+000
4.319836e+002,0.000000e+000
4.339121e+002,0.000000e+000
4.358406e+002,0.000000e+000
4.377691e+002,0.000000e+000
4.396976e+002,0.000000e+000
4.416261e+002,0.000000e+000
4.435546e+002,0.000000e+000
4.454831e+002,0.000000e+000
4.474116e+002,0.000000e+000
4.493401e+002,0.000000e+000
4.512686e+002,0.000000e+000
4.531971e+002,0.000000e+000
4.551256e+002,0.000000e+000
4.570541e+002,0.000000e+000
4.589826e+002,0.000000e+000
4.609111e+002,0.000000e+000
4.628396e+002,0.000000e+000
4.647681e+002,0.000000e+000
4.666966e+002,0.000000e+000
4.686251e+002,0.000000e+000
4.705536e+002,0.000000e+000
4.724821e+002,0.000000e+000
4.744106e+002,0.000000e+000
4.763391e+002,0.000000e+000
4.782676e+002,0.000000e+000
4.801961e+002,0.000000e+000
4.821246e+002,0.000000e+000
4.840531e+002,0.000000e+000
4.859816e+002,0.000000e+000
4.879101e+002,0.000000e+000
4.898386e+002,0.000000e+000
4.917671e+002,0.000000e+000
4.936956e+002,0.000000e+000
4.956241e+002,0.000000e+000
4.975526e+002,0.000000e+000
4.994811e+002,0.000000e+000
5.014096e+002,0.000000e+000
5.033381e+002,0.000000e+000
5.052666e+002,0.000000e+000
5.071951e+002,0.000000e+000
5.091236e+002,0.000000e+000
5.110521e+002,0.000000e+000
5.129806e+002,0.000000e+000
5.149091e+002,0.000000e+000
5.168376e+002,0.000000e+000
5.187661e+002,0.000000e+000
5.206946e+002,0.000000e+000
5.226230e+002,0.000000e+000
5.245516e+002,5.109236e-006
5.264800e+002,8.744653e-006
5.284086e+002,8.947356e-005
5.303370e+002,1.227357e-004
5.322656e+002,3.363891e-005
5.341940e+002,-8.731522e-005
5.361226e+002,-6.465847e-005
5.380510e+002,-4.483759e-005
5.399796e+002,4.804228e-005
5.419081e+002,1.745443e-004
5.438365e+002,1.214077e-004
5.457650e+002,4.860619e-005
5.476935e+002,8.268654e-005
5.496221e+002,2.975110e-005
5.515505e+002,2.114950e-004
5.534790e+002,3.327345e-004
5.554075e+002,2.548504e-004
5.573361e+002,6.830739e-005
5.592645e+002,-7.538777e-005
5.611931e+002,-1.463154e-004
5.631215e+002,-3.934000e-005
5.650500e+002,-3.996957e-005
5.669785e+002,-3.711646e-005
5.689070e+002,-1.156819e-004
5.708355e+002,-8.152844e-005
5.727640e+002,-1.774216e-005
5.746925e+002,-9.290315e-005
5.766210e+002,-9.100419e-005
5.785495e+002,7.895846e-005
5.804780e+002,1.082062e-004
5.824065e+002,-9.059114e-005
5.843350e+002,-1.415615e-004
5.862635e+002,-2.649752e-005
5.881920e+002,-7.577613e-005
5.901205e+002,-2.820743e-005
5.920490e+002,-4.336191e-005
5.939775e+002,-4.480360e-005
5.959060e+002,-7.685274e-005
5.978345e+002,-9.276671e-005
5.997630e+002,-1.618876e-004
6.016915e+002,-1.875642e-004
6.036200e+002,-6.368803e-005
6.055485e+002,1.899628e-004
6.074770e+002,1.573744e-004
6.094055e+002,3.886968e-005
6.113340e+002,-5.172798e-005
6.132625e+002,-1.004753e-004
6.151910e+002,-2.113087e-004
6.171195e+002,-1.758663e-004
6.190480e+002,-8.466281e-005
6.209765e+002,-3.210781e-005
6.229050e+002,2.050214e-005
6.248335e+002,1.742984e-004
6.267620e+002,2.310090e-004
6.286905e+002,2.960195e-004
6.306190e+002,2.901312e-004
6.325475e+002,2.363850e-004
6.344760e+002,3.001182e-004
6.364045e+002,4.266682e-004
6.383330e+002,4.793382e-004
6.402615e+002,5.743634e-004
6.421899e+002,5.991585e-004
6.441185e+002,6.622327e-004
6.460470e+002,5.322807e-004
6.479755e+002,3.813514e-004
6.499039e+002,3.660228e-004
6.518325e+002,4.665791e-004
6.537610e+002,5.058399e-004
6.556895e+002,5.768682e-004
6.576179e+002,6.323941e-004
6.595464e+002,8.169683e-004
6.614750e+002,8.198316e-004
6.634034e+002,8.137831e-004
6.653319e+002,8.116201e-004
6.672604e+002,8.062790e-004
6.691890e+002,7.879045e-004
6.711174e+002,9.578867e-004
6.730460e+002,1.053696e-003
6.749745e+002,1.190688e-003
6.769030e+002,1.217826e-003
6.788314e+002,1.284442e-003
6.807599e+002,1.339092e-003
6.826885e+002,1.583152e-003
6.846169e+002,1.682012e-003
6.865454e+002,1.848158e-003
6.884739e+002,2.079677e-003
6.904025e+002,2.442320e-003
6.923309e+002,2.744259e-003
6.942594e+002,3.156710e-003
6.961879e+002,3.633278e-003
6.981165e+002,4.347129e-003
7.000449e+002,5.235799e-003
7.019734e+002,6.593328e-003
7.039019e+002,8.223979e-003
7.058304e+002,1.049738e-002
7.077589e+002,1.359322e-002
7.096874e+002,1.836756e-002
7.116159e+002,2.590893e-002
7.135444e+002,3.995930e-002
7.154729e+002,6.517337e-002
7.174014e+002,1.000789e-001
7.193299e+002,1.142654e-001
7.212584e+002,8.506882e-002
7.231869e+002,5.634487e-002
7.251154e+002,4.595250e-002
7.270439e+002,5.001433e-002
7.289724e+002,6.579184e-002
7.309009e+002,6.362439e-002
7.328294e+002,3.654965e-002
7.347579e+002,1.828796e-002
7.366864e+002,1.181448e-002
7.386149e+002,9.197041e-003
7.405434e+002,7.694305e-003
7.424719e+002,6.819564e-003
7.444004e+002,6.054618e-003
7.463289e+002,5.419099e-003
7.482574e+002,4.898219e-003
7.501859e+002,4.643032e-003
7.521144e+002,4.363024e-003
7.540428e+002,4.141676e-003
7.559714e+002,3.834575e-003
7.578999e+002,3.536932e-003
7.598284e+002,3.371439e-003
7.617568e+002,3.282223e-003
7.636854e+002,3.028560e-003
7.656139e+002,2.853435e-003
7.675424e+002,2.749428e-003
7.694709e+002,2.664629e-003
7.713994e+002,2.509487e-003
7.733279e+002,2.402965e-003
7.752563e+002,2.334320e-003
7.771849e+002,2.295537e-003
7.791134e+002,2.263091e-003
7.810419e+002,2.256109e-003
7.829703e+002,2.211012e-003
7.848989e+002,2.241986e-003
7.868274e+002,2.233025e-003
7.887559e+002,2.230381e-003
7.906843e+002,2.290071e-003
7.926129e+002,2.253973e-003
7.945414e+002,2.205636e-003
7.964698e+002,2.264017e-003
7.983983e+002,2.315929e-003
8.003268e+002,2.336189e-003
8.022554e+002,2.274881e-003
8.041838e+002,2.205902e-003
8.061123e+002,2.179803e-003
8.080408e+002,2.106449e-003
8.099694e+002,2.058115e-003
8.118978e+002,2.071892e-003
8.138263e+002,1.950680e-003
8.157548e+002,1.776879e-003
8.176833e+002,1.763030e-003
8.196118e+002,1.785197e-003
8.215403e+002,1.681108e-003
8.234689e+002,1.500692e-003
8.253973e+002,1.411233e-003
8.273258e+002,1.370841e-003
8.292543e+002,1.311857e-003
8.311829e+002,1.260386e-003
8.331113e+002,1.265126e-003
8.350398e+002,1.210378e-003
8.369683e+002,1.174250e-003
8.388969e+002,1.210353e-003
8.408253e+002,1.269059e-003
8.427538e+002,1.316451e-003
8.446823e+002,1.327716e-003
8.466108e+002,1.278205e-003
8.485393e+002,1.297728e-003
8.504678e+002,1.283873e-003
8.523963e+002,1.320812e-003
8.543248e+002,1.330454e-003
8.562533e+002,1.283173e-003
8.581818e+002,1.280136e-003
8.601103e+002,1.296739e-003
8.620388e+002,1.301358e-003
8.639673e+002,1.341389e-003
8.658958e+002,1.362693e-003
8.678243e+002,1.354012e-003
8.697528e+002,1.402508e-003
8.716813e+002,1.490707e-003
8.736098e+002,1.456296e-003
8.755383e+002,1.400475e-003
8.774668e+002,1.471178e-003
8.793953e+002,1.623336e-003
8.813238e+002,1.663125e-003
8.832523e+002,1.670030e-003
8.851808e+002,1.666194e-003
8.871093e+002,1.814677e-003
8.890378e+002,1.928345e-003
8.909663e+002,1.853226e-003
8.928948e+002,1.655859e-003
8.948232e+002,1.589189e-003
8.967518e+002,1.552839e-003
8.986803e+002,1.565464e-003
9.006088e+002,1.679759e-003
9.025372e+002,1.874500e-003
9.044658e+002,2.148408e-003
9.063943e+002,2.541947e-003
9.083228e+002,2.665871e-003
9.102512e+002,2.366093e-003
9.121797e+002,2.061035e-003
9.141083e+002,1.923561e-003
9.160367e+002,1.685587e-003
9.179653e+002,1.650590e-003
9.198937e+002,1.592956e-003
9.218223e+002,1.498209e-003
9.237507e+002,1.369753e-003
9.256793e+002,1.405194e-003
9.276077e+002,1.368362e-003
9.295363e+002,1.340744e-003
9.314647e+002,1.482631e-003
9.333932e+002,1.528239e-003
9.353217e+002,1.437888e-003
9.372502e+002,1.423134e-003
9.391787e+002,1.387923e-003
9.411072e+002,1.416111e-003
9.430358e+002,1.418681e-003
9.449642e+002,1.414550e-003
9.468928e+002,1.423768e-003
9.488212e+002,1.474816e-003
9.507498e+002,1.467708e-003
9.526782e+002,1.529072e-003
9.546068e+002,1.588288e-003
9.565352e+002,1.636521e-003
9.584637e+002,1.676676e-003
9.603922e+002,1.749948e-003
9.623207e+002,1.772885e-003
9.642492e+002,1.835662e-003
9.661777e+002,1.879503e-003
9.681062e+002,1.906727e-003
9.700347e+002,1.860775e-003
9.719632e+002,1.894265e-003
9.738917e+002,1.907909e-003
9.758202e+002,1.917524e-003
9.777487e+002,1.868168e-003
9.796772e+002,1.917219e-003
9.816057e+002,1.988751e-003
9.835342e+002,2.079466e-003
9.854627e+002,2.171248e-003
9.873912e+002,2.328630e-003
9.893197e+002,2.452362e-003
9.912482e+002,2.518155e-003
9.931767e+002,2.516276e-003
9.951052e+002,2.528266e-003
9.970337e+002,2.532146e-003
9.989622e+002,2.571600e-003
1.000891e+003,2.620018e-003
1.002819e+003,2.761979e-003
1.004748e+003,2.854235e-003
1.006676e+003,2.970410e-003
1.008605e+003,3.106119e-003
1.010533e+003,3.350998e-003
1.012462e+003,3.531234e-003
1.014390e+003,3.706876e-003
1.016319e+003,3.861621e-003
1.018247e+003,3.996501e-003
1.020176e+003,3.993303e-003
1.022104e+003,3.948755e-003
1.024033e+003,3.923252e-003
1.025961e+003,3.982670e-003
1.027890e+003,3.990188e-003
1.029818e+003,4.037732e-003
1.031747e+003,4.074616e-003
1.033675e+003,4.073053e-003
1.035604e+003,4.040563e-003
1.037532e+003,4.143819e-003
1.039461e+003,4.215940e-003
1.041389e+003,4.305069e-003
1.043318e+003,4.371002e-003
1.045246e+003,4.467024e-003
1.047175e+003,4.509402e-003
1.049103e+003,4.680855e-003
1.051032e+003,4.765865e-003
1.052960e+003,4.676747e-003
1.054889e+003,4.600029e-003
1.056817e+003,4.649166e-003
1.058746e+003,4.693658e-003
1.060674e+003,4.807187e-003
1.062603e+003,4.847666e-003
1.064531e+003,4.896545e-003
1.066460e+003,4.853842e-003
1.068388e+003,4.903200e-003
1.070317e+003,5.006917e-003
1.072245e+003,5.185133e-003
1.074174e+003,5.298423e-003
1.076102e+003,5.514286e-003
1.078031e+003,5.649421e-003
1.079959e+003,5.706162e-003
1.081888e+003,5.663804e-003
1.083816e+003,5.614752e-003
1.085745e+003,5.544739e-003
1.087673e+003,5.509423e-003
1.089602e+003,5.411222e-003
1.091530e+003,5.405326e-003
1.093459e+003,5.358278e-003
1.095387e+003,5.317871e-003
1.097316e+003,5.254308e-003
1.099244e+003,5.257276e-003
1.101173e+003,5.170731e-003
1.103101e+003,5.121412e-003
1.105030e+003,5.070706e-003
1.106958e+003,5.037668e-003
1.108887e+003,4.888332e-003
1.110815e+003,4.768600e-003
1.112744e+003,4.676975e-003
1.114672e+003,4.632586e-003
1.116601e+003,4.521396e-003
1.118529e+003,4.453222e-003
1.120458e+003,4.359570e-003
1.122386e+003,4.330682e-003
1.124315e+003,4.272073e-003
1.126243e+003,4.254418e-003
1.128172e+003,4.234732e-003
1.130100e+003,4.318037e-003
1.132029e+003,4.361994e-003
1.133957e+003,4.412676e-003
1.135885e+003,4.370228e-003
1.137814e+003,4.342617e-003
1.139743e+003,4.332289e-003
1.141671e+003,4.398583e-003
1.143600e+003,4.424475e-003
1.145528e+003,4.583536e-003
1.147457e+003,4.802098e-003
1.149385e+003,5.137090e-003
1.151314e+003,5.470137e-003
1.153242e+003,5.837766e-003
1.155171e+003,6.081618e-003
1.157099e+003,6.325028e-003
1.159028e+003,6.507948e-003
1.160956e+003,6.628182e-003
1.162885e+003,6.593566e-003
1.164813e+003,6.555825e-003
1.166742e+003,6.395871e-003
1.168670e+003,6.196452e-003
1.170599e+003,5.929201e-003
1.172527e+003,5.704918e-003
1.174456e+003,5.463297e-003
1.176384e+003,5.355015e-003
1.178313e+003,5.122334e-003
1.180241e+003,4.887793e-003
1.182170e+003,4.752738e-003
1.184098e+003,4.724281e-003
1.186027e+003,4.624132e-003
1.187955e+003,4.634655e-003
1.189884e+003,4.685814e-003
1.191812e+003,4.814383e-003
1.193740e+003,4.914872e-003
1.195669e+003,5.010792e-003
1.197598e+003,5.084954e-003
1.199526e+003,5.267808e-003
1.201455e+003,5.416243e-003
1.203383e+003,5.638037e-003
1.205312e+003,5.877808e-003
1.207240e+003,6.148344e-003
1.209168e+003,6.383813e-003
1.211097e+003,6.651854e-003
1.213026e+003,6.844273e-003
1.214954e+003,7.089897e-003
1.216883e+003,7.318662e-003
1.218811e+003,7.563362e-003
1.220740e+003,7.720374e-003
1.222668e+003,7.963476e-003
1.224596e+003,8.175012e-003
1.226525e+003,8.357439e-003
1.228453e+003,8.487126e-003
1.230382e+003,8.720909e-003
1.232311e+003,8.874329e-003
1.234239e+003,9.007397e-003
1.236167e+003,9.103945e-003
1.238096e+003,9.233839e-003
1.240025e+003,9.259448e-003
1.241953e+003,9.255778e-003
1.243882e+003,9.154869e-003
1.245810e+003,9.027522e-003
1.247739e+003,8.794226e-003
1.249667e+003,8.637361e-003
1.251595e+003,8.447904e-003
1.253524e+003,8.309907e-003
1.255453e+003,8.175611e-003
1.257381e+003,8.141426e-003
1.259310e+003,8.053631e-003
1.261238e+003,7.977819e-003
1.263167e+003,7.757466e-003
1.265095e+003,7.520659e-003
1.267023e+003,7.243556e-003
1.268952e+003,7.082568e-003
1.270880e+003,6.956475e-003
1.272809e+003,6.925237e-003
1.274738e+003,6.845944e-003
1.276666e+003,6.873923e-003
1.278594e+003,6.850468e-003
1.280523e+003,6.930524e-003
1.282451e+003,7.024223e-003
1.284380e+003,7.224128e-003
1.286308e+003,7.442726e-003
1.288237e+003,7.747896e-003
1.290166e+003,7.952005e-003
1.292094e+003,8.327639e-003
1.294022e+003,8.716710e-003
1.295951e+003,9.169845e-003
1.297879e+003,9.478219e-003
1.299808e+003,9.739324e-003
1.301736e+003,9.812815e-003
1.303665e+003,9.854494e-003
1.305594e+003,9.774430e-003
1.307522e+003,9.720707e-003
1.309450e+003,9.446219e-003
1.311379e+003,9.156542e-003
1.313307e+003,8.718854e-003
1.315236e+003,8.319750e-003
1.317164e+003,7.877506e-003
1.319093e+003,7.474948e-003
1.321021e+003,6.927146e-003
1.322950e+003,6.597189e-003
1.324878e+003,6.329060e-003
1.326807e+003,6.216254e-003
1.328735e+003,6.128255e-003
1.330664e+003,6.242229e-003
1.332592e+003,6.425975e-003
1.334521e+003,6.860042e-003
1.336449e+003,7.474286e-003
1.338378e+003,8.438468e-003
1.340306e+003,9.161821e-003
1.342235e+003,9.497628e-003
1.344163e+003,9.821776e-003
1.346092e+003,1.045188e-002
1.348021e+003,1.114452e-002
1.349949e+003,1.190150e-002
1.351877e+003,1.224891e-002
1.353806e+003,1.231170e-002
1.355734e+003,1.208794e-002
1.357663e+003,1.212295e-002
1.359591e+003,1.245615e-002
1.361520e+003,1.343422e-002
1.363448e+003,1.465324e-002
1.365377e+003,1.564384e-002
1.367305e+003,1.637370e-002
1.369234e+003,1.641336e-002
1.371162e+003,1.535607e-002
1.373091e+003,1.439773e-002
1.375019e+003,1.389650e-002
1.376948e+003,1.370758e-002
1.378876e+003,1.204190e-002
1.380805e+003,9.366706e-003
1.382733e+003,7.358564e-003
1.384662e+003,6.549714e-003
1.386590e+003,6.127404e-003
1.388519e+003,5.875861e-003
1.390447e+003,5.523540e-003
1.392376e+003,5.563134e-003
1.394304e+003,5.682113e-003
1.396233e+003,5.876282e-003
1.398161e+003,5.702358e-003
1.400090e+003,5.645487e-003
1.402018e+003,5.433133e-003
1.403947e+003,5.738804e-003
1.405875e+003,5.835751e-003
1.407804e+003,5.957257e-003
1.409732e+003,5.959336e-003
1.411661e+003,6.242104e-003
1.413589e+003,6.374333e-003
1.415518e+003,6.960297e-003
1.417446e+003,7.399103e-003
1.419375e+003,8.128986e-003
1.421303e+003,8.243594e-003
1.423232e+003,9.334154e-003
1.425160e+003,1.072858e-002
1.427089e+003,1.256902e-002
1.429017e+003,1.500756e-002
1.430946e+003,1.870401e-002
1.432874e+003,2.168591e-002
1.434803e+003,2.461460e-002
1.436731e+003,2.758870e-002
1.438660e+003,2.992992e-002
1.440588e+003,3.119407e-002
1.442517e+003,3.327096e-002
1.444445e+003,3.484873e-002
1.446374e+003,3.720888e-002
1.448302e+003,4.052400e-002
1.450231e+003,4.578088e-002
1.452159e+003,5.388340e-002
1.454088e+003,6.456887e-002
1.456016e+003,7.557829e-002
1.457945e+003,1.016588e-001
1.459873e+003,1.473292e-001
1.461802e+003,1.912706e-001
1.463730e+003,1.890553e-001
1.465659e+003,1.469878e-001
1.467587e+003,1.342358e-001
1.469516e+003,1.315226e-001
1.471444e+003,1.493275e-001
1.473373e+003,1.338847e-001
1.475301e+003,7.273876e-002
1.477230e+003,3.200929e-002
1.479158e+003,2.023893e-002
1.481087e+003,1.481437e-002
1.483015e+003,1.233432e-002
1.484944e+003,1.051367e-002
1.486872e+003,1.024799e-002
1.488801e+003,8.999612e-003
1.490729e+003,8.559704e-003
1.492658e+003,7.297730e-003
1.494586e+003,7.392431e-003
1.496515e+003,6.934216e-003
1.498443e+003,6.818660e-003
1.500372e+003,5.976856e-003
1.502300e+003,6.064132e-003
1.504229e+003,5.879555e-003
1.506157e+003,7.173603e-003
1.508086e+003,6.329076e-003
1.510014e+003,5.873242e-003
1.511943e+003,5.260725e-003
1.513871e+003,5.428072e-003
1.515800e+003,5.438616e-003
1.517728e+003,5.714916e-003
1.519657e+003,5.346423e-003
1.521585e+003,5.968750e-003
1.523514e+003,5.248170e-003
1.525442e+003,5.365130e-003
1.527371e+003,5.078552e-003
1.529299e+003,5.004104e-003
1.531228e+003,4.700821e-003
1.533156e+003,5.138194e-003
1.535085e+003,4.843667e-003
1.537013e+003,5.039711e-003
1.538942e+003,5.540870e-003
1.540870e+003,6.398465e-003
1.542799e+003,5.310569e-003
1.544727e+003,5.223686e-003
1.546656e+003,4.496789e-003
1.548584e+003,4.522879e-003
1.550513e+003,4.293600e-003
1.552441e+003,4.241440e-003
1.554370e+003,4.325610e-003
1.556298e+003,4.723223e-003
1.558227e+003,4.741786e-003
1.560155e+003,4.500277e-003
1.562084e+003,3.828635e-003
1.564012e+003,3.928654e-003
1.565941e+003,3.788309e-003
1.567869e+003,3.796741e-003
1.569798e+003,3.758801e-003
1.571726e+003,3.728490e-003
1.573655e+003,3.682418e-003
1.575583e+003,4.169852e-003
1.577512e+003,3.892399e-003
1.579440e+003,3.648182e-003
1.581369e+003,3.519328e-003
1.583297e+003,3.573498e-003
1.585226e+003,3.462199e-003
1.587154e+003,3.480522e-003
1.589083e+003,3.377078e-003
1.591011e+003,3.485242e-003
1.592940e+003,3.573801e-003
1.594868e+003,3.756395e-003
1.596797e+003,3.568659e-003
1.598725e+003,3.500864e-003
1.600654e+003,3.466658e-003
1.602582e+003,3.559764e-003
1.604511e+003,3.476441e-003
1.606439e+003,3.612973e-003
1.608368e+003,3.610792e-003
1.610296e+003,3.649402e-003
1.612225e+003,3.622942e-003
1.614153e+003,3.811713e-003
1.616082e+003,3.987171e-003
1.618010e+003,3.929097e-003
1.619939e+003,3.691161e-003
1.621867e+003,4.114639e-003
1.623796e+003,4.385181e-003
1.625724e+003,4.260998e-003
1.627653e+003,4.154012e-003
1.629581e+003,4.210899e-003
1.631510e+003,4.281158e-003
1.633438e+003,4.622919e-003
1.635367e+003,4.991680e-003
1.637295e+003,4.939154e-003
1.639224e+003,4.664283e-003
1.641152e+003,4.791504e-003
1.643081e+003,4.797999e-003
1.645009e+003,4.918203e-003
1.646938e+003,5.095264e-003
1.648866e+003,4.951742e-003
1.650795e+003,4.837951e-003
1.652723e+003,5.628364e-003
1.654652e+003,4.975192e-003
1.656580e+003,4.369536e-003
1.658509e+003,4.218278e-003
1.660437e+003,4.366046e-003
1.662366e+003,4.406553e-003
1.664294e+003,4.189545e-003
1.666223e+003,3.971918e-003
1.668151e+003,4.254322e-003
1.670080e+003,4.367443e-003
1.672008e+003,4.083436e-003
1.673937e+003,3.923971e-003
1.675865e+003,3.937814e-003
1.677794e+003,3.607750e-003
1.679722e+003,3.785418e-003
1.681651e+003,3.843950e-003
1.683579e+003,4.326329e-003
1.685508e+003,3.680989e-003
1.687436e+003,3.305672e-003
1.689365e+003,3.021479e-003
1.691293e+003,2.804285e-003
1.693222e+003,2.610313e-003
1.695150e+003,3.033757e-003
1.697079e+003,3.057307e-003
1.699007e+003,2.911340e-003
1.700936e+003,2.749758e-003
1.702864e+003,2.701471e-003
1.704793e+003,2.640976e-003
1.706721e+003,2.494879e-003
1.708650e+003,2.201291e-003
1.710578e+003,2.308054e-003
1.712507e+003,2.502369e-003
1.714435e+003,3.072210e-003
1.716364e+003,3.367530e-003
1.718292e+003,3.508529e-003
1.720221e+003,3.041146e-003
1.722149e+003,2.908876e-003
1.724078e+003,2.774917e-003
1.726006e+003,2.703032e-003
1.727935e+003,2.814079e-003
1.729863e+003,3.316425e-003
1.731792e+003,3.460865e-003
1.733720e+003,3.894042e-003
1.735649e+003,3.354862e-003
1.737577e+003,3.109196e-003
1.739506e+003,3.105536e-003
1.741434e+003,3.005851e-003
1.743363e+003,2.743730e-003
1.745291e+003,2.670858e-003
1.747220e+003,2.790235e-003
1.749148e+003,2.859546e-003
1.751077e+003,2.338033e-003
1.753005e+003,1.628252e-003
1.754934e+003,1.251591e-003
1.756862e+003,1.321165e-003
1.758791e+003,1.009909e-003
1.760719e+003,9.310860e-004
1.762648e+003,8.279253e-004
1.764576e+003,5.824976e-004
1.766505e+003,5.685817e-004
1.768433e+003,9.168647e-004
1.770362e+003,1.047086e-003
1.772290e+003,1.157206e-003
1.774219e+003,6.744787e-004
1.776147e+003,5.133003e-004
1.778076e+003,4.748590e-004
1.780004e+003,6.908923e-004
1.781933e+003,3.647953e-004
1.783861e+003,3.142804e-004
1.785790e+003,2.721697e-004
1.787718e+003,2.355818e-004
1.789646e+003,3.094263e-004
1.791575e+003,7.168110e-004
1.793504e+003,4.375130e-004
1.795432e+003,3.879648e-004
1.797361e+003,2.873633e-004
1.799289e+003,4.137829e-004
1.801218e+003,4.224610e-004
1.803146e+003,2.002455e-004
1.805074e+003,-2.782606e-005
1.807003e+003,1.318920e-004
1.808932e+003,-4.194118e-005
1.810860e+003,-1.717377e-004
1.812789e+003,-3.652070e-004
1.814717e+003,-4.515629e-004
1.816646e+003,-6.737951e-004
1.818574e+003,-4.910566e-004
1.820502e+003,-3.115255e-004
1.822431e+003,-8.487701e-005
1.824360e+003,-1.228657e-004
1.826288e+003,-1.609437e-004
1.828217e+003,-3.328789e-004
1.830145e+003,-1.974441e-004
1.832073e+003,-4.858123e-004
1.834002e+003,-4.881909e-004
1.835931e+003,-4.938701e-004
1.837859e+003,-3.924370e-004
1.839788e+003,-5.661976e-004
1.841716e+003,-5.303677e-004
1.843645e+003,-5.435515e-004
1.845573e+003,-3.703646e-004
1.847501e+003,-5.212091e-004
1.849430e+003,-5.053859e-004
1.851359e+003,-7.080855e-004
1.853287e+003,-7.298198e-004
1.855216e+003,-8.989861e-004
1.857144e+003,-7.026121e-004
1.859073e+003,-8.339407e-004
1.861001e+003,-9.188922e-004
1.862929e+003,-1.062463e-003
1.864858e+003,-7.856311e-004
1.866787e+003,-7.070620e-004
1.868715e+003,-5.720109e-004
1.870644e+003,-9.838613e-004
1.872572e+003,-1.197110e-003
1.874500e+003,-1.379175e-003
1.876429e+003,-1.152278e-003
1.878357e+003,-1.324867e-003
1.880286e+003,-1.362406e-003
1.882215e+003,-1.471180e-003
1.884143e+003,-1.332283e-003
1.886072e+003,-1.436869e-003
1.888000e+003,-1.202806e-003
1.889928e+003,-1.254861e-003
1.891857e+003,-8.305106e-004
1.893785e+003,-7.808730e-004
1.895714e+003,-6.070770e-004
1.897643e+003,-6.525759e-004
1.899571e+003,-5.027354e-004
1.901500e+003,-4.975460e-004
1.903428e+003,-4.923642e-004
1.905356e+003,-4.871972e-004
1.907285e+003,-4.820395e-004
1.909213e+003,-4.768949e-004
1.911142e+003,-4.717540e-004
1.913071e+003,-4.666299e-004
1.914999e+003,-4.615150e-004
1.916927e+003,-4.564114e-004
1.918856e+003,-4.513171e-004
1.920784e+003,-4.462358e-004
1.922713e+003,-4.411638e-004
1.924641e+003,-4.361048e-004
1.926570e+003,-4.310533e-004
1.928499e+003,-4.260149e-004
1.930427e+003,-4.209876e-004
1.932355e+003,-4.159696e-004
1.934284e+003,-4.109628e-004
1.936212e+003,-4.059672e-004
1.938141e+003,-4.009828e-004
1.940070e+003,-3.960077e-004
1.941998e+003,-3.910456e-004
1.943927e+003,-3.860928e-004
1.945855e+003,-3.811531e-004
1.947783e+003,-3.762208e-004
1.949712e+003,-3.713015e-004
1.951640e+003,-3.663953e-004
1.953569e+003,-3.614966e-004
1.955498e+003,-3.566071e-004
1.957426e+003,-3.517326e-004
1.959354e+003,-3.468674e-004
1.961283e+003,-3.420152e-004
1.963211e+003,-3.371686e-004
1.965140e+003,-3.323369e-004
1.967068e+003,-3.275145e-004
1.968997e+003,-3.227033e-004
1.970926e+003,-3.179032e-004
1.972854e+003,-3.131125e-004
1.974782e+003,-3.083348e-004
1.976711e+003,-3.035683e-004
1.978639e+003,-2.988093e-004
1.980568e+003,-2.940632e-004
1.982496e+003,-2.893284e-004
1.984425e+003,-2.846047e-004
1.986354e+003,-2.798922e-004
1.988282e+003,-2.751891e-004
1.990210e+003,-2.704952e-004
1.992139e+003,-2.658144e-004
1.994067e+003,-2.611447e-004
1.995996e+003,-2.564862e-004
1.997924e+003,-2.518389e-004
1.999853e+003,-2.471991e-004
2.001781e+003,-2.425723e-004
2.003710e+003,-2.379566e-004
2.005638e+003,-2.333522e-004
2.007567e+003,-2.287552e-004
2.009495e+003,-2.241731e-004
2.011424e+003,-2.196021e-004
2.013352e+003,-2.150368e-004
2.015281e+003,-2.104882e-004
2.017209e+003,-2.059471e-004
2.019138e+003,-2.014209e-004
2.021066e+003,-1.969002e-004
2.022995e+003,-1.923926e-004
2.024923e+003,-1.878962e-004
2.026852e+003,-1.834109e-004
2.028781e+003,-1.789350e-004
2.030709e+003,-1.744721e-004
2.032637e+003,-1.700185e-004
2.034566e+003,-1.655761e-004
2.036494e+003,-1.611430e-004
2.038423e+003,-1.567230e-004
2.040351e+003,-1.523141e-004
2.042280e+003,-1.479127e-004
2.044208e+003,-1.435261e-004
2.046137e+003,-1.391489e-004
2.048065e+003,-1.347829e-004
2.049994e+003,-1.304261e-004
2.051922e+003,-1.260806e-004
2.053851e+003,-1.217443e-004
2.055779e+003,-1.174212e-004
2.057708e+003,-1.131091e-004
2.059636e+003,-1.088083e-004
2.061565e+003,-1.045186e-004
2.063493e+003,-1.002382e-004
2.065422e+003,-9.597093e-005
2.067350e+003,-9.171292e-005
2.069279e+003,-8.746237e-005
2.071207e+003,-8.322671e-005
2.073136e+003,-7.900223e-005
2.075064e+003,-7.478707e-005
2.076993e+003,-7.058308e-005
2.078921e+003,-6.639026e-005
2.080850e+003,-6.220862e-005
2.082778e+003,-5.803816e-005
2.084707e+003,-5.387329e-005
2.086635e+003,-4.972704e-005
2.088564e+003,-4.558638e-005
2.090492e+003,-4.145876e-005
2.092421e+003,-3.734231e-005
2.094349e+003,-3.323704e-005
2.096278e+003,-2.914108e-005
2.098206e+003,-2.505444e-005
2.100135e+003,-2.098083e-005
2.102063e+003,-1.692027e-005
2.103992e+003,-1.286529e-005
2.105920e+003,-8.827075e-006
2.107849e+003,-4.794449e-006
2.109777e+003,-7.767230e-007
2.111706e+003,3.233552e-006
2.113634e+003,7.232651e-006
2.115563e+003,1.122057e-005
2.117491e+003,1.519732e-005
2.119420e+003,1.916103e-005
2.121348e+003,2.311356e-005
2.123277e+003,2.705865e-005
2.125205e+003,3.098883e-005
2.127134e+003,3.491342e-005
2.129062e+003,3.882498e-005
2.130991e+003,4.272722e-005
2.132919e+003,4.661456e-005
2.134848e+003,5.049445e-005
2.136776e+003,5.436130e-005
2.138705e+003,5.821697e-005
2.140633e+003,6.206147e-005
2.142562e+003,6.590039e-005
2.144490e+003,6.972440e-005
2.146419e+003,7.353723e-005
2.148347e+003,7.733889e-005
2.150276e+003,8.113123e-005
2.152204e+003,8.491240e-005
2.154133e+003,8.868240e-005
2.156061e+003,9.244494e-005
2.157990e+003,9.619445e-005
2.159918e+003,9.992905e-005
2.161847e+003,1.036562e-004
2.163775e+003,1.073703e-004
2.165704e+003,1.110751e-004
2.167632e+003,1.147706e-004
2.169561e+003,1.184531e-004
2.171489e+003,1.221243e-004
2.173418e+003,1.257900e-004
2.175346e+003,1.294408e-004
2.177275e+003,1.330804e-004
2.179203e+003,1.367107e-004
2.181132e+003,1.403298e-004
2.183060e+003,1.439340e-004
2.184989e+003,1.475327e-004
2.186917e+003,1.511201e-004
2.188846e+003,1.546964e-004
2.190774e+003,1.582596e-004
2.192703e+003,1.618117e-004
2.194631e+003,1.653526e-004
2.196560e+003,1.688842e-004
2.198488e+003,1.724046e-004
2.200417e+003,1.759175e-004
2.202345e+003,1.794174e-004
2.204274e+003,1.829043e-004
2.206202e+003,1.863819e-004
2.208131e+003,1.898482e-004
2.210059e+003,1.933016e-004
2.211988e+003,1.967475e-004
2.213916e+003,2.001803e-004
2.215845e+003,2.036039e-004
2.217773e+003,2.070200e-004
2.219702e+003,2.104212e-004
2.221630e+003,2.138112e-004
2.223559e+003,2.171900e-004
2.225487e+003,2.205595e-004
2.227416e+003,2.239179e-004
2.229344e+003,2.272632e-004
2.231273e+003,2.306048e-004
2.233201e+003,2.339296e-004
2.235130e+003,2.372433e-004
2.237058e+003,2.405476e-004
2.238987e+003,2.438389e-004
2.240915e+003,2.471209e-004
2.242844e+003,2.503935e-004
2.244772e+003,2.536550e-004
2.246701e+003,2.569035e-004
2.248629e+003,2.601445e-004
2.250558e+003,2.633724e-004
2.252486e+003,2.665874e-004
2.254415e+003,2.697948e-004
2.256343e+003,2.729893e-004
2.258272e+003,2.761725e-004
2.260200e+003,2.793465e-004
2.262129e+003,2.825130e-004
2.264057e+003,2.856646e-004
2.265986e+003,2.888050e-004
2.267914e+003,2.919361e-004
2.269843e+003,2.950542e-004
2.271771e+003,2.981629e-004
2.273700e+003,3.012586e-004
2.275628e+003,3.043506e-004
2.277557e+003,3.074277e-004
2.279485e+003,3.104918e-004
2.281414e+003,3.135484e-004
2.283342e+003,3.165901e-004
2.285271e+003,3.196225e-004
2.287199e+003,3.226418e-004
2.289128e+003,3.256556e-004
2.291056e+003,3.286581e-004
2.292985e+003,3.316458e-004
2.294913e+003,3.346261e-004
2.296842e+003,3.375933e-004
2.298770e+003,3.405493e-004
2.300699e+003,3.434960e-004
2.302627e+003,3.464334e-004
2.304556e+003,3.493577e-004
2.306484e+003,3.522709e-004
2.308413e+003,3.551729e-004
2.310341e+003,3.580656e-004
2.312270e+003,3.609471e-004
2.314198e+003,3.638156e-004
2.316127e+003,3.666729e-004
2.318055e+003,3.695227e-004
2.319984e+003,3.723614e-004
2.321912e+003,3.751889e-004
2.323841e+003,3.780033e-004
2.325769e+003,3.808104e-004
2.327698e+003,3.836043e-004
2.329626e+003,3.863871e-004
2.331555e+003,3.891587e-004
2.333483e+003,3.919229e-004
2.335412e+003,3.946722e-004
2.337340e+003,3.974121e-004
2.339269e+003,4.001427e-004
2.341197e+003,4.028622e-004
2.343126e+003,4.055668e-004
2.345054e+003,4.082657e-004
2.346983e+003,4.109517e-004
2.348911e+003,4.136264e-004
2.350840e+003,4.162919e-004
2.352768e+003,4.189443e-004
2.354697e+003,4.215874e-004
2.356625e+003,4.242174e-004
2.358554e+003,4.268382e-004
2.360482e+003,4.294496e-004
2.362411e+003,4.320480e-004
2.364339e+003,4.346389e-004
2.366268e+003,4.372150e-004
2.368196e+003,4.397817e-004
2.370125e+003,4.423372e-004
2.372053e+003,4.448816e-004
2.373982e+003,4.474148e-004
2.375910e+003,4.499406e-004
2.377839e+003,4.524514e-004
2.379767e+003,4.549548e-004
2.381696e+003,4.574433e-004
2.383624e+003,4.599262e-004
2.385553e+003,4.623923e-004
2.387481e+003,4.648510e-004
2.389410e+003,4.672986e-004
2.391338e+003,4.697368e-004
2.393267e+003,4.721619e-004
2.395195e+003,4.745740e-004
2.397124e+003,4.769806e-004
2.399052e+003,4.793722e-004
2.400981e+003,5.857889e-004
2.402909e+003,4.617292e-004
2.404838e+003,4.136786e-004
2.406766e+003,6.016828e-004
2.408695e+003,8.404367e-004
2.410623e+003,9.353384e-004
2.412552e+003,1.063816e-003
2.414480e+003,1.043402e-003
2.416409e+003,9.739194e-004
2.418337e+003,8.565690e-004
2.420266e+003,7.821601e-004
2.422194e+003,6.271675e-004
2.424123e+003,5.702637e-004
2.426051e+003,6.359946e-004
2.427979e+003,8.303560e-004
2.429908e+003,7.767454e-004
2.431837e+003,7.087979e-004
2.433765e+003,8.242149e-004
2.435694e+003,8.181352e-004
2.437622e+003,6.327406e-004
2.439551e+003,7.134844e-004
2.441479e+003,9.141713e-004
2.443407e+003,1.005542e-003
2.445336e+003,9.131599e-004
2.447265e+003,9.114034e-004
2.449193e+003,9.258091e-004
2.451122e+003,9.893905e-004
2.453050e+003,1.070442e-003
2.454979e+003,1.174491e-003
2.456907e+003,1.083752e-003
2.458836e+003,9.369049e-004
2.460764e+003,9.324495e-004
2.462693e+003,9.231400e-004
2.464621e+003,8.171443e-004
2.466550e+003,9.795018e-004
2.468478e+003,1.065103e-003
2.470406e+003,1.124062e-003
2.472335e+003,1.287568e-003
2.474264e+003,1.499655e-003
2.476192e+003,1.582347e-003
2.478121e+003,1.630476e-003
2.480049e+003,1.440536e-003
2.481978e+003,1.379343e-003
2.483906e+003,1.307201e-003
2.485835e+003,1.180358e-003
2.487763e+003,1.292463e-003
2.489692e+003,1.505923e-003
2.491620e+003,1.534445e-003
2.493549e+003,1.488296e-003
2.495477e+003,1.383463e-003
2.497406e+003,1.390779e-003
2.499334e+003,1.379803e-003
2.501263e+003,1.405597e-003
2.503191e+003,1.477489e-003
2.505120e+003,1.794659e-003
2.507048e+003,1.927247e-003
2.508977e+003,1.739588e-003
2.510905e+003,1.675511e-003
2.512833e+003,1.877550e-003
2.514762e+003,1.878256e-003
2.516691e+003,1.962924e-003
2.518619e+003,2.197457e-003
2.520548e+003,2.367841e-003
2.522476e+003,2.388582e-003
2.524405e+003,2.492413e-003
2.526333e+003,2.579616e-003
2.528261e+003,2.625255e-003
2.530190e+003,2.785491e-003
2.532119e+003,2.841663e-003
2.534047e+003,2.736334e-003
2.535976e+003,2.622066e-003
2.537904e+003,2.583578e-003
2.539833e+003,2.670670e-003
2.541761e+003,2.760822e-003
2.543689e+003,3.008759e-003
2.545618e+003,3.269307e-003
2.547547e+003,3.336880e-003
2.549475e+003,3.336431e-003
2.551404e+003,3.333544e-003
2.553332e+003,3.287390e-003
2.555260e+003,3.450332e-003
2.557189e+003,3.674591e-003
2.559117e+003,3.861764e-003
2.561046e+003,3.988937e-003
2.562975e+003,4.259573e-003
2.564903e+003,4.295746e-003
2.566832e+003,4.329704e-003
2.568760e+003,4.438693e-003
2.570688e+003,4.609017e-003
2.572617e+003,4.830686e-003
2.574546e+003,4.907323e-003
2.576474e+003,4.964879e-003
2.578403e+003,5.218316e-003
2.580331e+003,5.341575e-003
2.582260e+003,5.564375e-003
2.584188e+003,5.868448e-003
2.586116e+003,6.124014e-003
2.588045e+003,6.407853e-003
2.589974e+003,6.728780e-003
2.591902e+003,6.834406e-003
2.593831e+003,7.115401e-003
2.595759e+003,7.411469e-003
2.597688e+003,7.571604e-003
2.599616e+003,7.654458e-003
2.601544e+003,7.917363e-003
2.603473e+003,8.176452e-003
2.605402e+003,8.489562e-003
2.607330e+003,8.834869e-003
2.609259e+003,9.145249e-003
2.611187e+003,9.367732e-003
2.613115e+003,9.667750e-003
2.615044e+003,1.000105e-002
2.616972e+003,1.033314e-002
2.618901e+003,1.063242e-002
2.620830e+003,1.102161e-002
2.622758e+003,1.144494e-002
2.624687e+003,1.187343e-002
2.626615e+003,1.231834e-002
2.628543e+003,1.266569e-002
2.630472e+003,1.308310e-002
2.632400e+003,1.352605e-002
2.634329e+003,1.377733e-002
2.636258e+003,1.390226e-002
2.638186e+003,1.388739e-002
2.640115e+003,1.379296e-002
2.642043e+003,1.377778e-002
2.643971e+003,1.379200e-002
2.645900e+003,1.379680e-002
2.647828e+003,1.387453e-002
2.649757e+003,1.404055e-002
2.651686e+003,1.426543e-002
2.653614e+003,1.445682e-002
2.655542e+003,1.467018e-002
2.657471e+003,1.481951e-002
2.659399e+003,1.483562e-002
2.661328e+003,1.474120e-002
2.663256e+003,1.462262e-002
2.665185e+003,1.445215e-002
2.667114e+003,1.430969e-002
2.669042e+003,1.422447e-002
2.670970e+003,1.412987e-002
2.672899e+003,1.402001e-002
2.674827e+003,1.383629e-002
2.676756e+003,1.368956e-002
2.678685e+003,1.357308e-002
2.680613e+003,1.340032e-002
2.682542e+003,1.325609e-002
2.684470e+003,1.314795e-002
2.686398e+003,1.301988e-002
2.688327e+003,1.283428e-002
2.690255e+003,1.273740e-002
2.692184e+003,1.261953e-002
2.694113e+003,1.251312e-002
2.696041e+003,1.253562e-002
2.697969e+003,1.259933e-002
2.699898e+003,1.267928e-002
2.701826e+003,1.279523e-002
2.703755e+003,1.297660e-002
2.705683e+003,1.318075e-002
2.707612e+003,1.340153e-002
2.709541e+003,1.360835e-002
2.711469e+003,1.369277e-002
2.713397e+003,1.379896e-002
2.715326e+003,1.398354e-002
2.717254e+003,1.411140e-002
2.719183e+003,1.430412e-002
2.721111e+003,1.454805e-002
2.723040e+003,1.481422e-002
2.724969e+003,1.521772e-002
2.726897e+003,1.556175e-002
2.728825e+003,1.581728e-002
2.730754e+003,1.606111e-002
2.732682e+003,1.621366e-002
2.734611e+003,1.632624e-002
2.736539e+003,1.650107e-002
2.738468e+003,1.669356e-002
2.740396e+003,1.685743e-002
2.742325e+003,1.692553e-002
2.744253e+003,1.690134e-002
2.746182e+003,1.687767e-002
2.748110e+003,1.693662e-002
2.750039e+003,1.708265e-002
2.751967e+003,1.723985e-002
2.753896e+003,1.739528e-002
2.755824e+003,1.765264e-002
2.757753e+003,1.803620e-002
2.759681e+003,1.848190e-002
2.761610e+003,1.893729e-002
2.763538e+003,1.931842e-002
2.765467e+003,1.972674e-002
2.767395e+003,2.025440e-002
2.769324e+003,2.080370e-002
2.771252e+003,2.140616e-002
2.773181e+003,2.211838e-002
2.775109e+003,2.293638e-002
2.777038e+003,2.385840e-002
2.778966e+003,2.485672e-002
2.780895e+003,2.592688e-002
2.782823e+003,2.708028e-002
2.784752e+003,2.830227e-002
2.786680e+003,2.969600e-002
2.788609e+003,3.129546e-002
2.790537e+003,3.304902e-002
2.792466e+003,3.474625e-002
2.794394e+003,3.646062e-002
2.796323e+003,3.827429e-002
2.798251e+003,4.014843e-002
2.800180e+003,4.215949e-002
2.802108e+003,4.437802e-002
2.804037e+003,4.675046e-002
2.805965e+003,4.925654e-002
2.807894e+003,5.203215e-002
2.809822e+003,5.516897e-002
2.811751e+003,5.864237e-002
2.813679e+003,6.250558e-002
2.815608e+003,6.692939e-002
2.817536e+003,7.213700e-002
2.819465e+003,7.833051e-002
2.821393e+003,8.582814e-002
2.823322e+003,9.491765e-002
2.825250e+003,1.060222e-001
2.827179e+003,1.201886e-001
2.829107e+003,1.385712e-001
2.831036e+003,1.627824e-001
2.832964e+003,1.956486e-001
2.834893e+003,2.416829e-001
2.836821e+003,3.068479e-001
2.838750e+003,4.011373e-001
2.840678e+003,5.410430e-001
2.842607e+003,7.461558e-001
2.844535e+003,1.022343e+000
2.846464e+003,1.291316e+000
2.848392e+003,1.319474e+000
2.850321e+003,1.069090e+000
2.852249e+003,7.925770e-001
2.854178e+003,5.947784e-001
2.856106e+003,4.578241e-001
2.858035e+003,3.594016e-001
2.859963e+003,2.888786e-001
2.861892e+003,2.397302e-001
2.863820e+003,2.070524e-001
2.865749e+003,1.872573e-001
2.867677e+003,1.771179e-001
2.869606e+003,1.737251e-001
2.871534e+003,1.748643e-001
2.873463e+003,1.801278e-001
2.875391e+003,1.906902e-001
2.877320e+003,2.074189e-001
2.879248e+003,2.299320e-001
2.881177e+003,2.567738e-001
2.883105e+003,2.868433e-001
2.885034e+003,3.196869e-001
2.886962e+003,3.548879e-001
2.888891e+003,3.915247e-001
2.890819e+003,4.285243e-001
2.892748e+003,4.651991e-001
2.894676e+003,5.013869e-001
2.896605e+003,5.378250e-001
2.898533e+003,5.761569e-001
2.900462e+003,6.190143e-001
2.902390e+003,6.708401e-001
2.904319e+003,7.382948e-001
2.906247e+003,8.303002e-001
2.908176e+003,9.571261e-001
2.910104e+003,1.127866e+000
2.912033e+003,1.333848e+000
2.913961e+003,1.509095e+000
2.915890e+003,1.534139e+000
2.917818e+003,1.385505e+000
2.919747e+003,1.172994e+000
2.921675e+003,9.769623e-001
2.923604e+003,8.157036e-001
2.925532e+003,6.861674e-001
2.927461e+003,5.803849e-001
2.929389e+003,4.915794e-001
2.931318e+003,4.157027e-001
2.933246e+003,3.506505e-001
2.935175e+003,2.950517e-001
2.937103e+003,2.477487e-001
2.939032e+003,2.078813e-001
2.940960e+003,1.748077e-001
2.942889e+003,1.480159e-001
2.944817e+003,1.269321e-001
2.946746e+003,1.112047e-001
2.948674e+003,1.003616e-001
2.950603e+003,9.309374e-002
2.952531e+003,8.759401e-002
2.954460e+003,8.247580e-002
2.956388e+003,7.709701e-002
2.958317e+003,7.126234e-002
2.960245e+003,6.511047e-002
2.962174e+003,5.881695e-002
2.964102e+003,5.262560e-002
2.966031e+003,4.669189e-002
2.967959e+003,4.124019e-002
2.969888e+003,3.658323e-002
2.971816e+003,3.273179e-002
2.973745e+003,2.941631e-002
2.975673e+003,2.667630e-002
2.977602e+003,2.440876e-002
2.979530e+003,2.252949e-002
2.981459e+003,2.097195e-002
2.983387e+003,1.963739e-002
2.985316e+003,1.850673e-002
2.987244e+003,1.749737e-002
2.989173e+003,1.651621e-002
2.991101e+003,1.563062e-002
2.993030e+003,1.492503e-002
2.994958e+003,1.438194e-002
2.996887e+003,1.387645e-002
2.998815e+003,1.336268e-002
3.000744e+003,1.285081e-002
3.002672e+003,1.244612e-002
3.004601e+003,1.206415e-002
3.006529e+003,1.163881e-002
3.008458e+003,1.130128e-002
3.010386e+003,1.105927e-002
3.012315e+003,1.077253e-002
3.014243e+003,1.049308e-002
3.016172e+003,1.032025e-002
3.018100e+003,1.015145e-002
3.020029e+003,9.871995e-003
3.021957e+003,9.710865e-003
3.023886e+003,9.564508e-003
3.025814e+003,9.385545e-003
3.027743e+003,9.215254e-003
3.029671e+003,9.050231e-003
3.031600e+003,8.826675e-003
3.033528e+003,8.489573e-003
3.035457e+003,8.205205e-003
3.037385e+003,7.970758e-003
3.039314e+003,7.653266e-003
3.041242e+003,7.310152e-003
3.043171e+003,7.020485e-003
3.045099e+003,6.734973e-003
3.047028e+003,6.495116e-003
3.048956e+003,6.290296e-003
3.050885e+003,6.072970e-003
3.052813e+003,5.949868e-003
3.054742e+003,5.785748e-003
3.056670e+003,5.568381e-003
3.058599e+003,5.347742e-003
3.060527e+003,5.194228e-003
3.062456e+003,5.068248e-003
3.064384e+003,4.970776e-003
3.066313e+003,4.899986e-003
3.068241e+003,4.826806e-003
3.070170e+003,4.718974e-003
3.072098e+003,4.581641e-003
3.074027e+003,4.430875e-003
3.075955e+003,4.326887e-003
3.077884e+003,4.198281e-003
3.079812e+003,4.087213e-003
3.081741e+003,4.007230e-003
3.083669e+003,3.905971e-003
3.085598e+003,3.849784e-003
3.087526e+003,3.761943e-003
3.089455e+003,3.523745e-003
3.091383e+003,3.231820e-003
3.093312e+003,2.930880e-003
3.095240e+003,2.671234e-003
3.097169e+003,2.445288e-003
3.099097e+003,2.206249e-003
3.101026e+003,1.957167e-003
3.102954e+003,1.724759e-003
3.104883e+003,1.597667e-003
3.106811e+003,1.558883e-003
3.108740e+003,1.426689e-003
3.110668e+003,1.239561e-003
3.112597e+003,1.160664e-003
3.114525e+003,1.210779e-003
3.116454e+003,1.044437e-003
3.118382e+003,9.340644e-004
3.120311e+003,1.040004e-003
3.122239e+003,1.019191e-003
3.124168e+003,8.520074e-004
3.126096e+003,7.676464e-004
3.128025e+003,6.931517e-004
3.129953e+003,6.211139e-004
3.131882e+003,6.703846e-004
3.133810e+003,7.148217e-004
3.135739e+003,6.498862e-004
3.137667e+003,6.043408e-004
3.139596e+003,6.028153e-004
3.141524e+003,6.145984e-004
3.143453e+003,6.002802e-004
3.145381e+003,5.887095e-004
3.147310e+003,5.351827e-004
3.149238e+003,5.430989e-004
3.151167e+003,6.338451e-004
3.153095e+003,6.714482e-004
3.155024e+003,6.976426e-004
3.156952e+003,6.936789e-004
3.158881e+003,5.879253e-004
3.160809e+003,5.506538e-004
3.162738e+003,4.941262e-004
3.164666e+003,5.525835e-004
3.166594e+003,5.732030e-004
3.168523e+003,5.581677e-004
3.170452e+003,5.669743e-004
3.172380e+003,5.606264e-004
3.174309e+003,5.860180e-004
3.176237e+003,6.514117e-004
3.178166e+003,6.998479e-004
3.180094e+003,6.540827e-004
3.182022e+003,6.835759e-004
3.183951e+003,8.026361e-004
3.185880e+003,7.536970e-004
3.187808e+003,6.902106e-004
3.189737e+003,7.195696e-004
3.191665e+003,7.882714e-004
3.193594e+003,7.729866e-004
3.195522e+003,6.699935e-004
3.197450e+003,7.097125e-004
3.199379e+003,7.659681e-004
3.201308e+003,7.695183e-004
3.203236e+003,7.615499e-004
3.205165e+003,8.128248e-004
3.207093e+003,8.617677e-004
3.209021e+003,8.356534e-004
3.210950e+003,8.970797e-004
3.212878e+003,8.993931e-004
3.214807e+003,8.541569e-004
3.216736e+003,8.440055e-004
3.218664e+003,8.889735e-004
3.220593e+003,9.283200e-004
3.222521e+003,9.435453e-004
3.224449e+003,9.556226e-004
3.226378e+003,9.238012e-004
3.228307e+003,8.590929e-004
3.230235e+003,7.987916e-004
3.232164e+003,8.006990e-004
3.234092e+003,9.264871e-004
3.236021e+003,9.823740e-004
3.237949e+003,9.182543e-004
3.239877e+003,9.939931e-004
3.241806e+003,1.038577e-003
3.243735e+003,1.018386e-003
3.245663e+003,1.066118e-003
3.247592e+003,1.066964e-003
3.249520e+003,1.075190e-003
3.251448e+003,1.151167e-003
3.253377e+003,1.244247e-003
3.255305e+003,1.224529e-003
3.257234e+003,1.253087e-003
3.259163e+003,1.254912e-003
3.261091e+003,1.284622e-003
3.263020e+003,1.318466e-003
3.264948e+003,1.396563e-003
3.266876e+003,1.530085e-003
3.268805e+003,1.593426e-003
3.270733e+003,1.562912e-003
3.272662e+003,1.590900e-003
3.274591e+003,1.653045e-003
3.276519e+003,1.643963e-003
3.278448e+003,1.591351e-003
3.280376e+003,1.614846e-003
3.282304e+003,1.701210e-003
3.284233e+003,1.775645e-003
3.286161e+003,1.823600e-003
3.288090e+003,1.780741e-003
3.290019e+003,1.722071e-003
3.291947e+003,1.804721e-003
3.293875e+003,1.792401e-003
3.295804e+003,1.723226e-003
3.297732e+003,1.778126e-003
3.299661e+003,1.772042e-003
3.301589e+003,1.779724e-003
3.303518e+003,1.834642e-003
3.305447e+003,1.833837e-003
3.307375e+003,1.872562e-003
3.309303e+003,1.832332e-003
3.311232e+003,1.792163e-003
3.313160e+003,1.858596e-003
3.315089e+003,1.853846e-003
3.317018e+003,1.902584e-003
3.318946e+003,1.937181e-003
3.320875e+003,1.873255e-003
3.322803e+003,1.882933e-003
3.324731e+003,1.823064e-003
3.326660e+003,1.817465e-003
3.328588e+003,1.907256e-003
3.330517e+003,1.833607e-003
3.332446e+003,1.827314e-003
3.334374e+003,1.992326e-003
3.336302e+003,1.979653e-003
3.338231e+003,1.843847e-003
3.340159e+003,1.808498e-003
3.342088e+003,1.819856e-003
3.344016e+003,1.834981e-003
3.345945e+003,1.800571e-003
3.347874e+003,1.814779e-003
3.349802e+003,1.878366e-003
3.351730e+003,1.856666e-003
3.353659e+003,1.807824e-003
3.355587e+003,1.846101e-003
3.357516e+003,1.871873e-003
3.359444e+003,1.869615e-003
3.361373e+003,1.939371e-003
3.363302e+003,1.938853e-003
3.365230e+003,1.914322e-003
3.367158e+003,1.930472e-003
3.369087e+003,1.921017e-003
3.371015e+003,1.853380e-003
3.372944e+003,1.813721e-003
3.374872e+003,1.763605e-003
3.376801e+003,1.757331e-003
3.378729e+003,1.711927e-003
3.380658e+003,1.614466e-003
3.382586e+003,1.565479e-003
3.384515e+003,1.564812e-003
3.386443e+003,1.552187e-003
3.388372e+003,1.465570e-003
3.390300e+003,1.399226e-003
3.392229e+003,1.482878e-003
3.394157e+003,1.494586e-003
3.396086e+003,1.422025e-003
3.398014e+003,1.184989e-003
3.399943e+003,1.118064e-003
3.401871e+003,1.189522e-003
3.403800e+003,1.170121e-003
3.405728e+003,1.164682e-003
3.407657e+003,1.169302e-003
3.409585e+003,1.066741e-003
3.411514e+003,1.138009e-003
3.413442e+003,1.137387e-003
3.415371e+003,1.133412e-003
3.417299e+003,1.077339e-003
3.419228e+003,1.173839e-003
3.421156e+003,1.269281e-003
3.423085e+003,1.173899e-003
3.425013e+003,1.146309e-003
3.426942e+003,1.150675e-003
3.428870e+003,1.104183e-003
3.430799e+003,1.035158e-003
3.432727e+003,9.446070e-004
3.434656e+003,8.419566e-004
3.436584e+003,7.631034e-004
3.438513e+003,7.435605e-004
3.440441e+003,8.039847e-004
3.442370e+003,9.657852e-004
3.444298e+003,9.853691e-004
3.446227e+003,1.105469e-003
3.448155e+003,1.015108e-003
3.450084e+003,8.067191e-004
3.452012e+003,6.843545e-004
3.453941e+003,6.171763e-004
3.455869e+003,5.087703e-004
3.457798e+003,4.699379e-004
3.459726e+003,5.366243e-004
3.461655e+003,7.111169e-004
3.463583e+003,6.831437e-004
3.465512e+003,5.456284e-004
3.467440e+003,3.705584e-004
3.469369e+003,3.770664e-004
3.471297e+003,3.731064e-004
3.473226e+003,3.078394e-004
3.475154e+003,2.682209e-004
3.477083e+003,2.770424e-004
3.479011e+003,3.480949e-004
3.480940e+003,4.123673e-004
3.482868e+003,3.188029e-004
3.484797e+003,3.464669e-004
3.486725e+003,3.975853e-004
3.488654e+003,3.100075e-004
3.490582e+003,3.318861e-005
3.492511e+003,-2.789497e-005
3.494439e+003,-1.352280e-005
3.496368e+003,-7.636100e-005
3.498296e+003,-1.408197e-004
3.500225e+003,-3.576651e-005
3.502153e+003,2.664439e-004
3.504082e+003,2.182238e-004
3.506010e+003,-9.401888e-005
3.507939e+003,-1.190417e-004
3.509867e+003,-9.633973e-005
3.511796e+003,-2.045557e-004
3.513724e+003,-4.368462e-004
3.515653e+003,-7.183664e-004
3.517581e+003,-7.364079e-004
3.519510e+003,-7.545836e-004
3.521438e+003,-6.369911e-004
3.523367e+003,-1.929551e-004
3.525295e+003,-7.487833e-005
3.527224e+003,7.625297e-005
3.529152e+003,-1.706295e-004
3.531081e+003,-5.122460e-004
3.533009e+003,-6.033629e-004
3.534938e+003,-5.184449e-004
3.536866e+003,-6.466247e-004
3.538795e+003,-8.415431e-004
3.540723e+003,-8.426197e-004
3.542652e+003,-4.387386e-004
3.544580e+003,1.412965e-004
3.546509e+003,1.631677e-006
3.548437e+003,-7.159971e-004
3.550366e+003,-8.181557e-004
3.552294e+003,-6.782599e-004
3.554223e+003,-8.711703e-004
3.556151e+003,-1.118179e-003
3.558080e+003,-1.106508e-003
3.560008e+003,-9.489916e-004
3.561937e+003,-6.685369e-004
3.563865e+003,-2.148077e-004
3.565794e+003,6.777160e-004
3.567722e+003,6.093718e-004
3.569651e+003,-5.800501e-004
3.571579e+003,-1.067031e-003
3.573508e+003,-1.005363e-003
3.575436e+003,-1.037359e-003
3.577365e+003,-1.130663e-003
3.579293e+003,-1.289960e-003
3.581222e+003,-1.292903e-003
3.583150e+003,-8.964203e-004
3.585079e+003,-3.021210e-004
3.587007e+003,4.596263e-004
3.588936e+003,4.708767e-006
3.590864e+003,-4.622675e-004
3.592793e+003,1.641735e-005
3.594721e+003,8.510649e-004
3.596650e+003,9.145960e-004
3.598578e+003,8.506253e-004
3.600507e+003,1.153763e-003
3.602435e+003,1.242414e-003
3.604364e+003,1.242395e-003
3.606292e+003,1.643095e-003
3.608221e+003,1.925882e-003
3.610149e+003,1.055956e-003
3.612078e+003,7.237829e-004
3.614006e+003,9.687990e-004
3.615935e+003,1.075458e-003
3.617863e+003,1.175731e-003
3.619792e+003,6.230958e-004
3.621720e+003,-3.146566e-004
3.623649e+003,-3.081597e-004
3.625577e+003,2.747364e-004
3.627506e+003,8.876622e-004
3.629434e+003,7.238686e-004
3.631363e+003,-4.532672e-004
3.633291e+003,-3.662072e-004
3.635220e+003,6.764755e-005
3.637148e+003,-9.462237e-007
3.639077e+003,-6.171651e-004
3.641005e+003,-8.568838e-004
3.642934e+003,-5.091541e-004
3.644862e+003,2.143718e-004
3.646791e+003,1.537845e-003
3.648719e+003,2.101466e-003
3.650648e+003,1.129985e-003
3.652576e+003,1.249462e-004
3.654505e+003,-1.640245e-005
3.656433e+003,2.614930e-004
3.658362e+003,-2.591833e-004
3.660290e+003,-8.501634e-004
3.662219e+003,-7.807910e-004
3.664147e+003,-7.627010e-004
3.666076e+003,-7.093847e-004
3.668004e+003,-4.466549e-004
3.669933e+003,1.394115e-004
3.671861e+003,-6.659664e-004
3.673790e+003,-4.795901e-004
3.675718e+003,1.034409e-003
3.677647e+003,-4.831702e-006
3.679575e+003,-8.850768e-004
3.681504e+003,-1.229774e-003
3.683432e+003,-1.161110e-003
3.685361e+003,-9.579696e-004
3.687289e+003,-7.937476e-004
3.689218e+003,-1.233779e-004
3.691146e+003,-1.475401e-004
3.693075e+003,-7.377304e-004
3.695003e+003,-8.971356e-004
3.696932e+003,-6.901808e-004
3.698860e+003,-6.664805e-004
3.700789e+003,-5.715676e-004
3.702717e+003,-5.766898e-004
3.704646e+003,-1.006708e-003
3.706574e+003,-9.611323e-004
3.708503e+003,-1.917221e-004
3.710431e+003,7.954985e-004
3.712360e+003,4.234165e-004
3.714288e+003,-3.120974e-004
3.716217e+003,-6.900653e-004
3.718145e+003,-4.666410e-004
3.720074e+003,-2.089851e-004
3.722002e+003,1.454055e-004
3.723931e+003,1.241639e-004
3.725859e+003,2.020858e-004
3.727788e+003,-3.304332e-005
3.729716e+003,-3.668815e-004
3.731645e+003,9.308383e-005
3.733573e+003,6.866828e-004
3.735502e+003,9.120554e-004
3.737430e+003,2.928674e-004
3.739359e+003,2.656356e-004
3.741287e+003,1.817159e-004
3.743216e+003,-1.377873e-004
3.745144e+003,3.726780e-005
3.747073e+003,3.174953e-004
3.749001e+003,8.891709e-004
3.750930e+003,1.507659e-003
3.752858e+003,1.765005e-004
3.754787e+003,-2.296790e-004
3.756715e+003,-1.240410e-004
3.758644e+003,-1.280345e-004
3.760572e+003,-6.818399e-004
3.762501e+003,-1.165055e-003
3.764429e+003,-6.399639e-004
3.766358e+003,-1.834631e-004
3.768286e+003,-3.683940e-004
3.770215e+003,-4.150346e-004
3.772143e+003,-8.971430e-004
3.774072e+003,-9.174459e-004
3.776000e+003,-6.419979e-004
3.777929e+003,-4.515052e-004
3.779857e+003,-2.018921e-004
3.781786e+003,-5.107559e-004
3.783714e+003,-2.565645e-004
3.785643e+003,4.061311e-005
3.787571e+003,-5.273633e-004
3.789500e+003,-8.630864e-004
3.791428e+003,-6.460585e-004
3.793357e+003,-6.416366e-004
3.795285e+003,-2.573840e-004
3.797214e+003,4.327372e-004
3.799142e+003,2.741031e-004
3.801071e+003,9.062774e-004
3.802999e+003,7.899292e-004
3.804927e+003,-5.669892e-005
3.806856e+003,1.944415e-004
3.808785e+003,-4.205480e-005
3.810713e+003,-1.255646e-004
3.812642e+003,1.115389e-004
3.814570e+003,5.995147e-004
3.816499e+003,8.890703e-004
3.818427e+003,7.105917e-004
3.820355e+003,1.115013e-003
3.822284e+003,1.392763e-003
3.824213e+003,5.837381e-004
3.826141e+003,5.915426e-004
3.828070e+003,6.351061e-004
3.829998e+003,6.222501e-004
3.831927e+003,9.308271e-004
3.833855e+003,8.577853e-004
3.835783e+003,6.529093e-004
3.837712e+003,1.115859e-003
3.839641e+003,2.045695e-003
3.841569e+003,1.454797e-003
3.843498e+003,6.932057e-004
3.845426e+003,-1.036637e-004
3.847354e+003,-6.313995e-005
3.849283e+003,9.006150e-004
3.851211e+003,1.538455e-003
3.853140e+003,1.909111e-003
3.855069e+003,7.245727e-004
3.856997e+003,3.174841e-004
3.858926e+003,5.248338e-004
3.860854e+003,9.344593e-004
3.862782e+003,8.131862e-004
3.864711e+003,9.515509e-004
3.866640e+003,5.382299e-004
3.868568e+003,1.577731e-003
3.870497e+003,2.139866e-003
3.872425e+003,9.078942e-004
3.874354e+003,4.659481e-004
3.876282e+003,4.560910e-004
3.878210e+003,5.090721e-004
3.880139e+003,1.612879e-003
3.882068e+003,1.060165e-003
3.883996e+003,5.068034e-004
3.885925e+003,9.902604e-004
3.887853e+003,8.762404e-004
3.889781e+003,8.198842e-004
3.891710e+003,1.222156e-003
3.893638e+003,6.577745e-004
3.895567e+003,3.294870e-004
3.897496e+003,8.693449e-004
3.899424e+003,1.500722e-003
3.901353e+003,1.554955e-003
3.903281e+003,1.614809e-003
3.905209e+003,1.431759e-003
3.907138e+003,8.077845e-004
3.909066e+003,3.852844e-004
3.910995e+003,2.665743e-004
3.912924e+003,2.277754e-004
3.914852e+003,4.548132e-004
3.916781e+003,7.820725e-004
3.918709e+003,8.955486e-004
3.920637e+003,8.043312e-004
3.922566e+003,8.829944e-004
3.924494e+003,9.565391e-004
3.926423e+003,5.346946e-004
3.928352e+003,4.974566e-004
3.930280e+003,9.598508e-004
3.932208e+003,1.016598e-003
3.934137e+003,3.237575e-004
3.936065e+003,-4.073605e-005
3.937994e+003,1.522861e-004
3.939922e+003,1.603812e-004
3.941851e+003,1.646094e-004
3.943780e+003,-3.196299e-006
3.945708e+003,-6.968901e-005
3.947636e+003,4.541464e-004
3.949565e+003,4.828162e-004
3.951493e+003,-4.540011e-005
3.953422e+003,-1.750328e-004
3.955351e+003,6.229430e-005
3.957279e+003,2.529584e-004
3.959208e+003,3.048517e-004
3.961136e+003,3.658235e-004
3.963064e+003,2.026334e-004
3.964993e+003,2.502650e-005
3.966921e+003,1.206994e-004
3.968850e+003,2.551749e-004
3.970779e+003,2.756454e-004
3.972707e+003,4.084483e-004
3.974635e+003,4.079379e-004
3.976564e+003,2.581142e-004
3.978492e+003,2.091341e-004
3.980421e+003,1.983792e-004
3.982349e+003,1.964085e-004
3.984278e+003,2.507493e-004
3.986207e+003,1.894757e-004
3.988135e+003,2.551116e-004
3.990063e+003,3.440008e-004
3.991992e+003,1.824275e-004
3.993920e+003,4.906580e-005
3.995849e+003,-2.264231e-005
3.997777e+003,-3.112853e-005
3.999706e+003,-4.873052e-005
4.001635e+003,0.000000e+000
