3.991992e+002,0.000000e+000
4.011277e+002,0.000000e+000
4.030562e+002,0.000000e+000
4.049846e+002,0.000000e+000
4.069131e+002,0.000000e+000
4.088416e+002,0.000000e+000
4.107701e+002,0.000000e+000
4.126986e+002,0.000000e+000
4.146271e+002,0.000000e+000
4.165556e+002,0.000000e+000
4.184841e+002,0.000000e+000
4.204126e+002,0.000000e+000
4.223411e+002,0.000000e+000
4.242697e+002,0.000000e+000
4.261982e+002,0.000000e+000
4.281266e+002,0.000000e+000
4.300551e+002,0.000000e+000
4.319836e+002,0.000000e+000
4.339121e+002,0.000000e+000
4.358406e+002,0.000000e+000
4.377691e+002,0.000000e+000
4.396976e+002,0.000000e+000
4.416261e+002,0.000000e+000
4.435546e+002,0.000000e+000
4.454831e+002,0.000000e+000
4.474116e+002,0.000000e+000
4.493401e+002,0.000000e+000
4.512686e+002,0.000000e+000
4.531971e+002,0.000000e+000
4.551256e+002,0.000000e+000
4.570541e+002,0.000000e+000
4.589826e+002,0.000000e+000
4.609111e+002,0.000000e+000
4.628396e+002,0.000000e+000
4.647681e+002,0.000000e+000
4.666966e+002,0.000000e+000
4.686251e+002,0.000000e+000
4.705536e+002,0.000000e+000
4.724821e+002,0.000000e+000
4.744106e+002,0.000000e+000
4.763391e+002,0.000000e+000
4.782676e+002,0.000000e+000
4.801961e+002,0.000000e+000
4.821246e+002,0.000000e+000
4.840531e+002,0.000000e+000
4.859816e+002,0.000000e+000
4.879101e+002,0.000000e+000
4.898386e+002,0.000000e+000
4.917671e+002,0.000000e+000
4.936956e+002,0.000000e+000
4.956241e+002,0.000000e+000
4.975526e+002,0.000000e+000
4.994811e+002,0.000000e+000
5.014096e+002,0.000000e+000
5.033381e+002,0.000000e+000
5.052666e+002,0.000000e+000
5.071951e+002,0.000000e+000
5.091236e+002,0.000000e+000
5.110521e+002,0.000000e+000
5.129806e+002,0.000000e+000
5.149091e+002,0.000000e+000
5.168376e+002,0.000000e+000
5.187661e+002,0.000000e+000
5.206946e+002,0.000000e+000
5.226230e+002,0.000000e+000
5.245516e+002,-2.328586e-004
5.264800e+002,-9.745173e-005
5.284086e+002,-9.417720e-005
5.303370e+002,-2.022907e-004
5.322656e+002,-1.345724e-004
5.341940e+002,-1.824033e-004
5.361226e+002,-2.061967e-004
5.380510e+002,-1.751743e-004
5.399796e+002,-1.625419e-004
5.419081e+002,-3.006812e-004
5.438365e+002,-2.762508e-004
5.457650e+002,-2.679285e-004
5.476935e+002,-1.784638e-004
5.496221e+002,-4.901364e-005
5.515505e+002,3.946945e-006
5.534790e+002,8.435920e-005
5.554075e+002,1.571067e-004
5.573361e+002,1.616590e-005
5.592645e+002,-9.218976e-005
5.611931e+002,-8.594990e-005
5.631215e+002,7.078238e-005
5.650500e+002,1.100134e-004
5.669785e+002,3.485195e-005
5.689070e+002,-6.738864e-005
5.708355e+002,-2.183020e-006
5.727640e+002,-9.642914e-006
5.746925e+002,-7.693097e-005
5.766210e+002,-1.328047e-004
5.785495e+002,-1.672544e-004
5.804780e+002,-2.236366e-004
5.824065e+002,-1.579672e-004
5.843350e+002,-1.519155e-004
5.862635e+002,-1.511909e-004
5.881920e+002,-2.126116e-004
5.901205e+002,-2.724752e-004
5.920490e+002,-3.574863e-004
5.939775e+002,-2.254695e-004
5.959060e+002,-4.755147e-005
5.978345e+002,1.757033e-005
5.997630e+002,-3.558584e-005
6.016915e+002,1.367554e-005
6.036200e+002,5.327165e-006
6.055485e+002,2.902746e-005
6.074770e+002,-1.020730e-005
6.094055e+002,-1.088902e-005
6.113340e+002,-4.181080e-005
6.132625e+002,-1.141261e-004
6.151910e+002,-1.719818e-004
6.171195e+002,-1.943633e-004
6.190480e+002,-1.964308e-004
6.209765e+002,-1.722947e-005
6.229050e+002,1.332443e-004
6.248335e+002,1.279954e-004
6.267620e+002,6.730296e-005
6.286905e+002,1.133755e-004
6.306190e+002,2.008453e-004
6.325475e+002,3.233589e-004
6.344760e+002,3.565997e-004
6.364045e+002,4.506651e-004
6.383330e+002,4.231650e-004
6.402615e+002,4.765261e-004
6.421899e+002,5.740169e-004
6.441185e+002,5.475488e-004
6.460470e+002,4.012007e-004
6.479755e+002,4.984904e-004
6.499039e+002,5.758684e-004
6.518325e+002,6.352868e-004
6.537610e+002,6.117634e-004
6.556895e+002,6.332267e-004
6.576179e+002,6.700363e-004
6.595464e+002,7.287506e-004
6.614750e+002,6.536879e-004
6.634034e+002,7.241610e-004
6.653319e+002,7.548053e-004
6.672604e+002,7.449873e-004
6.691890e+002,8.113272e-004
6.711174e+002,1.066526e-003
6.730460e+002,1.155635e-003
6.749745e+002,1.245338e-003
6.769030e+002,1.402017e-003
6.788314e+002,1.602834e-003
6.807599e+002,1.650993e-003
6.826885e+002,1.853965e-003
6.846169e+002,2.042985e-003
6.865454e+002,2.292996e-003
6.884739e+002,2.488095e-003
6.904025e+002,2.814924e-003
6.923309e+002,3.104845e-003
6.942594e+002,3.579080e-003
6.961879e+002,4.037648e-003
6.981165e+002,4.770046e-003
7.000449e+002,5.730590e-003
7.019734e+002,7.093700e-003
7.039019e+002,8.706592e-003
7.058304e+002,1.098694e-002
7.077589e+002,1.402870e-002
7.096874e+002,1.863215e-002
7.116159e+002,2.593397e-002
7.135444e+002,3.952120e-002
7.154729e+002,6.435918e-002
7.174014e+002,1.002386e-001
7.193299e+002,1.153879e-001
7.212584e+002,8.582877e-002
7.231869e+002,5.698035e-002
7.251154e+002,4.656800e-002
7.270439e+002,5.052049e-002
7.289724e+002,6.600299e-002
7.309009e+002,6.351411e-002
7.328294e+002,3.658254e-002
7.347579e+002,1.852290e-002
7.366864e+002,1.215520e-002
7.386149e+002,9.537630e-003
7.405434e+002,7.958762e-003
7.424719e+002,7.023247e-003
7.444004e+002,6.229697e-003
7.463289e+002,5.654054e-003
7.482574e+002,5.107954e-003
7.501859e+002,4.800079e-003
7.521144e+002,4.535891e-003
7.540428e+002,4.251163e-003
7.559714e+002,3.904583e-003
7.578999e+002,3.674844e-003
7.598284e+002,3.440190e-003
7.617568e+002,3.210593e-003
7.636854e+002,2.951171e-003
7.656139e+002,2.874548e-003
7.675424e+002,2.816703e-003
7.694709e+002,2.674669e-003
7.713994e+002,2.485001e-003
7.733279e+002,2.402317e-003
7.752563e+002,2.246588e-003
7.771849e+002,2.139138e-003
7.791134e+002,2.126686e-003
7.810419e+002,2.145482e-003
7.829703e+002,2.134763e-003
7.848989e+002,2.065824e-003
7.868274e+002,2.000419e-003
7.887559e+002,2.002975e-003
7.906843e+002,2.023155e-003
7.926129e+002,2.000596e-003
7.945414e+002,1.964414e-003
7.964698e+002,1.952799e-003
7.983983e+002,1.953932e-003
8.003268e+002,1.985297e-003
8.022554e+002,1.979705e-003
8.041838e+002,1.961773e-003
8.061123e+002,1.917617e-003
8.080408e+002,1.827460e-003
8.099694e+002,1.719216e-003
8.118978e+002,1.591615e-003
8.138263e+002,1.547327e-003
8.157548e+002,1.496829e-003
8.176833e+002,1.396557e-003
8.196118e+002,1.332521e-003
8.215403e+002,1.331646e-003
8.234689e+002,1.335083e-003
8.253973e+002,1.308322e-003
8.273258e+002,1.288179e-003
8.292543e+002,1.278929e-003
8.311829e+002,1.188878e-003
8.331113e+002,1.154223e-003
8.350398e+002,1.187140e-003
8.369683e+002,1.198657e-003
8.388969e+002,1.246240e-003
8.408253e+002,1.310311e-003
8.427538e+002,1.314094e-003
8.446823e+002,1.307841e-003
8.466108e+002,1.324320e-003
8.485393e+002,1.375362e-003
8.504678e+002,1.445873e-003
8.523963e+002,1.432395e-003
8.543248e+002,1.365140e-003
8.562533e+002,1.389511e-003
8.581818e+002,1.381105e-003
8.601103e+002,1.402799e-003
8.620388e+002,1.424961e-003
8.639673e+002,1.456147e-003
8.658958e+002,1.471048e-003
8.678243e+002,1.455130e-003
8.697528e+002,1.392076e-003
8.716813e+002,1.402868e-003
8.736098e+002,1.452098e-003
8.755383e+002,1.544621e-003
8.774668e+002,1.635443e-003
8.793953e+002,1.695793e-003
8.813238e+002,1.743222e-003
8.832523e+002,1.758646e-003
8.851808e+002,1.848668e-003
8.871093e+002,1.962939e-003
8.890378e+002,2.002623e-003
8.909663e+002,1.972822e-003
8.928948e+002,1.832314e-003
8.948232e+002,1.716927e-003
8.967518e+002,1.632363e-003
8.986803e+002,1.629369e-003
9.006088e+002,1.682965e-003
9.025372e+002,1.856480e-003
9.044658e+002,2.155965e-003
9.063943e+002,2.598500e-003
9.083228e+002,2.862381e-003
9.102512e+002,2.666207e-003
9.121797e+002,2.277177e-003
9.141083e+002,1.969658e-003
9.160367e+002,1.714395e-003
9.179653e+002,1.620421e-003
9.198937e+002,1.568029e-003
9.218223e+002,1.566034e-003
9.237507e+002,1.524920e-003
9.256793e+002,1.475655e-003
9.276077e+002,1.473736e-003
9.295363e+002,1.557820e-003
9.314647e+002,1.654232e-003
9.333932e+002,1.672382e-003
9.353217e+002,1.592699e-003
9.372502e+002,1.572652e-003
9.391787e+002,1.556788e-003
9.411072e+002,1.548484e-003
9.430358e+002,1.540387e-003
9.449642e+002,1.572544e-003
9.468928e+002,1.587950e-003
9.488212e+002,1.648791e-003
9.507498e+002,1.733525e-003
9.526782e+002,1.842754e-003
9.546068e+002,1.891008e-003
9.565352e+002,1.971548e-003
9.584637e+002,2.059050e-003
9.603922e+002,2.232026e-003
9.623207e+002,2.305491e-003
9.642492e+002,2.354927e-003
9.661777e+002,2.401238e-003
9.681062e+002,2.425803e-003
9.700347e+002,2.399823e-003
9.719632e+002,2.428332e-003
9.738917e+002,2.433727e-003
9.758202e+002,2.466513e-003
9.777487e+002,2.481695e-003
9.796772e+002,2.543891e-003
9.816057e+002,2.623159e-003
9.835342e+002,2.726346e-003
9.854627e+002,2.810039e-003
9.873912e+002,2.989199e-003
9.893197e+002,3.157750e-003
9.912482e+002,3.278568e-003
9.931767e+002,3.312878e-003
9.951052e+002,3.362786e-003
9.970337e+002,3.384318e-003
9.989622e+002,3.438171e-003
1.000891e+003,3.483362e-003
1.002819e+003,3.601391e-003
1.004748e+003,3.721010e-003
1.006676e+003,3.888518e-003
1.008605e+003,4.025504e-003
1.010533e+003,4.188687e-003
1.012462e+003,4.376829e-003
1.014390e+003,4.569724e-003
1.016319e+003,4.692610e-003
1.018247e+003,4.881747e-003
1.020176e+003,5.024210e-003
1.022104e+003,5.096383e-003
1.024033e+003,5.153470e-003
1.025961e+003,5.276021e-003
1.027890e+003,5.357828e-003
1.029818e+003,5.505446e-003
1.031747e+003,5.651452e-003
1.033675e+003,5.775735e-003
1.035604e+003,5.788330e-003
1.037532e+003,5.857464e-003
1.039461e+003,5.918138e-003
1.041389e+003,6.004047e-003
1.043318e+003,6.022226e-003
1.045246e+003,6.097101e-003
1.047175e+003,6.263882e-003
1.049103e+003,6.513890e-003
1.051032e+003,6.604392e-003
1.052960e+003,6.620917e-003
1.054889e+003,6.578431e-003
1.056817e+003,6.621707e-003
1.058746e+003,6.725758e-003
1.060674e+003,6.843839e-003
1.062603e+003,6.871752e-003
1.064531e+003,6.947946e-003
1.066460e+003,6.940849e-003
1.068388e+003,6.918333e-003
1.070317e+003,6.945074e-003
1.072245e+003,7.142410e-003
1.074174e+003,7.387500e-003
1.076102e+003,7.639997e-003
1.078031e+003,7.815767e-003
1.079959e+003,7.983964e-003
1.081888e+003,8.066796e-003
1.083816e+003,8.111507e-003
1.085745e+003,8.083101e-003
1.087673e+003,8.112047e-003
1.089602e+003,8.181028e-003
1.091530e+003,8.286882e-003
1.093459e+003,8.280322e-003
1.095387e+003,8.296404e-003
1.097316e+003,8.247498e-003
1.099244e+003,8.211017e-003
1.101173e+003,8.094605e-003
1.103101e+003,7.964604e-003
1.105030e+003,7.814508e-003
1.106958e+003,7.753965e-003
1.108887e+003,7.705860e-003
1.110815e+003,7.710788e-003
1.112744e+003,7.724583e-003
1.114672e+003,7.795837e-003
1.116601e+003,7.773437e-003
1.118529e+003,7.731631e-003
1.120458e+003,7.609669e-003
1.122386e+003,7.459942e-003
1.124315e+003,7.252142e-003
1.126243e+003,7.111404e-003
1.128172e+003,7.072069e-003
1.130100e+003,7.153884e-003
1.132029e+003,7.240642e-003
1.133957e+003,7.492922e-003
1.135885e+003,7.783540e-003
1.137814e+003,8.132420e-003
1.139743e+003,8.405305e-003
1.141671e+003,8.697066e-003
1.143600e+003,8.951869e-003
1.145528e+003,9.247705e-003
1.147457e+003,9.572063e-003
1.149385e+003,1.001067e-002
1.151314e+003,1.053704e-002
1.153242e+003,1.113981e-002
1.155171e+003,1.165221e-002
1.157099e+003,1.211663e-002
1.159028e+003,1.243928e-002
1.160956e+003,1.266593e-002
1.162885e+003,1.271078e-002
1.164813e+003,1.260945e-002
1.166742e+003,1.227118e-002
1.168670e+003,1.187089e-002
1.170599e+003,1.138704e-002
1.172527e+003,1.099166e-002
1.174456e+003,1.063966e-002
1.176384e+003,1.035225e-002
1.178313e+003,9.923842e-003
1.180241e+003,9.447500e-003
1.182170e+003,9.069327e-003
1.184098e+003,8.850902e-003
1.186027e+003,8.708313e-003
1.187955e+003,8.634642e-003
1.189884e+003,8.520201e-003
1.191812e+003,8.461237e-003
1.193740e+003,8.444343e-003
1.195669e+003,8.437026e-003
1.197598e+003,8.406848e-003
1.199526e+003,8.468755e-003
1.201455e+003,8.535430e-003
1.203383e+003,8.680433e-003
1.205312e+003,8.849677e-003
1.207240e+003,9.095225e-003
1.209168e+003,9.359177e-003
1.211097e+003,9.619758e-003
1.213026e+003,9.772372e-003
1.214954e+003,1.000425e-002
1.216883e+003,1.023132e-002
1.218811e+003,1.049858e-002
1.220740e+003,1.071250e-002
1.222668e+003,1.095333e-002
1.224596e+003,1.119724e-002
1.226525e+003,1.146722e-002
1.228453e+003,1.167004e-002
1.230382e+003,1.195055e-002
1.232311e+003,1.218288e-002
1.234239e+003,1.237934e-002
1.236167e+003,1.244810e-002
1.238096e+003,1.249237e-002
1.240025e+003,1.242512e-002
1.241953e+003,1.233643e-002
1.243882e+003,1.212234e-002
1.245810e+003,1.186795e-002
1.247739e+003,1.148941e-002
1.249667e+003,1.116315e-002
1.251595e+003,1.084850e-002
1.253524e+003,1.063279e-002
1.255453e+003,1.043145e-002
1.257381e+003,1.029195e-002
1.259310e+003,1.009033e-002
1.261238e+003,9.951435e-003
1.263167e+003,9.760126e-003
1.265095e+003,9.580035e-003
1.267023e+003,9.371396e-003
1.268952e+003,9.272896e-003
1.270880e+003,9.190198e-003
1.272809e+003,9.226866e-003
1.274738e+003,9.218261e-003
1.276666e+003,9.262256e-003
1.278594e+003,9.294044e-003
1.280523e+003,9.389188e-003
1.282451e+003,9.427048e-003
1.284380e+003,9.522878e-003
1.286308e+003,9.583667e-003
1.288237e+003,9.763923e-003
1.290166e+003,9.958282e-003
1.292094e+003,1.030915e-002
1.294022e+003,1.070535e-002
1.295951e+003,1.116963e-002
1.297879e+003,1.151230e-002
1.299808e+003,1.180049e-002
1.301736e+003,1.186791e-002
1.303665e+003,1.191766e-002
1.305594e+003,1.183156e-002
1.307522e+003,1.170327e-002
1.309450e+003,1.138394e-002
1.311379e+003,1.106000e-002
1.313307e+003,1.060851e-002
1.315236e+003,1.018514e-002
1.317164e+003,9.706236e-003
1.319093e+003,9.308990e-003
1.321021e+003,8.836146e-003
1.322950e+003,8.493666e-003
1.324878e+003,8.143134e-003
1.326807e+003,7.980473e-003
1.328735e+003,7.906832e-003
1.330664e+003,7.993720e-003
1.332592e+003,8.153774e-003
1.334521e+003,8.599304e-003
1.336449e+003,9.153515e-003
1.338378e+003,9.974539e-003
1.340306e+003,1.073198e-002
1.342235e+003,1.126903e-002
1.344163e+003,1.167410e-002
1.346092e+003,1.233735e-002
1.348021e+003,1.304304e-002
1.349949e+003,1.379021e-002
1.351877e+003,1.417905e-002
1.353806e+003,1.424713e-002
1.355734e+003,1.403527e-002
1.357663e+003,1.410329e-002
1.359591e+003,1.443583e-002
1.361520e+003,1.523047e-002
1.363448e+003,1.645862e-002
1.365377e+003,1.765579e-002
1.367305e+003,1.841826e-002
1.369234e+003,1.848581e-002
1.371162e+003,1.749268e-002
1.373091e+003,1.641475e-002
1.375019e+003,1.609528e-002
1.376948e+003,1.620970e-002
1.378876e+003,1.456447e-002
1.380805e+003,1.177777e-002
1.382733e+003,9.600677e-003
1.384662e+003,8.583177e-003
1.386590e+003,7.919230e-003
1.388519e+003,7.584848e-003
1.390447e+003,7.248323e-003
1.392376e+003,7.194251e-003
1.394304e+003,7.026806e-003
1.396233e+003,7.124633e-003
1.398161e+003,7.046282e-003
1.400090e+003,7.259753e-003
1.402018e+003,7.199988e-003
1.403947e+003,7.394657e-003
1.405875e+003,7.382840e-003
1.407804e+003,7.611472e-003
1.409732e+003,7.731672e-003
1.411661e+003,8.197449e-003
1.413589e+003,8.410536e-003
1.415518e+003,8.862264e-003
1.417446e+003,9.056546e-003
1.419375e+003,9.789810e-003
1.421303e+003,1.011780e-002
1.423232e+003,1.109729e-002
1.425160e+003,1.249274e-002
1.427089e+003,1.438446e-002
1.429017e+003,1.681872e-002
1.430946e+003,2.060756e-002
1.432874e+003,2.370254e-002
1.434803e+003,2.653959e-002
1.436731e+003,2.963199e-002
1.438660e+003,3.238739e-002
1.440588e+003,3.382449e-002
1.442517e+003,3.582012e-002
1.444445e+003,3.732716e-002
1.446374e+003,3.967103e-002
1.448302e+003,4.314899e-002
1.450231e+003,4.858577e-002
1.452159e+003,5.673409e-002
1.454088e+003,6.734422e-002
1.456016e+003,7.811455e-002
1.457945e+003,1.044090e-001
1.459873e+003,1.501516e-001
1.461802e+003,1.931781e-001
1.463730e+003,1.904577e-001
1.465659e+003,1.481891e-001
1.467587e+003,1.349165e-001
1.469516e+003,1.311761e-001
1.471444e+003,1.474635e-001
1.473373e+003,1.323360e-001
1.475301e+003,7.254855e-002
1.477230e+003,3.252271e-002
1.479158e+003,2.092175e-002
1.481087e+003,1.550148e-002
1.483015e+003,1.307161e-002
1.484944e+003,1.111036e-002
1.486872e+003,1.052295e-002
1.488801e+003,9.150315e-003
1.490729e+003,8.891318e-003
1.492658e+003,7.855386e-003
1.494586e+003,7.825997e-003
1.496515e+003,7.094897e-003
1.498443e+003,7.165805e-003
1.500372e+003,6.607473e-003
1.502300e+003,6.702989e-003
1.504229e+003,6.171081e-003
1.506157e+003,6.423917e-003
1.508086e+003,5.908005e-003
1.510014e+003,6.349511e-003
1.511943e+003,6.049447e-003
1.513871e+003,6.268851e-003
1.515800e+003,6.104197e-003
1.517728e+003,6.446090e-003
1.519657e+003,6.075375e-003
1.521585e+003,6.505243e-003
1.523514e+003,6.100677e-003
1.525442e+003,6.305225e-003
1.527371e+003,6.209549e-003
1.529299e+003,6.420877e-003
1.531228e+003,6.239522e-003
1.533156e+003,6.555893e-003
1.535085e+003,6.489165e-003
1.537013e+003,6.661654e-003
1.538942e+003,6.454475e-003
1.540870e+003,6.966650e-003
1.542799e+003,6.713804e-003
1.544727e+003,6.901808e-003
1.546656e+003,6.532308e-003
1.548584e+003,6.512724e-003
1.550513e+003,6.304558e-003
1.552441e+003,6.296501e-003
1.554370e+003,6.011210e-003
1.556298e+003,5.999602e-003
1.558227e+003,5.587202e-003
1.560155e+003,5.720396e-003
1.562084e+003,5.331535e-003
1.564012e+003,5.342565e-003
1.565941e+003,5.128209e-003
1.567869e+003,5.107053e-003
1.569798e+003,4.998054e-003
1.571726e+003,5.113158e-003
1.573655e+003,4.950080e-003
1.575583e+003,5.048383e-003
1.577512e+003,4.948627e-003
1.579440e+003,4.943702e-003
1.581369e+003,4.811250e-003
1.583297e+003,4.834458e-003
1.585226e+003,4.747640e-003
1.587154e+003,4.816659e-003
1.589083e+003,4.798729e-003
1.591011e+003,4.831035e-003
1.592940e+003,4.682366e-003
1.594868e+003,4.725121e-003
1.596797e+003,4.697669e-003
1.598725e+003,4.798960e-003
1.600654e+003,4.759442e-003
1.602582e+003,4.816372e-003
1.604511e+003,4.739758e-003
1.606439e+003,4.823975e-003
1.608368e+003,4.838675e-003
1.610296e+003,4.998650e-003
1.612225e+003,5.040176e-003
1.614153e+003,5.206522e-003
1.616082e+003,5.361572e-003
1.618010e+003,5.714059e-003
1.619939e+003,5.648613e-003
1.621867e+003,5.784974e-003
1.623796e+003,5.990695e-003
1.625724e+003,6.227959e-003
1.627653e+003,6.374527e-003
1.629581e+003,6.672386e-003
1.631510e+003,6.786741e-003
1.633438e+003,7.000245e-003
1.635367e+003,7.319283e-003
1.637295e+003,7.848468e-003
1.639224e+003,7.814616e-003
1.641152e+003,8.005023e-003
1.643081e+003,8.078039e-003
1.645009e+003,8.158490e-003
1.646938e+003,8.247651e-003
1.648866e+003,8.482616e-003
1.650795e+003,8.336022e-003
1.652723e+003,8.379187e-003
1.654652e+003,8.440949e-003
1.656580e+003,8.460924e-003
1.658509e+003,8.323219e-003
1.660437e+003,8.198552e-003
1.662366e+003,7.871777e-003
1.664294e+003,7.742446e-003
1.666223e+003,7.536598e-003
1.668151e+003,7.368919e-003
1.670080e+003,6.853752e-003
1.672008e+003,6.699268e-003
1.673937e+003,6.423708e-003
1.675865e+003,6.275948e-003
1.677794e+003,5.991604e-003
1.679722e+003,5.875740e-003
1.681651e+003,5.625870e-003
1.683579e+003,5.460631e-003
1.685508e+003,5.097795e-003
1.687436e+003,5.004328e-003
1.689365e+003,4.778322e-003
1.691293e+003,4.619211e-003
1.693222e+003,4.362751e-003
1.695150e+003,4.447572e-003
1.697079e+003,4.466139e-003
1.699007e+003,4.351322e-003
1.700936e+003,4.175302e-003
1.702864e+003,4.170891e-003
1.704793e+003,4.039928e-003
1.706721e+003,4.419591e-003
1.708650e+003,4.537575e-003
1.710578e+003,4.781231e-003
1.712507e+003,4.942100e-003
1.714435e+003,5.175736e-003
1.716364e+003,5.153909e-003
1.718292e+003,5.579937e-003
1.720221e+003,5.801458e-003
1.722149e+003,6.013136e-003
1.724078e+003,6.260309e-003
1.726006e+003,6.632540e-003
1.727935e+003,6.983425e-003
1.729863e+003,7.709820e-003
1.731792e+003,8.227430e-003
1.733720e+003,9.485312e-003
1.735649e+003,1.129037e-002
1.737577e+003,1.239764e-002
1.739506e+003,1.397953e-002
1.741434e+003,1.545934e-002
1.743363e+003,1.660812e-002
1.745291e+003,1.759029e-002
1.747220e+003,1.782837e-002
1.749148e+003,1.710026e-002
1.751077e+003,1.500447e-002
1.753005e+003,1.249269e-002
1.754934e+003,1.038684e-002
1.756862e+003,8.027982e-003
1.758791e+003,6.077934e-003
1.760719e+003,4.969068e-003
1.762648e+003,3.707200e-003
1.764576e+003,2.928495e-003
1.766505e+003,2.437618e-003
1.768433e+003,2.158739e-003
1.770362e+003,1.825865e-003
1.772290e+003,1.804851e-003
1.774219e+003,1.456026e-003
1.776147e+003,1.195733e-003
1.778076e+003,9.967163e-004
1.780004e+003,9.985492e-004
1.781933e+003,8.780323e-004
1.783861e+003,8.704290e-004
1.785790e+003,7.518455e-004
1.787718e+003,7.679909e-004
1.789646e+003,6.428175e-004
1.791575e+003,6.308258e-004
1.793504e+003,5.294830e-004
1.795432e+003,5.640164e-004
1.797361e+003,4.224963e-004
1.799289e+003,5.015321e-004
1.801218e+003,4.600808e-004
1.803146e+003,3.914051e-004
1.805074e+003,2.504103e-004
1.807003e+003,2.896488e-004
1.808932e+003,1.783818e-004
1.810860e+003,1.740456e-004
1.812789e+003,4.805624e-007
1.814717e+003,-1.566224e-004
1.816646e+003,-4.385486e-004
1.818574e+003,-1.524128e-004
1.820502e+003,1.382083e-006
1.822431e+003,5.741790e-005
1.824360e+003,-9.239092e-005
1.826288e+003,-2.051145e-004
1.828217e+003,-5.803593e-004
1.830145e+003,-5.952083e-004
1.832073e+003,-6.614514e-004
1.834002e+003,-6.260239e-004
1.835931e+003,-6.616376e-004
1.837859e+003,-5.993918e-004
1.839788e+003,-7.892661e-004
1.841716e+003,-8.064434e-004
1.843645e+003,-1.000807e-003
1.845573e+003,-7.845126e-004
1.847501e+003,-9.430647e-004
1.849430e+003,-1.000088e-003
1.851359e+003,-1.057111e-003
1.853287e+003,-8.941591e-004
1.855216e+003,-9.457059e-004
1.857144e+003,-8.610338e-004
1.859073e+003,-9.544268e-004
1.861001e+003,-1.029547e-003
1.862929e+003,-1.190033e-003
1.864858e+003,-9.129681e-004
1.866787e+003,-9.304099e-004
1.868715e+003,-7.277019e-004
1.870644e+003,-9.826683e-004
1.872572e+003,-9.633526e-004
1.874500e+003,-1.047611e-003
1.876429e+003,-1.033433e-003
1.878357e+003,-1.206059e-003
1.880286e+003,-1.145020e-003
1.882215e+003,-1.325078e-003
1.884143e+003,-1.318090e-003
1.886072e+003,-1.356173e-003
1.888000e+003,-1.121383e-003
1.889928e+003,-1.115173e-003
1.891857e+003,-6.861538e-004
1.893785e+003,-7.620864e-004
1.895714e+003,-6.616600e-004
1.897643e+003,-7.217042e-004
1.899571e+003,-7.612742e-004
1.901500e+003,-7.535331e-004
1.903428e+003,-7.457919e-004
1.905356e+003,-7.380694e-004
1.907285e+003,-7.303581e-004
1.909213e+003,-7.226579e-004
1.911142e+003,-7.149652e-004
1.913071e+003,-7.072836e-004
1.914999e+003,-6.996170e-004
1.916927e+003,-6.919540e-004
1.918856e+003,-6.843023e-004
1.920784e+003,-6.766692e-004
1.922713e+003,-6.690435e-004
1.924641e+003,-6.614253e-004
1.926570e+003,-6.538220e-004
1.928499e+003,-6.462298e-004
1.930427e+003,-6.386489e-004
1.932355e+003,-6.310716e-004
1.934284e+003,-6.235093e-004
1.936212e+003,-6.159544e-004
1.938141e+003,-6.084181e-004
1.940070e+003,-6.008856e-004
1.941998e+003,-5.933642e-004
1.943927e+003,-5.858615e-004
1.945855e+003,-5.783625e-004
1.947783e+003,-5.708709e-004
1.949712e+003,-5.633980e-004
1.951640e+003,-5.559362e-004
1.953569e+003,-5.484782e-004
1.955498e+003,-5.410314e-004
1.957426e+003,-5.335994e-004
1.959354e+003,-5.261786e-004
1.961283e+003,-5.187653e-004
1.963211e+003,-5.113669e-004
1.965140e+003,-5.039759e-004
1.967068e+003,-4.965998e-004
1.968997e+003,-4.892312e-004
1.970926e+003,-4.818663e-004
1.972854e+003,-4.745238e-004
1.974782e+003,-4.671849e-004
1.976711e+003,-4.598647e-004
1.978639e+003,-4.525483e-004
1.980568e+003,-4.452430e-004
1.982496e+003,-4.379526e-004
1.984425e+003,-4.306659e-004
1.986354e+003,-4.233979e-004
1.988282e+003,-4.161336e-004
1.990210e+003,-4.088841e-004
1.992139e+003,-4.016384e-004
1.994067e+003,-3.944188e-004
1.995996e+003,-3.872029e-004
1.997924e+003,-3.799945e-004
1.999853e+003,-3.727935e-004
2.001781e+003,-3.656112e-004
2.003710e+003,-3.584325e-004
2.005638e+003,-3.512688e-004
2.007567e+003,-3.441162e-004
2.009495e+003,-3.369749e-004
2.011424e+003,-3.298409e-004
2.013352e+003,-3.227182e-004
2.015281e+003,-3.156103e-004
2.017209e+003,-3.085136e-004
2.019138e+003,-3.014244e-004
2.021066e+003,-2.943389e-004
2.022995e+003,-2.872758e-004
2.024923e+003,-2.802238e-004
2.026852e+003,-2.731718e-004
2.028781e+003,-2.661385e-004
2.030709e+003,-2.591200e-004
2.032637e+003,-2.521016e-004
2.034566e+003,-2.451017e-004
2.036494e+003,-2.381057e-004
2.038423e+003,-2.311245e-004
2.040351e+003,-2.241582e-004
2.042280e+003,-2.171919e-004
2.044208e+003,-2.102479e-004
2.046137e+003,-2.033114e-004
2.048065e+003,-1.963787e-004
2.049994e+003,-1.894720e-004
2.051922e+003,-1.825616e-004
2.053851e+003,-1.756586e-004
2.055779e+003,-1.687743e-004
2.057708e+003,-1.619048e-004
2.059636e+003,-1.550391e-004
2.061565e+003,-1.481883e-004
2.063493e+003,-1.413487e-004
2.065422e+003,-1.345165e-004
2.067350e+003,-1.277030e-004
2.069279e+003,-1.208857e-004
2.071207e+003,-1.140870e-004
2.073136e+003,-1.073033e-004
2.075064e+003,-1.005270e-004
2.076993e+003,-9.376183e-005
2.078921e+003,-8.700415e-005
2.080850e+003,-8.026510e-005
2.082778e+003,-7.353351e-005
2.084707e+003,-6.679818e-005
2.086635e+003,-6.009266e-005
2.088564e+003,-5.339086e-005
2.090492e+003,-4.670396e-005
2.092421e+003,-4.002079e-005
2.094349e+003,-3.335252e-005
2.096278e+003,-2.669916e-005
2.098206e+003,-2.004579e-005
2.100135e+003,-1.340732e-005
2.102063e+003,-6.783754e-006
2.103992e+003,-1.676381e-007
2.105920e+003,6.433576e-006
2.107849e+003,1.303107e-005
2.109777e+003,1.960993e-005
2.111706e+003,2.617761e-005
2.113634e+003,3.275275e-005
2.115563e+003,3.930554e-005
2.117491e+003,4.583970e-005
2.119420e+003,5.236268e-005
2.121348e+003,5.888566e-005
2.123277e+003,6.539375e-005
2.125205e+003,7.188693e-005
2.127134e+003,7.836893e-005
2.129062e+003,8.485839e-005
2.130991e+003,9.132177e-005
2.132919e+003,9.777024e-005
2.134848e+003,1.042187e-004
2.136776e+003,1.106448e-004
2.138705e+003,1.170672e-004
2.140633e+003,1.234785e-004
2.142562e+003,1.298822e-004
2.144490e+003,1.362748e-004
2.146419e+003,1.426451e-004
2.148347e+003,1.490153e-004
2.150276e+003,1.553744e-004
2.152204e+003,1.617186e-004
2.154133e+003,1.680516e-004
2.156061e+003,1.743808e-004
2.157990e+003,1.806952e-004
2.159918e+003,1.870021e-004
2.161847e+003,1.932867e-004
2.163775e+003,1.995750e-004
2.165704e+003,2.058372e-004
2.167632e+003,2.120957e-004
2.169561e+003,2.183467e-004
2.171489e+003,2.245866e-004
2.173418e+003,2.308227e-004
2.175346e+003,2.370365e-004
2.177275e+003,2.432428e-004
2.179203e+003,2.494380e-004
2.181132e+003,2.556257e-004
2.183060e+003,2.617948e-004
2.184989e+003,2.679490e-004
2.186917e+003,2.741180e-004
2.188846e+003,2.802573e-004
2.190774e+003,2.863817e-004
2.192703e+003,2.925061e-004
2.194631e+003,2.986118e-004
2.196560e+003,3.047176e-004
2.198488e+003,3.108010e-004
2.200417e+003,3.168881e-004
2.202345e+003,3.229529e-004
2.204274e+003,3.290102e-004
2.206202e+003,3.350526e-004
2.208131e+003,3.410876e-004
2.210059e+003,3.471002e-004
2.211988e+003,3.531128e-004
2.213916e+003,3.591180e-004
2.215845e+003,3.651083e-004
2.217773e+003,3.710985e-004
2.219702e+003,3.770590e-004
2.221630e+003,3.830194e-004
2.223559e+003,3.889725e-004
2.225487e+003,3.949031e-004
2.227416e+003,4.008263e-004
2.229344e+003,4.067495e-004
2.231273e+003,4.126653e-004
2.233201e+003,4.185513e-004
2.235130e+003,4.244372e-004
2.237058e+003,4.303083e-004
2.238987e+003,4.361719e-004
2.240915e+003,4.420131e-004
2.242844e+003,4.478544e-004
2.244772e+003,4.536882e-004
2.246701e+003,4.595071e-004
2.248629e+003,4.653186e-004
2.250558e+003,4.711226e-004
2.252486e+003,4.769117e-004
2.254415e+003,4.826784e-004
2.256343e+003,4.884377e-004
2.258272e+003,4.941896e-004
2.260200e+003,4.999414e-004
2.262129e+003,5.056709e-004
2.264057e+003,5.114004e-004
2.265986e+003,5.171075e-004
2.267914e+003,5.228072e-004
2.269843e+003,5.284995e-004
2.271771e+003,5.341694e-004
2.273700e+003,5.398467e-004
2.275628e+003,5.455017e-004
2.277557e+003,5.511567e-004
2.279485e+003,5.567893e-004
2.281414e+003,5.624145e-004
2.283342e+003,5.680248e-004
2.285271e+003,5.736202e-004
2.287199e+003,5.792156e-004
2.289128e+003,5.848110e-004
2.291056e+003,5.903840e-004
2.292985e+003,5.959347e-004
2.294913e+003,6.014854e-004
2.296842e+003,6.070286e-004
2.298770e+003,6.125569e-004
2.300699e+003,6.180704e-004
2.302627e+003,6.235838e-004
2.304556e+003,6.290823e-004
2.306484e+003,6.345659e-004
2.308413e+003,6.400421e-004
2.310341e+003,6.455034e-004
2.312270e+003,6.509498e-004
2.314198e+003,6.563962e-004
2.316127e+003,6.618202e-004
2.318055e+003,6.672442e-004
2.319984e+003,6.726608e-004
2.321912e+003,6.780550e-004
2.323841e+003,6.834492e-004
2.325769e+003,6.888285e-004
2.327698e+003,6.941929e-004
2.329626e+003,6.995499e-004
2.331555e+003,7.048994e-004
2.333483e+003,7.102340e-004
2.335412e+003,7.155612e-004
2.337340e+003,7.208660e-004
2.339269e+003,7.261708e-004
2.341197e+003,7.314682e-004
2.343126e+003,7.367432e-004
2.345054e+003,7.420108e-004
2.346983e+003,7.472783e-004
2.348911e+003,7.525235e-004
2.350840e+003,7.577613e-004
2.352768e+003,7.629916e-004
2.354697e+003,7.682145e-004
2.356625e+003,7.734150e-004
2.358554e+003,7.786006e-004
2.360482e+003,7.837936e-004
2.362411e+003,7.889643e-004
2.364339e+003,7.941276e-004
2.366268e+003,7.992834e-004
2.368196e+003,8.044243e-004
2.370125e+003,8.095503e-004
2.372053e+003,8.146763e-004
2.373982e+003,8.197725e-004
2.375910e+003,8.248761e-004
2.377839e+003,8.299723e-004
2.379767e+003,8.350462e-004
2.381696e+003,8.401126e-004
2.383624e+003,8.451641e-004
2.385553e+003,8.502081e-004
2.387481e+003,8.552372e-004
2.389410e+003,8.602664e-004
2.391338e+003,8.652806e-004
2.393267e+003,8.702874e-004
2.395195e+003,8.752719e-004
2.397124e+003,8.802488e-004
2.399052e+003,8.852184e-004
2.400981e+003,8.587018e-004
2.402909e+003,7.365048e-004
2.404838e+003,7.688403e-004
2.406766e+003,1.046464e-003
2.408695e+003,1.269050e-003
2.410623e+003,1.143560e-003
2.412552e+003,1.190923e-003
2.414480e+003,1.377448e-003
2.416409e+003,1.550443e-003
2.418337e+003,1.538940e-003
2.420266e+003,1.490019e-003
2.422194e+003,1.329787e-003
2.424123e+003,1.258962e-003
2.426051e+003,1.076132e-003
2.427979e+003,1.146056e-003
2.429908e+003,1.209542e-003
2.431837e+003,1.206525e-003
2.433765e+003,1.188412e-003
2.435694e+003,1.192003e-003
2.437622e+003,1.113214e-003
2.439551e+003,1.177236e-003
2.441479e+003,1.118436e-003
2.443407e+003,1.170263e-003
2.445336e+003,1.258031e-003
2.447265e+003,1.435518e-003
2.449193e+003,1.427121e-003
2.451122e+003,1.445375e-003
2.453050e+003,1.466967e-003
2.454979e+003,1.552179e-003
2.456907e+003,1.365416e-003
2.458836e+003,1.221165e-003
2.460764e+003,1.174241e-003
2.462693e+003,1.204289e-003
2.464621e+003,1.180939e-003
2.466550e+003,1.383111e-003
2.468478e+003,1.609080e-003
2.470406e+003,1.668349e-003
2.472335e+003,1.696423e-003
2.474264e+003,1.837149e-003
2.476192e+003,1.806140e-003
2.478121e+003,1.753733e-003
2.480049e+003,1.661934e-003
2.481978e+003,1.748756e-003
2.483906e+003,1.808435e-003
2.485835e+003,1.891978e-003
2.487763e+003,1.813985e-003
2.489692e+003,1.888826e-003
2.491620e+003,1.913600e-003
2.493549e+003,2.056614e-003
2.495477e+003,2.207823e-003
2.497406e+003,2.249457e-003
2.499334e+003,2.168998e-003
2.501263e+003,2.262019e-003
2.503191e+003,2.287507e-003
2.505120e+003,2.468437e-003
2.507048e+003,2.608597e-003
2.508977e+003,2.575561e-003
2.510905e+003,2.460711e-003
2.512833e+003,2.535909e-003
2.514762e+003,2.623163e-003
2.516691e+003,2.731889e-003
2.518619e+003,2.951778e-003
2.520548e+003,3.107026e-003
2.522476e+003,3.135815e-003
2.524405e+003,3.307022e-003
2.526333e+003,3.360584e-003
2.528261e+003,3.372729e-003
2.530190e+003,3.330722e-003
2.532119e+003,3.280923e-003
2.534047e+003,3.304794e-003
2.535976e+003,3.507696e-003
2.537904e+003,3.586382e-003
2.539833e+003,3.455959e-003
2.541761e+003,3.426127e-003
2.543689e+003,3.790714e-003
2.545618e+003,4.116066e-003
2.547547e+003,4.201382e-003
2.549475e+003,4.297629e-003
2.551404e+003,4.435524e-003
2.553332e+003,4.352234e-003
2.555260e+003,4.409187e-003
2.557189e+003,4.537657e-003
2.559117e+003,4.622847e-003
2.561046e+003,4.606925e-003
2.562975e+003,4.657842e-003
2.564903e+003,4.705451e-003
2.566832e+003,4.874296e-003
2.568760e+003,5.020954e-003
2.570688e+003,5.141333e-003
2.572617e+003,5.180821e-003
2.574546e+003,5.424388e-003
2.576474e+003,5.692899e-003
2.578403e+003,5.888753e-003
2.580331e+003,5.996227e-003
2.582260e+003,6.138295e-003
2.584188e+003,6.375633e-003
2.586116e+003,6.669439e-003
2.588045e+003,6.963462e-003
2.589974e+003,7.194601e-003
2.591902e+003,7.343374e-003
2.593831e+003,7.555597e-003
2.595759e+003,7.716164e-003
2.597688e+003,7.990047e-003
2.599616e+003,8.250870e-003
2.601544e+003,8.413561e-003
2.603473e+003,8.589521e-003
2.605402e+003,8.996569e-003
2.607330e+003,9.306721e-003
2.609259e+003,9.537183e-003
2.611187e+003,9.728968e-003
2.613115e+003,1.007203e-002
2.615044e+003,1.047949e-002
2.616972e+003,1.086619e-002
2.618901e+003,1.113805e-002
2.620830e+003,1.153469e-002
2.622758e+003,1.202174e-002
2.624687e+003,1.244074e-002
2.626615e+003,1.276720e-002
2.628543e+003,1.316953e-002
2.630472e+003,1.353930e-002
2.632400e+003,1.393820e-002
2.634329e+003,1.422250e-002
2.636258e+003,1.435617e-002
2.638186e+003,1.436052e-002
2.640115e+003,1.435106e-002
2.642043e+003,1.430832e-002
2.643971e+003,1.429317e-002
2.645900e+003,1.438203e-002
2.647828e+003,1.454284e-002
2.649757e+003,1.471465e-002
2.651686e+003,1.493728e-002
2.653614e+003,1.510231e-002
2.655542e+003,1.520975e-002
2.657471e+003,1.536699e-002
2.659399e+003,1.544137e-002
2.661328e+003,1.540287e-002
2.663256e+003,1.525442e-002
2.665185e+003,1.509238e-002
2.667114e+003,1.496858e-002
2.669042e+003,1.485346e-002
2.670970e+003,1.468111e-002
2.672899e+003,1.450286e-002
2.674827e+003,1.440096e-002
2.676756e+003,1.429142e-002
2.678685e+003,1.414160e-002
2.680613e+003,1.399425e-002
2.682542e+003,1.389974e-002
2.684470e+003,1.386847e-002
2.686398e+003,1.378901e-002
2.688327e+003,1.360291e-002
2.690255e+003,1.341850e-002
2.692184e+003,1.330613e-002
2.694113e+003,1.322994e-002
2.696041e+003,1.316950e-002
2.697969e+003,1.315695e-002
2.699898e+003,1.317403e-002
2.701826e+003,1.333450e-002
2.703755e+003,1.356851e-002
2.705683e+003,1.372950e-002
2.707612e+003,1.387433e-002
2.709541e+003,1.399345e-002
2.711469e+003,1.412215e-002
2.713397e+003,1.429518e-002
2.715326e+003,1.446038e-002
2.717254e+003,1.468661e-002
2.719183e+003,1.488908e-002
2.721111e+003,1.513811e-002
2.723040e+003,1.539652e-002
2.724969e+003,1.571683e-002
2.726897e+003,1.608668e-002
2.728825e+003,1.632283e-002
2.730754e+003,1.649385e-002
2.732682e+003,1.670349e-002
2.734611e+003,1.692009e-002
2.736539e+003,1.711139e-002
2.738468e+003,1.722985e-002
2.740396e+003,1.728921e-002
2.742325e+003,1.736783e-002
2.744253e+003,1.737744e-002
2.746182e+003,1.736968e-002
2.748110e+003,1.739732e-002
2.750039e+003,1.748031e-002
2.751967e+003,1.763006e-002
2.753896e+003,1.787305e-002
2.755824e+003,1.819665e-002
2.757753e+003,1.862777e-002
2.759681e+003,1.905536e-002
2.761610e+003,1.943834e-002
2.763538e+003,1.983459e-002
2.765467e+003,2.025529e-002
2.767395e+003,2.069106e-002
2.769324e+003,2.127766e-002
2.771252e+003,2.198555e-002
2.773181e+003,2.267298e-002
2.775109e+003,2.338367e-002
2.777038e+003,2.422737e-002
2.778966e+003,2.523844e-002
2.780895e+003,2.626190e-002
2.782823e+003,2.744213e-002
2.784752e+003,2.874958e-002
2.786680e+003,3.015730e-002
2.788609e+003,3.169750e-002
2.790537e+003,3.334621e-002
2.792466e+003,3.507946e-002
2.794394e+003,3.685831e-002
2.796323e+003,3.867763e-002
2.798251e+003,4.055043e-002
2.800180e+003,4.257644e-002
2.802108e+003,4.468036e-002
2.804037e+003,4.693764e-002
2.805965e+003,4.946189e-002
2.807894e+003,5.225869e-002
2.809822e+003,5.534793e-002
2.811751e+003,5.879690e-002
2.813679e+003,6.271401e-002
2.815608e+003,6.718560e-002
2.817536e+003,7.241236e-002
2.819465e+003,7.872131e-002
2.821393e+003,8.628427e-002
2.823322e+003,9.544288e-002
2.825250e+003,1.067168e-001
2.827179e+003,1.209483e-001
2.829107e+003,1.393437e-001
2.831036e+003,1.637256e-001
2.832964e+003,1.967233e-001
2.834893e+003,2.425465e-001
2.836821e+003,3.072388e-001
2.838750e+003,4.009786e-001
2.840678e+003,5.396972e-001
2.842607e+003,7.424349e-001
2.844535e+003,1.014522e+000
2.846464e+003,1.278089e+000
2.848392e+003,1.305839e+000
2.850321e+003,1.062775e+000
2.852249e+003,7.930710e-001
2.854178e+003,5.992447e-001
2.856106e+003,4.643170e-001
2.858035e+003,3.669026e-001
2.859963e+003,2.965022e-001
2.861892e+003,2.469854e-001
2.863820e+003,2.137937e-001
2.865749e+003,1.934286e-001
2.867677e+003,1.830073e-001
2.869606e+003,1.796302e-001
2.871534e+003,1.807137e-001
2.873463e+003,1.855194e-001
2.875391e+003,1.952991e-001
2.877320e+003,2.111139e-001
2.879248e+003,2.328243e-001
2.881177e+003,2.592427e-001
2.883105e+003,2.889168e-001
2.885034e+003,3.213901e-001
2.886962e+003,3.562651e-001
2.888891e+003,3.925482e-001
2.890819e+003,4.293080e-001
2.892748e+003,4.658380e-001
2.894676e+003,5.018209e-001
2.896605e+003,5.378897e-001
2.898533e+003,5.759197e-001
2.900462e+003,6.185576e-001
2.902390e+003,6.700207e-001
2.904319e+003,7.368640e-001
2.906247e+003,8.278509e-001
2.908176e+003,9.532420e-001
2.910104e+003,1.122248e+000
2.912033e+003,1.327536e+000
2.913961e+003,1.504648e+000
2.915890e+003,1.533248e+000
2.917818e+003,1.387679e+000
2.919747e+003,1.178030e+000
2.921675e+003,9.849416e-001
2.923604e+003,8.261965e-001
2.925532e+003,6.980458e-001
2.927461e+003,5.928886e-001
2.929389e+003,5.042043e-001
2.931318e+003,4.282086e-001
2.933246e+003,3.628273e-001
2.935175e+003,3.067668e-001
2.937103e+003,2.590989e-001
2.939032e+003,2.188924e-001
2.940960e+003,1.853779e-001
2.942889e+003,1.581664e-001
2.944817e+003,1.368789e-001
2.946746e+003,1.211422e-001
2.948674e+003,1.104657e-001
2.950603e+003,1.034368e-001
2.952531e+003,9.822711e-002
2.954460e+003,9.316729e-002
2.956388e+003,8.762110e-002
2.958317e+003,8.147983e-002
2.960245e+003,7.481825e-002
2.962174e+003,6.783598e-002
2.964102e+003,6.086069e-002
2.966031e+003,5.411974e-002
2.967959e+003,4.812752e-002
2.969888e+003,4.288486e-002
2.971816e+003,3.836389e-002
2.973745e+003,3.454480e-002
2.975673e+003,3.142467e-002
2.977602e+003,2.885364e-002
2.979530e+003,2.670465e-002
2.981459e+003,2.486434e-002
2.983387e+003,2.333469e-002
2.985316e+003,2.193630e-002
2.987244e+003,2.074736e-002
2.989173e+003,1.978817e-002
2.991101e+003,1.900467e-002
2.993030e+003,1.833479e-002
2.994958e+003,1.788693e-002
2.996887e+003,1.751545e-002
2.998815e+003,1.718654e-002
3.000744e+003,1.695011e-002
3.002672e+003,1.667614e-002
3.004601e+003,1.638588e-002
3.006529e+003,1.610879e-002
3.008458e+003,1.567400e-002
3.010386e+003,1.511589e-002
3.012315e+003,1.454487e-002
3.014243e+003,1.399420e-002
3.016172e+003,1.346161e-002
3.018100e+003,1.301095e-002
3.020029e+003,1.255791e-002
3.021957e+003,1.215661e-002
3.023886e+003,1.188084e-002
3.025814e+003,1.158293e-002
3.027743e+003,1.127658e-002
3.029671e+003,1.098126e-002
3.031600e+003,1.071291e-002
3.033528e+003,1.052454e-002
3.035457e+003,1.023883e-002
3.037385e+003,9.922005e-003
3.039314e+003,9.694986e-003
3.041242e+003,9.363316e-003
3.043171e+003,9.007618e-003
3.045099e+003,8.774616e-003
3.047028e+003,8.555785e-003
3.048956e+003,8.292474e-003
3.050885e+003,8.110642e-003
3.052813e+003,8.017398e-003
3.054742e+003,7.813938e-003
3.056670e+003,7.600017e-003
3.058599e+003,7.467270e-003
3.060527e+003,7.410005e-003
3.062456e+003,7.302180e-003
3.064384e+003,7.129461e-003
3.066313e+003,7.037587e-003
3.068241e+003,6.990492e-003
3.070170e+003,6.847881e-003
3.072098e+003,6.710246e-003
3.074027e+003,6.603189e-003
3.075955e+003,6.578259e-003
3.077884e+003,6.462112e-003
3.079812e+003,6.331347e-003
3.081741e+003,6.218292e-003
3.083669e+003,6.068669e-003
3.085598e+003,5.921923e-003
3.087526e+003,5.841829e-003
3.089455e+003,5.623877e-003
3.091383e+003,5.338468e-003
3.093312e+003,5.047061e-003
3.095240e+003,4.860103e-003
3.097169e+003,4.624382e-003
3.099097e+003,4.247271e-003
3.101026e+003,4.027821e-003
3.102954e+003,3.962725e-003
3.104883e+003,3.782786e-003
3.106811e+003,3.592841e-003
3.108740e+003,3.450379e-003
3.110668e+003,3.375135e-003
3.112597e+003,3.221095e-003
3.114525e+003,3.203139e-003
3.116454e+003,3.247261e-003
3.118382e+003,3.190652e-003
3.120311e+003,3.087066e-003
3.122239e+003,3.067881e-003
3.124168e+003,3.130212e-003
3.126096e+003,3.091231e-003
3.128025e+003,3.067635e-003
3.129953e+003,2.992995e-003
3.131882e+003,2.952188e-003
3.133810e+003,2.995662e-003
3.135739e+003,3.010146e-003
3.137667e+003,3.081135e-003
3.139596e+003,3.164589e-003
3.141524e+003,3.211416e-003
3.143453e+003,3.203593e-003
3.145381e+003,3.187597e-003
3.147310e+003,3.146097e-003
3.149238e+003,3.074110e-003
3.151167e+003,3.044672e-003
3.153095e+003,3.142081e-003
3.155024e+003,3.222793e-003
3.156952e+003,3.237121e-003
3.158881e+003,3.197692e-003
3.160809e+003,3.235467e-003
3.162738e+003,3.235526e-003
3.164666e+003,3.270768e-003
3.166594e+003,3.364570e-003
3.168523e+003,3.500223e-003
3.170452e+003,3.595829e-003
3.172380e+003,3.613226e-003
3.174309e+003,3.546253e-003
3.176237e+003,3.431581e-003
3.178166e+003,3.447071e-003
3.180094e+003,3.525637e-003
3.182022e+003,3.634132e-003
3.183951e+003,3.789611e-003
3.185880e+003,3.844291e-003
3.187808e+003,3.872186e-003
3.189737e+003,3.916092e-003
3.191665e+003,3.983177e-003
3.193594e+003,4.052624e-003
3.195522e+003,4.071943e-003
3.197450e+003,4.059121e-003
3.199379e+003,4.062414e-003
3.201308e+003,4.079469e-003
3.203236e+003,4.152350e-003
3.205165e+003,4.184179e-003
3.207093e+003,4.224814e-003
3.209021e+003,4.300863e-003
3.210950e+003,4.305884e-003
3.212878e+003,4.256979e-003
3.214807e+003,4.312485e-003
3.216736e+003,4.422255e-003
3.218664e+003,4.509740e-003
3.220593e+003,4.490927e-003
3.222521e+003,4.481144e-003
3.224449e+003,4.558958e-003
3.226378e+003,4.592888e-003
3.228307e+003,4.575096e-003
3.230235e+003,4.634812e-003
3.232164e+003,4.709989e-003
3.234092e+003,4.794575e-003
3.236021e+003,4.934043e-003
3.237949e+003,4.956454e-003
3.239877e+003,4.910998e-003
3.241806e+003,4.942156e-003
3.243735e+003,5.052604e-003
3.245663e+003,5.114369e-003
3.247592e+003,5.120866e-003
3.249520e+003,5.213350e-003
3.251448e+003,5.421169e-003
3.253377e+003,5.506210e-003
3.255305e+003,5.535401e-003
3.257234e+003,5.626492e-003
3.259163e+003,5.664937e-003
3.261091e+003,5.677529e-003
3.263020e+003,5.828336e-003
3.264948e+003,5.997345e-003
3.266876e+003,6.005019e-003
3.268805e+003,5.975351e-003
3.270733e+003,6.123550e-003
3.272662e+003,6.363526e-003
3.274591e+003,6.427489e-003
3.276519e+003,6.367162e-003
3.278448e+003,6.425247e-003
3.280376e+003,6.467618e-003
3.282304e+003,6.618157e-003
3.284233e+003,6.753810e-003
3.286161e+003,6.690510e-003
3.288090e+003,6.637663e-003
3.290019e+003,6.657407e-003
3.291947e+003,6.748572e-003
3.293875e+003,6.816730e-003
3.295804e+003,6.881796e-003
3.297732e+003,6.903701e-003
3.299661e+003,6.861553e-003
3.301589e+003,6.814539e-003
3.303518e+003,6.877258e-003
3.305447e+003,6.846189e-003
3.307375e+003,6.800242e-003
3.309303e+003,6.816231e-003
3.311232e+003,6.821156e-003
3.313160e+003,6.788664e-003
3.315089e+003,6.814212e-003
3.317018e+003,6.861761e-003
3.318946e+003,6.829321e-003
3.320875e+003,6.763972e-003
3.322803e+003,6.830007e-003
3.324731e+003,6.864153e-003
3.326660e+003,6.819285e-003
3.328588e+003,6.816804e-003
3.330517e+003,6.887160e-003
3.332446e+003,6.942280e-003
3.334374e+003,6.918110e-003
3.336302e+003,6.851226e-003
3.338231e+003,6.771319e-003
3.340159e+003,6.804451e-003
3.342088e+003,6.813571e-003
3.344016e+003,6.766729e-003
3.345945e+003,6.778911e-003
3.347874e+003,6.723844e-003
3.349802e+003,6.627314e-003
3.351730e+003,6.648250e-003
3.353659e+003,6.703243e-003
3.355587e+003,6.747082e-003
3.357516e+003,6.764874e-003
3.359444e+003,6.765574e-003
3.361373e+003,6.709747e-003
3.363302e+003,6.622359e-003
3.365230e+003,6.502494e-003
3.367158e+003,6.561525e-003
3.369087e+003,6.639369e-003
3.371015e+003,6.654717e-003
3.372944e+003,6.547175e-003
3.374872e+003,6.380275e-003
3.376801e+003,6.277144e-003
3.378729e+003,6.318532e-003
3.380658e+003,6.382212e-003
3.382586e+003,6.265283e-003
3.384515e+003,6.143875e-003
3.386443e+003,6.103858e-003
3.388372e+003,6.071500e-003
3.390300e+003,5.987667e-003
3.392229e+003,6.025858e-003
3.394157e+003,6.056093e-003
3.396086e+003,5.955763e-003
3.398014e+003,5.939528e-003
3.399943e+003,5.929939e-003
3.401871e+003,5.855039e-003
3.403800e+003,5.748063e-003
3.405728e+003,5.688734e-003
3.407657e+003,5.675547e-003
3.409585e+003,5.594492e-003
3.411514e+003,5.452886e-003
3.413442e+003,5.437084e-003
3.415371e+003,5.568236e-003
3.417299e+003,5.533867e-003
3.419228e+003,5.482778e-003
3.421156e+003,5.437225e-003
3.423085e+003,5.337290e-003
3.425013e+003,5.213104e-003
3.426942e+003,5.250372e-003
3.428870e+003,5.373701e-003
3.430799e+003,5.307540e-003
3.432727e+003,5.189635e-003
3.434656e+003,5.069509e-003
3.436584e+003,5.008459e-003
3.438513e+003,5.050704e-003
3.440441e+003,5.113065e-003
3.442370e+003,5.142182e-003
3.444298e+003,5.065292e-003
3.446227e+003,5.086683e-003
3.448155e+003,5.057409e-003
3.450084e+003,4.948303e-003
3.452012e+003,4.854299e-003
3.453941e+003,4.698999e-003
3.455869e+003,4.634023e-003
3.457798e+003,4.601188e-003
3.459726e+003,4.461616e-003
3.461655e+003,4.456721e-003
3.463583e+003,4.421383e-003
3.465512e+003,4.305266e-003
3.467440e+003,4.308157e-003
3.469369e+003,4.237115e-003
3.471297e+003,4.090697e-003
3.473226e+003,4.013166e-003
3.475154e+003,3.952853e-003
3.477083e+003,3.852896e-003
3.479011e+003,3.705963e-003
3.480940e+003,3.569998e-003
3.482868e+003,3.545314e-003
3.484797e+003,3.615022e-003
3.486725e+003,3.637925e-003
3.488654e+003,3.595486e-003
3.490582e+003,3.497794e-003
3.492511e+003,3.351316e-003
3.494439e+003,3.188804e-003
3.496368e+003,3.071845e-003
3.498296e+003,3.138371e-003
3.500225e+003,3.292821e-003
3.502153e+003,3.220372e-003
3.504082e+003,3.103524e-003
3.506010e+003,3.083736e-003
3.507939e+003,3.087841e-003
3.509867e+003,3.024109e-003
3.511796e+003,2.947941e-003
3.513724e+003,2.749071e-003
3.515653e+003,2.628468e-003
3.517581e+003,2.764426e-003
3.519510e+003,2.695307e-003
3.521438e+003,2.480254e-003
3.523367e+003,2.412796e-003
3.525295e+003,2.270631e-003
3.527224e+003,2.249472e-003
3.529152e+003,2.272666e-003
3.531081e+003,2.210326e-003
3.533009e+003,2.059579e-003
3.534938e+003,2.032846e-003
3.536866e+003,2.015233e-003
3.538795e+003,1.862638e-003
3.540723e+003,1.720428e-003
3.542652e+003,1.643002e-003
3.544580e+003,1.573272e-003
3.546509e+003,1.576141e-003
3.548437e+003,1.641363e-003
3.550366e+003,1.561947e-003
3.552294e+003,1.508430e-003
3.554223e+003,1.325488e-003
3.556151e+003,1.147665e-003
3.558080e+003,1.043193e-003
3.560008e+003,1.002021e-003
3.561937e+003,9.719282e-004
3.563865e+003,1.078181e-003
3.565794e+003,1.109369e-003
3.567722e+003,1.026593e-003
3.569651e+003,8.332506e-004
3.571579e+003,6.987751e-004
3.573508e+003,6.892234e-004
3.575436e+003,6.623864e-004
3.577365e+003,5.434677e-004
3.579293e+003,6.291941e-004
3.581222e+003,7.293820e-004
3.583150e+003,4.592463e-004
3.585079e+003,2.193749e-004
3.587007e+003,4.248619e-004
3.588936e+003,6.954148e-004
3.590864e+003,7.952526e-004
3.592793e+003,9.416193e-004
3.594721e+003,1.245528e-003
3.596650e+003,1.584552e-003
3.598578e+003,1.767687e-003
3.600507e+003,2.074867e-003
3.602435e+003,2.207585e-003
3.604364e+003,2.083451e-003
3.606292e+003,1.944587e-003
3.608221e+003,1.837231e-003
3.610149e+003,1.532853e-003
3.612078e+003,1.139440e-003
3.614006e+003,8.691028e-004
3.615935e+003,4.830360e-004
3.617863e+003,3.531203e-004
3.619792e+003,4.071519e-004
3.621720e+003,4.464537e-004
3.623649e+003,4.551858e-004
3.625577e+003,2.073869e-004
3.627506e+003,-1.401231e-004
3.629434e+003,2.555177e-004
3.631363e+003,2.514124e-004
3.633291e+003,1.411736e-004
3.635220e+003,3.334507e-004
3.637148e+003,3.734976e-004
3.639077e+003,3.707409e-004
3.641005e+003,3.856495e-004
3.642934e+003,3.474429e-004
3.644862e+003,-6.385148e-006
3.646791e+003,-4.853383e-004
3.648719e+003,-1.099207e-003
3.650648e+003,-3.175586e-004
3.652576e+003,1.602992e-004
3.654505e+003,-1.517460e-004
3.656433e+003,-3.015548e-004
3.658362e+003,-3.127828e-004
3.660290e+003,-4.936010e-004
3.662219e+003,-7.164031e-004
3.664147e+003,-6.573126e-004
3.666076e+003,-6.679893e-004
3.668004e+003,-1.004890e-003
3.669933e+003,-9.786785e-004
3.671861e+003,-9.382293e-004
3.673790e+003,-1.770794e-003
3.675718e+003,-1.577407e-003
3.677647e+003,-7.884800e-004
3.679575e+003,-6.741062e-004
3.681504e+003,-7.255897e-004
3.683432e+003,-7.722825e-004
3.685361e+003,-6.655753e-004
3.687289e+003,-8.028001e-004
3.689218e+003,-6.855354e-004
3.691146e+003,-6.214306e-004
3.693075e+003,-6.071702e-004
3.695003e+003,-7.235706e-004
3.696932e+003,-8.234158e-004
3.698860e+003,-9.366199e-004
3.700789e+003,-7.289052e-004
3.702717e+003,-4.543439e-004
3.704646e+003,-7.022619e-004
3.706574e+003,-9.840652e-004
3.708503e+003,-1.056224e-003
3.710431e+003,-1.381204e-003
3.712360e+003,-1.257241e-003
3.714288e+003,-9.844378e-004
3.716217e+003,-9.607971e-004
3.718145e+003,-8.718744e-004
3.720074e+003,-9.629652e-004
3.722002e+003,-1.290798e-003
3.723931e+003,-1.388513e-003
3.725859e+003,-1.002111e-003
3.727788e+003,-7.929131e-004
3.729716e+003,-9.862036e-004
3.731645e+003,-1.034491e-003
3.733573e+003,-9.347871e-004
3.735502e+003,-1.240119e-003
3.737430e+003,-1.085170e-003
3.739359e+003,-8.210018e-004
3.741287e+003,-8.190498e-004
3.743216e+003,-1.229845e-003
3.745144e+003,-7.945523e-004
3.747073e+003,-6.020963e-004
3.749001e+003,-9.287968e-004
3.750930e+003,-1.053162e-003
3.752858e+003,-7.065609e-004
3.754787e+003,-6.268993e-004
3.756715e+003,-8.348748e-004
3.758644e+003,-6.146654e-004
3.760572e+003,-2.388656e-004
3.762501e+003,-3.752112e-004
3.764429e+003,-6.238744e-004
3.766358e+003,-6.854311e-004
3.768286e+003,-7.344857e-004
3.770215e+003,-4.407689e-004
3.772143e+003,-3.291368e-004
3.774072e+003,-3.168955e-004
3.776000e+003,-3.573075e-004
3.777929e+003,-4.170686e-004
3.779857e+003,-1.089647e-004
3.781786e+003,-8.881837e-005
3.783714e+003,-2.117977e-004
3.785643e+003,-1.469329e-004
3.787571e+003,-1.601130e-004
3.789500e+003,-1.273081e-004
3.791428e+003,-7.146597e-005
3.793357e+003,-3.340989e-004
3.795285e+003,-4.698262e-004
3.797214e+003,-8.258969e-005
3.799142e+003,-4.111528e-004
3.801071e+003,-6.950870e-004
3.802999e+003,-1.073778e-004
3.804927e+003,-2.822652e-004
3.806856e+003,-2.314374e-004
3.808785e+003,-1.981109e-005
3.810713e+003,-5.765259e-005
3.812642e+003,-1.495332e-004
3.814570e+003,-1.729876e-004
3.816499e+003,2.207905e-004
3.818427e+003,-8.690357e-005
3.820355e+003,-2.920628e-004
3.822284e+003,4.739314e-005
3.824213e+003,-1.972988e-004
3.826141e+003,-8.887053e-005
3.828070e+003,9.224564e-005
3.829998e+003,-9.041280e-005
3.831927e+003,-5.031377e-005
3.833855e+003,7.203221e-005
3.835783e+003,-1.833588e-004
3.837712e+003,-3.960654e-004
3.839641e+003,-3.916249e-004
3.841569e+003,-2.786517e-004
3.843498e+003,9.350479e-006
3.845426e+003,2.406240e-004
3.847354e+003,1.809150e-004
3.849283e+003,1.047477e-004
3.851211e+003,-3.537089e-004
3.853140e+003,-6.987676e-004
3.855069e+003,-2.334118e-004
3.856997e+003,-1.005903e-004
3.858926e+003,-1.449883e-005
3.860854e+003,-2.862513e-005
3.862782e+003,-1.166835e-004
3.864711e+003,1.510456e-004
3.866640e+003,1.766309e-004
3.868568e+003,-2.080947e-005
3.870497e+003,2.706200e-004
3.872425e+003,-5.766749e-006
3.874354e+003,2.533495e-004
3.876282e+003,4.406422e-004
3.878210e+003,1.826286e-004
3.880139e+003,4.766956e-004
3.882068e+003,7.816032e-004
3.883996e+003,4.602671e-004
3.885925e+003,3.379136e-004
3.887853e+003,3.798679e-004
3.889781e+003,3.059730e-004
3.891710e+003,5.186424e-004
3.893638e+003,5.867407e-004
3.895567e+003,5.344003e-004
3.897496e+003,5.910769e-004
3.899424e+003,6.643161e-004
3.901353e+003,5.038455e-004
3.903281e+003,5.705729e-004
3.905209e+003,7.884279e-004
3.907138e+003,6.684288e-004
3.909066e+003,5.180463e-004
3.910995e+003,6.346405e-004
3.912924e+003,6.978288e-004
3.914852e+003,7.004738e-004
3.916781e+003,7.597208e-004
3.918709e+003,5.786568e-004
3.920637e+003,3.826767e-004
3.922566e+003,4.196838e-004
3.924494e+003,6.160736e-004
3.926423e+003,5.752742e-004
3.928352e+003,4.554763e-004
3.930280e+003,6.056800e-004
3.932208e+003,7.469505e-004
3.934137e+003,6.110966e-004
3.936065e+003,3.055856e-004
3.937994e+003,2.787784e-004
3.939922e+003,3.119707e-004
3.941851e+003,4.108399e-004
3.943780e+003,5.036592e-004
3.945708e+003,3.921092e-004
3.947636e+003,4.151687e-004
3.949565e+003,5.251244e-004
3.951493e+003,5.186573e-004
3.953422e+003,5.078316e-004
3.955351e+003,5.525053e-004
3.957279e+003,5.652979e-004
3.959208e+003,5.650297e-004
3.961136e+003,6.102026e-004
3.963064e+003,6.138906e-004
3.964993e+003,4.312545e-004
3.966921e+003,4.248545e-004
3.968850e+003,6.124154e-004
3.970779e+003,6.469935e-004
3.972707e+003,4.995465e-004
3.974635e+003,5.091056e-004
3.976564e+003,6.205216e-004
3.978492e+003,5.510151e-004
3.980421e+003,4.115775e-004
3.982349e+003,4.288778e-004
3.984278e+003,5.679056e-004
3.986207e+003,5.807877e-004
3.988135e+003,5.780756e-004
3.990063e+003,5.776212e-004
3.991992e+003,5.072579e-004
3.993920e+003,5.074963e-004
3.995849e+003,5.010441e-004
3.997777e+003,4.193187e-004
3.999706e+003,4.524440e-004
4.001635e+003,0.000000e+000
