3.991992e+002,0.000000e+000
4.011277e+002,0.000000e+000
4.030562e+002,0.000000e+000
4.049846e+002,0.000000e+000
4.069131e+002,0.000000e+000
4.088416e+002,0.000000e+000
4.107701e+002,0.000000e+000
4.126986e+002,0.000000e+000
4.146271e+002,0.000000e+000
4.165556e+002,0.000000e+000
4.184841e+002,0.000000e+000
4.204126e+002,0.000000e+000
4.223411e+002,0.000000e+000
4.242697e+002,0.000000e+000
4.261982e+002,0.000000e+000
4.281266e+002,0.000000e+000
4.300551e+002,0.000000e+000
4.319836e+002,0.000000e+000
4.339121e+002,0.000000e+000
4.358406e+002,0.000000e+000
4.377691e+002,0.000000e+000
4.396976e+002,0.000000e+000
4.416261e+002,0.000000e+000
4.435546e+002,0.000000e+000
4.454831e+002,0.000000e+000
4.474116e+002,0.000000e+000
4.493401e+002,0.000000e+000
4.512686e+002,0.000000e+000
4.531971e+002,0.000000e+000
4.551256e+002,0.000000e+000
4.570541e+002,0.000000e+000
4.589826e+002,0.000000e+000
4.609111e+002,0.000000e+000
4.628396e+002,0.000000e+000
4.647681e+002,0.000000e+000
4.666966e+002,0.000000e+000
4.686251e+002,0.000000e+000
4.705536e+002,0.000000e+000
4.724821e+002,0.000000e+000
4.744106e+002,0.000000e+000
4.763391e+002,0.000000e+000
4.782676e+002,0.000000e+000
4.801961e+002,0.000000e+000
4.821246e+002,0.000000e+000
4.840531e+002,0.000000e+000
4.859816e+002,0.000000e+000
4.879101e+002,0.000000e+000
4.898386e+002,0.000000e+000
4.917671e+002,0.000000e+000
4.936956e+002,0.000000e+000
4.956241e+002,0.000000e+000
4.975526e+002,0.000000e+000
4.994811e+002,0.000000e+000
5.014096e+002,0.000000e+000
5.033381e+002,0.000000e+000
5.052666e+002,0.000000e+000
5.071951e+002,0.000000e+000
5.091236e+002,0.000000e+000
5.110521e+002,0.000000e+000
5.129806e+002,0.000000e+000
5.149091e+002,0.000000e+000
5.168376e+002,0.000000e+000
5.187661e+002,0.000000e+000
5.206946e+002,0.000000e+000
5.226230e+002,0.000000e+000
5.245516e+002,1.898631e-004
5.264800e+002,8.780695e-005
5.284086e+002,-8.343346e-005
5.303370e+002,-2.134461e-004
5.322656e+002,-1.757033e-004
5.341940e+002,-1.869593e-004
5.361226e+002,-1.938622e-004
5.380510e+002,-1.992267e-004
5.399796e+002,-1.604967e-004
5.419081e+002,-2.722088e-004
5.438365e+002,-2.743006e-004
5.457650e+002,-3.433526e-004
5.476935e+002,-3.508776e-004
5.496221e+002,-5.920790e-005
5.515505e+002,4.077330e-005
5.534790e+002,-5.453080e-005
5.554075e+002,8.713268e-005
5.573361e+002,4.820526e-005
5.592645e+002,-1.361202e-004
5.611931e+002,-1.760982e-004
5.631215e+002,-1.649763e-004
5.650500e+002,-3.213920e-004
5.669785e+002,-3.568139e-004
5.689070e+002,-3.651064e-004
5.708355e+002,-3.681723e-004
5.727640e+002,-3.803242e-004
5.746925e+002,-2.255607e-004
5.766210e+002,-2.495199e-004
5.785495e+002,-3.233459e-004
5.804780e+002,-4.204866e-004
5.824065e+002,-4.204400e-004
5.843350e+002,-5.424544e-004
5.862635e+002,-5.904604e-004
5.881920e+002,-5.386379e-004
5.901205e+002,-5.675349e-004
5.920490e+002,-5.630758e-004
5.939775e+002,-4.761256e-004
5.959060e+002,-5.238242e-004
5.978345e+002,-5.348492e-004
5.997630e+002,-4.374124e-004
6.016915e+002,-3.697760e-004
6.036200e+002,-2.782904e-004
6.055485e+002,-2.086051e-004
6.074770e+002,-3.221091e-004
6.094055e+002,-3.961492e-004
6.113340e+002,-5.466454e-004
6.132625e+002,-7.084906e-004
6.151910e+002,-7.425807e-004
6.171195e+002,-6.026328e-004
6.190480e+002,-5.147923e-004
6.209765e+002,-3.341474e-004
6.229050e+002,-3.369972e-004
6.248335e+002,-2.672430e-004
6.267620e+002,-1.925230e-004
6.286905e+002,-1.548938e-004
6.306190e+002,-2.537165e-004
6.325475e+002,-1.698602e-004
6.344760e+002,1.788698e-005
6.364045e+002,1.497660e-004
6.383330e+002,4.280545e-005
6.402615e+002,-1.080148e-005
6.421899e+002,-9.708293e-005
6.441185e+002,-1.884513e-004
6.460470e+002,-1.544934e-004
6.479755e+002,-3.851019e-005
6.499039e+002,-9.723939e-005
6.518325e+002,8.320436e-006
6.537610e+002,9.153411e-005
6.556895e+002,1.193248e-004
6.576179e+002,3.698468e-005
6.595464e+002,3.622845e-006
6.614750e+002,-1.044609e-004
6.634034e+002,-7.649697e-005
6.653319e+002,7.904880e-005
6.672604e+002,3.270842e-004
6.691890e+002,2.941154e-004
6.711174e+002,2.631098e-004
6.730460e+002,2.325661e-004
6.749745e+002,3.781971e-004
6.769030e+002,4.516821e-004
6.788314e+002,6.128140e-004
6.807599e+002,7.641483e-004
6.826885e+002,9.653438e-004
6.846169e+002,1.113908e-003
6.865454e+002,1.310514e-003
6.884739e+002,1.520324e-003
6.904025e+002,1.764076e-003
6.923309e+002,1.878023e-003
6.942594e+002,2.275253e-003
6.961879e+002,2.813742e-003
6.981165e+002,3.528057e-003
7.000449e+002,4.405782e-003
7.019734e+002,5.639767e-003
7.039019e+002,7.027218e-003
7.058304e+002,9.100532e-003
7.077589e+002,1.190704e-002
7.096874e+002,1.603338e-002
7.116159e+002,2.236523e-002
7.135444e+002,3.434219e-002
7.154729e+002,5.691637e-002
7.174014e+002,9.172192e-002
7.193299e+002,1.098339e-001
7.212584e+002,8.371732e-002
7.231869e+002,5.606489e-002
7.251154e+002,4.657471e-002
7.270439e+002,5.131798e-002
7.289724e+002,6.605238e-002
7.309009e+002,6.171359e-002
7.328294e+002,3.510836e-002
7.347579e+002,1.803583e-002
7.366864e+002,1.191415e-002
7.386149e+002,9.237591e-003
7.405434e+002,7.531455e-003
7.424719e+002,6.522857e-003
7.444004e+002,5.796218e-003
7.463289e+002,5.236743e-003
7.482574e+002,4.680792e-003
7.501859e+002,4.239006e-003
7.521144e+002,3.898928e-003
7.540428e+002,3.673548e-003
7.559714e+002,3.420481e-003
7.578999e+002,3.276927e-003
7.598284e+002,3.100505e-003
7.617568e+002,3.009422e-003
7.636854e+002,2.960512e-003
7.656139e+002,2.911320e-003
7.675424e+002,2.823075e-003
7.694709e+002,2.761591e-003
7.713994e+002,2.678780e-003
7.733279e+002,2.501296e-003
7.752563e+002,2.339140e-003
7.771849e+002,2.273127e-003
7.791134e+002,2.186032e-003
7.810419e+002,2.041332e-003
7.829703e+002,1.903467e-003
7.848989e+002,1.785561e-003
7.868274e+002,1.612499e-003
7.887559e+002,1.467809e-003
7.906843e+002,1.366027e-003
7.926129e+002,1.333786e-003
7.945414e+002,1.313936e-003
7.964698e+002,1.269516e-003
7.983983e+002,1.238631e-003
8.003268e+002,1.228247e-003
8.022554e+002,1.173716e-003
8.041838e+002,1.119044e-003
8.061123e+002,1.018092e-003
8.080408e+002,9.193271e-004
8.099694e+002,8.507222e-004
8.118978e+002,7.923357e-004
8.138263e+002,8.003321e-004
8.157548e+002,8.102525e-004
8.176833e+002,8.171257e-004
8.196118e+002,7.799100e-004
8.215403e+002,7.253569e-004
8.234689e+002,7.209815e-004
8.253973e+002,7.314291e-004
8.273258e+002,7.396583e-004
8.292543e+002,7.600095e-004
8.311829e+002,6.547943e-004
8.331113e+002,6.144308e-004
8.350398e+002,6.819274e-004
8.369683e+002,6.758124e-004
8.388969e+002,7.186513e-004
8.408253e+002,7.761009e-004
8.427538e+002,7.402375e-004
8.446823e+002,7.316507e-004
8.466108e+002,7.637404e-004
8.485393e+002,7.914416e-004
8.504678e+002,7.648245e-004
8.523963e+002,8.072332e-004
8.543248e+002,7.910151e-004
8.562533e+002,7.488653e-004
8.581818e+002,7.503834e-004
8.601103e+002,7.620919e-004
8.620388e+002,7.558763e-004
8.639673e+002,8.662939e-004
8.658958e+002,9.062365e-004
8.678243e+002,8.309763e-004
8.697528e+002,7.952340e-004
8.716813e+002,8.482765e-004
8.736098e+002,9.113662e-004
8.755383e+002,9.118933e-004
8.774668e+002,8.801967e-004
8.793953e+002,1.113046e-003
8.813238e+002,1.376096e-003
8.832523e+002,1.563501e-003
8.851808e+002,1.768649e-003
8.871093e+002,1.950242e-003
8.890378e+002,2.002269e-003
8.909663e+002,1.932364e-003
8.928948e+002,1.728080e-003
8.948232e+002,1.603212e-003
8.967518e+002,1.475256e-003
8.986803e+002,1.402784e-003
9.006088e+002,1.313668e-003
9.025372e+002,1.321934e-003
9.044658e+002,1.458600e-003
9.063943e+002,1.705904e-003
9.083228e+002,1.796573e-003
9.102512e+002,1.691822e-003
9.121797e+002,1.444191e-003
9.141083e+002,1.346633e-003
9.160367e+002,1.263622e-003
9.179653e+002,1.069978e-003
9.198937e+002,9.550191e-004
9.218223e+002,1.013998e-003
9.237507e+002,1.049612e-003
9.256793e+002,1.013786e-003
9.276077e+002,9.774379e-004
9.295363e+002,9.773821e-004
9.314647e+002,1.091827e-003
9.333932e+002,1.096580e-003
9.353217e+002,1.025632e-003
9.372502e+002,1.041006e-003
9.391787e+002,1.027670e-003
9.411072e+002,1.026053e-003
9.430358e+002,9.808764e-004
9.449642e+002,1.004025e-003
9.468928e+002,9.761490e-004
9.488212e+002,9.799004e-004
9.507498e+002,9.567775e-004
9.526782e+002,9.942912e-004
9.546068e+002,1.013365e-003
9.565352e+002,1.132086e-003
9.584637e+002,1.206201e-003
9.603922e+002,1.249906e-003
9.623207e+002,1.265213e-003
9.642492e+002,1.332384e-003
9.661777e+002,1.373321e-003
9.681062e+002,1.380589e-003
9.700347e+002,1.322914e-003
9.719632e+002,1.244251e-003
9.738917e+002,1.205336e-003
9.758202e+002,1.265999e-003
9.777487e+002,1.251068e-003
9.796772e+002,1.225688e-003
9.816057e+002,1.179200e-003
9.835342e+002,1.178175e-003
9.854627e+002,1.205221e-003
9.873912e+002,1.291666e-003
9.893197e+002,1.323175e-003
9.912482e+002,1.383021e-003
9.931767e+002,1.392838e-003
9.951052e+002,1.392424e-003
9.970337e+002,1.376446e-003
9.989622e+002,1.382869e-003
1.000891e+003,1.380287e-003
1.002819e+003,1.421396e-003
1.004748e+003,1.406241e-003
1.006676e+003,1.408610e-003
1.008605e+003,1.429014e-003
1.010533e+003,1.450595e-003
1.012462e+003,1.432545e-003
1.014390e+003,1.445059e-003
1.016319e+003,1.456961e-003
1.018247e+003,1.479648e-003
1.020176e+003,1.506697e-003
1.022104e+003,1.591053e-003
1.024033e+003,1.639999e-003
1.025961e+003,1.715351e-003
1.027890e+003,1.762055e-003
1.029818e+003,1.895558e-003
1.031747e+003,1.949757e-003
1.033675e+003,2.003103e-003
1.035604e+003,2.016585e-003
1.037532e+003,2.060544e-003
1.039461e+003,2.106808e-003
1.041389e+003,2.201408e-003
1.043318e+003,2.268735e-003
1.045246e+003,2.364993e-003
1.047175e+003,2.468336e-003
1.049103e+003,2.654891e-003
1.051032e+003,2.707895e-003
1.052960e+003,2.726056e-003
1.054889e+003,2.748616e-003
1.056817e+003,2.822157e-003
1.058746e+003,2.973489e-003
1.060674e+003,3.194030e-003
1.062603e+003,3.284410e-003
1.064531e+003,3.369823e-003
1.066460e+003,3.377609e-003
1.068388e+003,3.377922e-003
1.070317e+003,3.416739e-003
1.072245e+003,3.584489e-003
1.074174e+003,3.720112e-003
1.076102e+003,3.873680e-003
1.078031e+003,4.081082e-003
1.079959e+003,4.221898e-003
1.081888e+003,4.209392e-003
1.083816e+003,4.234303e-003
1.085745e+003,4.229423e-003
1.087673e+003,4.225191e-003
1.089602e+003,4.159283e-003
1.091530e+003,4.101526e-003
1.093459e+003,3.987093e-003
1.095387e+003,3.933541e-003
1.097316e+003,3.814586e-003
1.099244e+003,3.695991e-003
1.101173e+003,3.556211e-003
1.103101e+003,3.486831e-003
1.105030e+003,3.416460e-003
1.106958e+003,3.396783e-003
1.108887e+003,3.353972e-003
1.110815e+003,3.382668e-003
1.112744e+003,3.418822e-003
1.114672e+003,3.533136e-003
1.116601e+003,3.583767e-003
1.118529e+003,3.642678e-003
1.120458e+003,3.665749e-003
1.122386e+003,3.704119e-003
1.124315e+003,3.689218e-003
1.126243e+003,3.723308e-003
1.128172e+003,3.789749e-003
1.130100e+003,3.944956e-003
1.132029e+003,4.093956e-003
1.133957e+003,4.309036e-003
1.135885e+003,4.555758e-003
1.137814e+003,4.935492e-003
1.139743e+003,5.315199e-003
1.141671e+003,5.741395e-003
1.143600e+003,6.147120e-003
1.145528e+003,6.735798e-003
1.147457e+003,7.513925e-003
1.149385e+003,8.519623e-003
1.151314e+003,9.554293e-003
1.153242e+003,1.041221e-002
1.155171e+003,1.091457e-002
1.157099e+003,1.117597e-002
1.159028e+003,1.129240e-002
1.160956e+003,1.135209e-002
1.162885e+003,1.123280e-002
1.164813e+003,1.096883e-002
1.166742e+003,1.053497e-002
1.168670e+003,1.000590e-002
1.170599e+003,9.391878e-003
1.172527e+003,8.792315e-003
1.174456e+003,8.175746e-003
1.176384e+003,7.656172e-003
1.178313e+003,7.098548e-003
1.180241e+003,6.612327e-003
1.182170e+003,6.257683e-003
1.184098e+003,6.056827e-003
1.186027e+003,5.936507e-003
1.187955e+003,5.973265e-003
1.189884e+003,5.982738e-003
1.191812e+003,6.058700e-003
1.193740e+003,6.204333e-003
1.195669e+003,6.462254e-003
1.197598e+003,6.716862e-003
1.199526e+003,7.048380e-003
1.201455e+003,7.424757e-003
1.203383e+003,7.958129e-003
1.205312e+003,8.502100e-003
1.207240e+003,9.014737e-003
1.209168e+003,9.411711e-003
1.211097e+003,9.830583e-003
1.213026e+003,1.016702e-002
1.214954e+003,1.048284e-002
1.216883e+003,1.073964e-002
1.218811e+003,1.105667e-002
1.220740e+003,1.136554e-002
1.222668e+003,1.169601e-002
1.224596e+003,1.196449e-002
1.226525e+003,1.226897e-002
1.228453e+003,1.253119e-002
1.230382e+003,1.284956e-002
1.232311e+003,1.311823e-002
1.234239e+003,1.338166e-002
1.236167e+003,1.353889e-002
1.238096e+003,1.366664e-002
1.240025e+003,1.360392e-002
1.241953e+003,1.342742e-002
1.243882e+003,1.310862e-002
1.245810e+003,1.266456e-002
1.247739e+003,1.208198e-002
1.249667e+003,1.156399e-002
1.251595e+003,1.104663e-002
1.253524e+003,1.056223e-002
1.255453e+003,9.950712e-003
1.257381e+003,9.336777e-003
1.259310e+003,8.644596e-003
1.261238e+003,7.984817e-003
1.263167e+003,7.428158e-003
1.265095e+003,7.113840e-003
1.267023e+003,6.862044e-003
1.268952e+003,6.769475e-003
1.270880e+003,6.682452e-003
1.272809e+003,6.681740e-003
1.274738e+003,6.659128e-003
1.276666e+003,6.738435e-003
1.278594e+003,6.788872e-003
1.280523e+003,6.897841e-003
1.282451e+003,6.975610e-003
1.284380e+003,7.147543e-003
1.286308e+003,7.287040e-003
1.288237e+003,7.557042e-003
1.290166e+003,7.799730e-003
1.292094e+003,8.125182e-003
1.294022e+003,8.444522e-003
1.295951e+003,8.863345e-003
1.297879e+003,9.166963e-003
1.299808e+003,9.456716e-003
1.301736e+003,9.504359e-003
1.303665e+003,9.494402e-003
1.305594e+003,9.342726e-003
1.307522e+003,9.259246e-003
1.309450e+003,9.012200e-003
1.311379e+003,8.721430e-003
1.313307e+003,8.293290e-003
1.315236e+003,7.903781e-003
1.317164e+003,7.470950e-003
1.319093e+003,7.096946e-003
1.321021e+003,6.647024e-003
1.322950e+003,6.356265e-003
1.324878e+003,6.099015e-003
1.326807e+003,6.013837e-003
1.328735e+003,5.945232e-003
1.330664e+003,6.036293e-003
1.332592e+003,6.227955e-003
1.334521e+003,6.765328e-003
1.336449e+003,7.453021e-003
1.338378e+003,8.420337e-003
1.340306e+003,9.097565e-003
1.342235e+003,9.423096e-003
1.344163e+003,9.807795e-003
1.346092e+003,1.051494e-002
1.348021e+003,1.124869e-002
1.349949e+003,1.197429e-002
1.351877e+003,1.225853e-002
1.353806e+003,1.231572e-002
1.355734e+003,1.215654e-002
1.357663e+003,1.219881e-002
1.359591e+003,1.252166e-002
1.361520e+003,1.342878e-002
1.363448e+003,1.458400e-002
1.365377e+003,1.560842e-002
1.367305e+003,1.659952e-002
1.369234e+003,1.720396e-002
1.371162e+003,1.692070e-002
1.373091e+003,1.723227e-002
1.375019e+003,1.922417e-002
1.376948e+003,2.075499e-002
1.378876e+003,1.914197e-002
1.380805e+003,1.474466e-002
1.382733e+003,1.045501e-002
1.384662e+003,7.966354e-003
1.386590e+003,6.584533e-003
1.388519e+003,5.817950e-003
1.390447e+003,5.182911e-003
1.392376e+003,5.108807e-003
1.394304e+003,5.134068e-003
1.396233e+003,5.189780e-003
1.398161e+003,4.991788e-003
1.400090e+003,5.023073e-003
1.402018e+003,4.752792e-003
1.403947e+003,4.986428e-003
1.405875e+003,5.004916e-003
1.407804e+003,5.096726e-003
1.409732e+003,5.069762e-003
1.411661e+003,5.421225e-003
1.413589e+003,5.477406e-003
1.415518e+003,5.946491e-003
1.417446e+003,6.322727e-003
1.419375e+003,7.133905e-003
1.421303e+003,7.213425e-003
1.423232e+003,8.200504e-003
1.425160e+003,9.572811e-003
1.427089e+003,1.142955e-002
1.429017e+003,1.393855e-002
1.430946e+003,1.779575e-002
1.432874e+003,2.088142e-002
1.434803e+003,2.387207e-002
1.436731e+003,2.721597e-002
1.438660e+003,3.013092e-002
1.440588e+003,3.187520e-002
1.442517e+003,3.449900e-002
1.444445e+003,3.660190e-002
1.446374e+003,3.946422e-002
1.448302e+003,4.343222e-002
1.450231e+003,4.950934e-002
1.452159e+003,5.847277e-002
1.454088e+003,6.981528e-002
1.456016e+003,8.136239e-002
1.457945e+003,1.062557e-001
1.459873e+003,1.480685e-001
1.461802e+003,1.912702e-001
1.463730e+003,1.929654e-001
1.465659e+003,1.505941e-001
1.467587e+003,1.347300e-001
1.469516e+003,1.297836e-001
1.471444e+003,1.447551e-001
1.473373e+003,1.274855e-001
1.475301e+003,6.936568e-002
1.477230e+003,3.072841e-002
1.479158e+003,1.946007e-002
1.481087e+003,1.416504e-002
1.483015e+003,1.158620e-002
1.484944e+003,9.522445e-003
1.486872e+003,8.978810e-003
1.488801e+003,7.741470e-003
1.490729e+003,7.614497e-003
1.492658e+003,6.407768e-003
1.494586e+003,6.455988e-003
1.496515e+003,5.886819e-003
1.498443e+003,5.717039e-003
1.500372e+003,4.907772e-003
1.502300e+003,4.964773e-003
1.504229e+003,4.634235e-003
1.506157e+003,5.945042e-003
1.508086e+003,5.311377e-003
1.510014e+003,4.889682e-003
1.511943e+003,4.209988e-003
1.513871e+003,4.392754e-003
1.515800e+003,4.389115e-003
1.517728e+003,4.673794e-003
1.519657e+003,4.306074e-003
1.521585e+003,4.885569e-003
1.523514e+003,4.141510e-003
1.525442e+003,4.273415e-003
1.527371e+003,4.083637e-003
1.529299e+003,4.018694e-003
1.531228e+003,3.636390e-003
1.533156e+003,4.081506e-003
1.535085e+003,3.564414e-003
1.537013e+003,3.473908e-003
1.538942e+003,3.941901e-003
1.540870e+003,5.008247e-003
1.542799e+003,3.974658e-003
1.544727e+003,4.034434e-003
1.546656e+003,3.426325e-003
1.548584e+003,3.493570e-003
1.550513e+003,3.444057e-003
1.552441e+003,3.576633e-003
1.554370e+003,3.576681e-003
1.556298e+003,3.866624e-003
1.558227e+003,4.425313e-003
1.560155e+003,3.938150e-003
1.562084e+003,2.790745e-003
1.564012e+003,2.759866e-003
1.565941e+003,2.582502e-003
1.567869e+003,2.676323e-003
1.569798e+003,2.639309e-003
1.571726e+003,2.346989e-003
1.573655e+003,2.008721e-003
1.575583e+003,2.412688e-003
1.577512e+003,2.214041e-003
1.579440e+003,1.989182e-003
1.581369e+003,1.897693e-003
1.583297e+003,2.096333e-003
1.585226e+003,2.108406e-003
1.587154e+003,2.221365e-003
1.589083e+003,2.163462e-003
1.591011e+003,2.235975e-003
1.592940e+003,2.116602e-003
1.594868e+003,2.175491e-003
1.596797e+003,2.122570e-003
1.598725e+003,2.159726e-003
1.600654e+003,2.096266e-003
1.602582e+003,2.171472e-003
1.604511e+003,2.075467e-003
1.606439e+003,2.183259e-003
1.608368e+003,2.197202e-003
1.610296e+003,2.279323e-003
1.612225e+003,2.189320e-003
1.614153e+003,2.345625e-003
1.616082e+003,2.670042e-003
1.618010e+003,2.753746e-003
1.619939e+003,2.514977e-003
1.621867e+003,2.912007e-003
1.623796e+003,3.140930e-003
1.625724e+003,2.942730e-003
1.627653e+003,2.897847e-003
1.629581e+003,3.023747e-003
1.631510e+003,3.045477e-003
1.633438e+003,3.336858e-003
1.635367e+003,4.015572e-003
1.637295e+003,3.969319e-003
1.639224e+003,3.465865e-003
1.641152e+003,3.381435e-003
1.643081e+003,3.277380e-003
1.645009e+003,3.567751e-003
1.646938e+003,4.180267e-003
1.648866e+003,4.002821e-003
1.650795e+003,3.763814e-003
1.652723e+003,4.982635e-003
1.654652e+003,4.534502e-003
1.656580e+003,3.801689e-003
1.658509e+003,3.486864e-003
1.660437e+003,3.540695e-003
1.662366e+003,3.594574e-003
1.664294e+003,3.414106e-003
1.666223e+003,3.102515e-003
1.668151e+003,3.513616e-003
1.670080e+003,3.785189e-003
1.672008e+003,3.071733e-003
1.673937e+003,2.677105e-003
1.675865e+003,2.678487e-003
1.677794e+003,2.365902e-003
1.679722e+003,2.531424e-003
1.681651e+003,2.627276e-003
1.683579e+003,3.467619e-003
1.685508e+003,2.599400e-003
1.687436e+003,1.917198e-003
1.689365e+003,1.678664e-003
1.691293e+003,1.640666e-003
1.693222e+003,1.488563e-003
1.695150e+003,1.949213e-003
1.697079e+003,1.779526e-003
1.699007e+003,1.793798e-003
1.700936e+003,1.624517e-003
1.702864e+003,1.354199e-003
1.704793e+003,1.279142e-003
1.706721e+003,1.221493e-003
1.708650e+003,9.150170e-004
1.710578e+003,9.070486e-004
1.712507e+003,1.049325e-003
1.714435e+003,1.551047e-003
1.716364e+003,1.956604e-003
1.718292e+003,2.152395e-003
1.720221e+003,1.649696e-003
1.722149e+003,1.663569e-003
1.724078e+003,1.694515e-003
1.726006e+003,1.633223e-003
1.727935e+003,1.720734e-003
1.729863e+003,2.433978e-003
1.731792e+003,3.054522e-003
1.733720e+003,4.486199e-003
1.735649e+003,4.690174e-003
1.737577e+003,4.896067e-003
1.739506e+003,6.073136e-003
1.741434e+003,7.388461e-003
1.743363e+003,8.550331e-003
1.745291e+003,9.721611e-003
1.747220e+003,1.043133e-002
1.749148e+003,1.033846e-002
1.751077e+003,9.100050e-003
1.753005e+003,7.239774e-003
1.754934e+003,5.842708e-003
1.756862e+003,4.458707e-003
1.758791e+003,3.027692e-003
1.760719e+003,2.281785e-003
1.762648e+003,1.339775e-003
1.764576e+003,6.785132e-004
1.766505e+003,5.292185e-004
1.768433e+003,6.466992e-004
1.770362e+003,5.614795e-004
1.772290e+003,6.296597e-004
1.774219e+003,-2.017617e-005
1.776147e+003,-2.724417e-004
1.778076e+003,-2.447739e-004
1.780004e+003,4.436821e-005
1.781933e+003,-3.271550e-004
1.783861e+003,-4.359633e-004
1.785790e+003,-5.236901e-004
1.787718e+003,-5.166903e-004
1.789646e+003,-3.704727e-004
1.791575e+003,4.588813e-005
1.793504e+003,-2.278425e-004
1.795432e+003,-4.061572e-004
1.797361e+003,-5.243570e-004
1.799289e+003,-3.237687e-004
1.801218e+003,-3.441758e-004
1.803146e+003,-5.213805e-004
1.805074e+003,-7.619858e-004
1.807003e+003,-7.302053e-004
1.808932e+003,-7.403493e-004
1.810860e+003,-7.020049e-004
1.812789e+003,-9.473041e-004
1.814717e+003,-1.082752e-003
1.816646e+003,-1.141656e-003
1.818574e+003,-8.275099e-004
1.820502e+003,-7.887855e-004
1.822431e+003,-6.919391e-004
1.824360e+003,-6.290041e-004
1.826288e+003,-6.345101e-004
1.828217e+003,-6.419830e-004
1.830145e+003,-4.953966e-004
1.832073e+003,-1.017287e-003
1.834002e+003,-1.074791e-003
1.835931e+003,-1.075771e-003
1.837859e+003,-9.272285e-004
1.839788e+003,-1.029443e-003
1.841716e+003,-6.945357e-004
1.843645e+003,-4.232079e-004
1.845573e+003,-7.435344e-004
1.847501e+003,-1.251064e-003
1.849430e+003,-1.176596e-003
1.851359e+003,-1.176823e-003
1.853287e+003,-1.024228e-003
1.855216e+003,-1.170620e-003
1.857144e+003,-1.085807e-003
1.859073e+003,-1.078948e-003
1.861001e+003,-1.045309e-003
1.862929e+003,-1.183949e-003
1.864858e+003,-9.925887e-004
1.866787e+003,-8.315518e-004
1.868715e+003,-2.655312e-004
1.870644e+003,-7.999614e-004
1.872572e+003,-1.073040e-003
1.874500e+003,-1.037918e-003
1.876429e+003,-9.864643e-004
1.878357e+003,-1.276352e-003
1.880286e+003,-1.047485e-003
1.882215e+003,-1.042679e-003
1.884143e+003,-9.661615e-004
1.886072e+003,-1.061633e-003
1.888000e+003,-7.185712e-004
1.889928e+003,-4.491732e-004
1.891857e+003,-1.846254e-004
1.893785e+003,-7.012486e-005
1.895714e+003,2.091825e-004
1.897643e+003,2.378970e-005
1.899571e+003,1.663044e-004
1.901500e+003,1.664013e-004
1.903428e+003,1.664907e-004
1.905356e+003,1.665652e-004
1.907285e+003,1.666322e-004
1.909213e+003,1.666918e-004
1.911142e+003,1.667440e-004
1.913071e+003,1.667887e-004
1.914999e+003,1.668185e-004
1.916927e+003,1.668483e-004
1.918856e+003,1.668707e-004
1.920784e+003,1.668781e-004
1.922713e+003,1.668707e-004
1.924641e+003,1.668632e-004
1.926570e+003,1.668483e-004
1.928499e+003,1.668185e-004
1.930427e+003,1.667738e-004
1.932355e+003,1.667291e-004
1.934284e+003,1.666695e-004
1.936212e+003,1.666099e-004
1.938141e+003,1.665354e-004
1.940070e+003,1.664534e-004
1.941998e+003,1.663640e-004
1.943927e+003,1.662597e-004
1.945855e+003,1.661554e-004
1.947783e+003,1.660362e-004
1.949712e+003,1.659170e-004
1.951640e+003,1.657754e-004
1.953569e+003,1.656264e-004
1.955498e+003,1.654774e-004
1.957426e+003,1.653060e-004
1.959354e+003,1.651347e-004
1.961283e+003,1.649484e-004
1.963211e+003,1.647696e-004
1.965140e+003,1.645610e-004
1.967068e+003,1.643598e-004
1.968997e+003,1.641363e-004
1.970926e+003,1.639128e-004
1.972854e+003,1.636818e-004
1.974782e+003,1.634359e-004
1.976711e+003,1.631826e-004
1.978639e+003,1.629218e-004
1.980568e+003,1.626536e-004
1.982496e+003,1.623780e-004
1.984425e+003,1.620874e-004
1.986354e+003,1.617819e-004
1.988282e+003,1.614764e-004
1.990210e+003,1.611561e-004
1.992139e+003,1.608431e-004
1.994067e+003,1.605004e-004
1.995996e+003,1.601577e-004
1.997924e+003,1.598075e-004
1.999853e+003,1.594499e-004
2.001781e+003,1.590848e-004
2.003710e+003,1.587048e-004
2.005638e+003,1.583174e-004
2.007567e+003,1.579225e-004
2.009495e+003,1.575127e-004
2.011424e+003,1.570955e-004
2.013352e+003,1.566708e-004
2.015281e+003,1.562387e-004
2.017209e+003,1.557991e-004
2.019138e+003,1.553521e-004
2.021066e+003,1.548901e-004
2.022995e+003,1.544282e-004
2.024923e+003,1.539439e-004
2.026852e+003,1.534596e-004
2.028781e+003,1.529679e-004
2.030709e+003,1.524687e-004
2.032637e+003,1.519471e-004
2.034566e+003,1.514256e-004
2.036494e+003,1.509041e-004
2.038423e+003,1.503602e-004
2.040351e+003,1.498014e-004
2.042280e+003,1.492500e-004
2.044208e+003,1.486763e-004
2.046137e+003,1.481026e-004
2.048065e+003,1.475215e-004
2.049994e+003,1.469254e-004
2.051922e+003,1.463220e-004
2.053851e+003,1.457185e-004
2.055779e+003,1.451001e-004
2.057708e+003,1.444668e-004
2.059636e+003,1.438260e-004
2.061565e+003,1.431853e-004
2.063493e+003,1.425222e-004
2.065422e+003,1.418516e-004
2.067350e+003,1.411736e-004
2.069279e+003,1.404956e-004
2.071207e+003,1.398101e-004
2.073136e+003,1.391023e-004
2.075064e+003,1.383945e-004
2.076993e+003,1.376718e-004
2.078921e+003,1.369491e-004
2.080850e+003,1.362041e-004
2.082778e+003,1.354590e-004
2.084707e+003,1.347139e-004
2.086635e+003,1.339465e-004
2.088564e+003,1.331791e-004
2.090492e+003,1.323968e-004
2.092421e+003,1.315996e-004
2.094349e+003,1.307875e-004
2.096278e+003,1.299828e-004
2.098206e+003,1.291782e-004
2.100135e+003,1.283512e-004
2.102063e+003,1.275092e-004
2.103992e+003,1.266599e-004
2.105920e+003,1.258105e-004
2.107849e+003,1.249537e-004
2.109777e+003,1.240745e-004
2.111706e+003,1.231879e-004
2.113634e+003,1.223087e-004
2.115563e+003,1.214072e-004
2.117491e+003,1.205057e-004
2.119420e+003,1.195818e-004
2.121348e+003,1.186505e-004
2.123277e+003,1.177192e-004
2.125205e+003,1.167804e-004
2.127134e+003,1.158193e-004
2.129062e+003,1.148656e-004
2.130991e+003,1.138970e-004
2.132919e+003,1.129210e-004
2.134848e+003,1.119301e-004
2.136776e+003,1.109317e-004
2.138705e+003,1.099259e-004
2.140633e+003,1.089126e-004
2.142562e+003,1.078919e-004
2.144490e+003,1.068637e-004
2.146419e+003,1.058131e-004
2.148347e+003,1.047626e-004
2.150276e+003,1.036972e-004
2.152204e+003,1.026317e-004
2.154133e+003,1.015440e-004
2.156061e+003,1.004711e-004
2.157990e+003,9.937584e-005
2.159918e+003,9.826571e-005
2.161847e+003,9.715557e-005
2.163775e+003,9.603053e-005
2.165704e+003,9.489805e-005
2.167632e+003,9.375066e-005
2.169561e+003,9.261072e-005
2.171489e+003,9.144843e-005
2.173418e+003,9.027869e-005
2.175346e+003,8.910149e-005
2.177275e+003,8.792430e-005
2.179203e+003,8.672476e-005
2.181132e+003,8.552521e-005
2.183060e+003,8.430332e-005
2.184989e+003,8.308887e-005
2.186917e+003,8.186698e-005
2.188846e+003,8.062273e-005
2.190774e+003,7.937104e-005
2.192703e+003,7.810444e-005
2.194631e+003,7.684529e-005
2.196560e+003,7.557124e-005
2.198488e+003,7.428229e-005
2.200417e+003,7.299334e-005
2.202345e+003,7.168949e-005
2.204274e+003,7.038563e-005
2.206202e+003,6.905943e-005
2.208131e+003,6.773323e-005
2.210059e+003,6.639212e-005
2.211988e+003,6.504357e-005
2.213916e+003,6.368756e-005
2.215845e+003,6.232411e-005
2.217773e+003,6.095320e-005
2.219702e+003,5.957484e-005
2.221630e+003,5.818158e-005
2.223559e+003,5.678087e-005
2.225487e+003,5.537271e-005
2.227416e+003,5.394965e-005
2.229344e+003,5.251169e-005
2.231273e+003,5.108863e-005
2.233201e+003,4.963577e-005
2.235130e+003,4.818290e-005
2.237058e+003,4.672259e-005
2.238987e+003,4.524738e-005
2.240915e+003,4.376471e-005
2.242844e+003,4.227459e-005
2.244772e+003,4.078448e-005
2.246701e+003,3.927201e-005
2.248629e+003,3.775954e-005
2.250558e+003,3.622472e-005
2.252486e+003,3.468990e-005
2.254415e+003,3.314763e-005
2.256343e+003,3.159046e-005
2.258272e+003,3.002584e-005
2.260200e+003,2.845377e-005
2.262129e+003,2.688169e-005
2.264057e+003,2.529472e-005
2.265986e+003,2.369285e-005
2.267914e+003,2.208352e-005
2.269843e+003,2.046674e-005
2.271771e+003,1.884997e-005
2.273700e+003,1.721084e-005
2.275628e+003,1.557171e-005
2.277557e+003,1.392514e-005
2.279485e+003,1.226366e-005
2.281414e+003,1.058728e-005
2.283342e+003,8.903444e-006
2.285271e+003,7.219613e-006
2.287199e+003,5.520880e-006
2.289128e+003,3.822148e-006
2.291056e+003,2.108514e-006
2.292985e+003,3.799796e-007
2.294913e+003,-1.356006e-006
2.296842e+003,-3.084540e-006
2.298770e+003,-4.842877e-006
2.300699e+003,-6.601214e-006
2.302627e+003,-8.367002e-006
2.304556e+003,-1.014024e-005
2.306484e+003,-1.193583e-005
2.308413e+003,-1.373142e-005
2.310341e+003,-1.554191e-005
2.312270e+003,-1.735240e-005
2.314198e+003,-1.917779e-005
2.316127e+003,-2.100319e-005
2.318055e+003,-2.284348e-005
2.319984e+003,-2.469122e-005
2.321912e+003,-2.654642e-005
2.323841e+003,-2.841651e-005
2.325769e+003,-3.028661e-005
2.327698e+003,-3.217906e-005
2.329626e+003,-3.406405e-005
2.331555e+003,-3.597140e-005
2.333483e+003,-3.787875e-005
2.335412e+003,-3.980845e-005
2.337340e+003,-4.173815e-005
2.339269e+003,-4.366785e-005
2.341197e+003,-4.561990e-005
2.343126e+003,-4.758686e-005
2.345054e+003,-4.955381e-005
2.346983e+003,-5.152076e-005
2.348911e+003,-5.349517e-005
2.350840e+003,-5.549192e-005
2.352768e+003,-5.748868e-005
2.354697e+003,-5.950034e-005
2.356625e+003,-6.152689e-005
2.358554e+003,-6.356090e-005
2.360482e+003,-6.559491e-005
2.362411e+003,-6.764382e-005
2.364339e+003,-6.969273e-005
2.366268e+003,-7.175654e-005
2.368196e+003,-7.383525e-005
2.370125e+003,-7.591397e-005
2.372053e+003,-7.800758e-005
2.373982e+003,-8.010119e-005
2.375910e+003,-8.221716e-005
2.377839e+003,-8.432567e-005
2.379767e+003,-8.645654e-005
2.381696e+003,-8.859485e-005
2.383624e+003,-9.073317e-005
2.385553e+003,-9.289384e-005
2.387481e+003,-9.505451e-005
2.389410e+003,-9.723753e-005
2.391338e+003,-9.940565e-005
2.393267e+003,-1.016036e-004
2.395195e+003,-1.037940e-004
2.397124e+003,-1.059994e-004
2.399052e+003,-1.082271e-004
2.400981e+003,-1.223534e-004
2.402909e+003,-1.356453e-004
2.404838e+003,5.584955e-005
2.406766e+003,2.630576e-004
2.408695e+003,3.641024e-004
2.410623e+003,3.280267e-004
2.412552e+003,4.379228e-004
2.414480e+003,3.864914e-004
2.416409e+003,3.615245e-004
2.418337e+003,4.088730e-004
2.420266e+003,4.708022e-004
2.422194e+003,5.107597e-004
2.424123e+003,4.078448e-004
2.426051e+003,3.085211e-004
2.427979e+003,3.102645e-004
2.429908e+003,3.359616e-004
2.431837e+003,4.006028e-004
2.433765e+003,3.297627e-004
2.435694e+003,3.618151e-004
2.437622e+003,4.842654e-004
2.439551e+003,4.303530e-004
2.441479e+003,2.799183e-004
2.443407e+003,3.846735e-004
2.445336e+003,2.771094e-004
2.447265e+003,3.368109e-004
2.449193e+003,4.048645e-004
2.451122e+003,4.742444e-004
2.453050e+003,4.935935e-004
2.454979e+003,4.755035e-004
2.456907e+003,3.584623e-004
2.458836e+003,1.905411e-004
2.460764e+003,9.704381e-005
2.462693e+003,2.294481e-004
2.464621e+003,3.307685e-004
2.466550e+003,2.304316e-004
2.468478e+003,2.350882e-004
2.470406e+003,3.958642e-004
2.472335e+003,5.459785e-004
2.474264e+003,6.577149e-004
2.476192e+003,5.775020e-004
2.478121e+003,6.703287e-004
2.480049e+003,6.857589e-004
2.481978e+003,7.765740e-004
2.483906e+003,8.587912e-004
2.485835e+003,1.016736e-003
2.487763e+003,9.719059e-004
2.489692e+003,1.004405e-003
2.491620e+003,9.764954e-004
2.493549e+003,8.805841e-004
2.495477e+003,1.007676e-003
2.497406e+003,1.141332e-003
2.499334e+003,1.165725e-003
2.501263e+003,1.338273e-003
2.503191e+003,1.289122e-003
2.505120e+003,1.275428e-003
2.507048e+003,1.354896e-003
2.508977e+003,1.400962e-003
2.510905e+003,1.303911e-003
2.512833e+003,1.337551e-003
2.514762e+003,1.427747e-003
2.516691e+003,1.565479e-003
2.518619e+003,1.651935e-003
2.520548e+003,1.887500e-003
2.522476e+003,1.957580e-003
2.524405e+003,1.975507e-003
2.526333e+003,2.087995e-003
2.528261e+003,2.301507e-003
2.530190e+003,2.353743e-003
2.532119e+003,2.345718e-003
2.534047e+003,2.243586e-003
2.535976e+003,2.144389e-003
2.537904e+003,2.228834e-003
2.539833e+003,2.299808e-003
2.541761e+003,2.304092e-003
2.543689e+003,2.553545e-003
2.545618e+003,2.723962e-003
2.547547e+003,2.900787e-003
2.549475e+003,3.002264e-003
2.551404e+003,3.110580e-003
2.553332e+003,3.243580e-003
2.555260e+003,3.273189e-003
2.557189e+003,3.235780e-003
2.559117e+003,3.305010e-003
2.561046e+003,3.403254e-003
2.562975e+003,3.541514e-003
2.564903e+003,3.696583e-003
2.566832e+003,3.962964e-003
2.568760e+003,4.146941e-003
2.570688e+003,4.332885e-003
2.572617e+003,4.456669e-003
2.574546e+003,4.530869e-003
2.576474e+003,4.605234e-003
2.578403e+003,4.753560e-003
2.580331e+003,4.953161e-003
2.582260e+003,5.077422e-003
2.584188e+003,5.167060e-003
2.586116e+003,5.434200e-003
2.588045e+003,5.682379e-003
2.589974e+003,5.887456e-003
2.591902e+003,6.087452e-003
2.593831e+003,6.149471e-003
2.595759e+003,6.320380e-003
2.597688e+003,6.642550e-003
2.599616e+003,6.909087e-003
2.601544e+003,7.060066e-003
2.603473e+003,7.128954e-003
2.605402e+003,7.237740e-003
2.607330e+003,7.450417e-003
2.609259e+003,7.844955e-003
2.611187e+003,8.244909e-003
2.613115e+003,8.546680e-003
2.615044e+003,8.814469e-003
2.616972e+003,9.056486e-003
2.618901e+003,9.309225e-003
2.620830e+003,9.656131e-003
2.622758e+003,1.011273e-002
2.624687e+003,1.051246e-002
2.626615e+003,1.084193e-002
2.628543e+003,1.135061e-002
2.630472e+003,1.186005e-002
2.632400e+003,1.217803e-002
2.634329e+003,1.234196e-002
2.636258e+003,1.237994e-002
2.638186e+003,1.230888e-002
2.640115e+003,1.235335e-002
2.642043e+003,1.235449e-002
2.643971e+003,1.228454e-002
2.645900e+003,1.230200e-002
2.647828e+003,1.229256e-002
2.649757e+003,1.235113e-002
2.651686e+003,1.256055e-002
2.653614e+003,1.278850e-002
2.655542e+003,1.289164e-002
2.657471e+003,1.290766e-002
2.659399e+003,1.294358e-002
2.661328e+003,1.293799e-002
2.663256e+003,1.274236e-002
2.665185e+003,1.256832e-002
2.667114e+003,1.249143e-002
2.669042e+003,1.237037e-002
2.670970e+003,1.220322e-002
2.672899e+003,1.207761e-002
2.674827e+003,1.197974e-002
2.676756e+003,1.180536e-002
2.678685e+003,1.167358e-002
2.680613e+003,1.161336e-002
2.682542e+003,1.153030e-002
2.684470e+003,1.143037e-002
2.686398e+003,1.130802e-002
2.688327e+003,1.115092e-002
2.690255e+003,1.098903e-002
2.692184e+003,1.088610e-002
2.694113e+003,1.090601e-002
2.696041e+003,1.090272e-002
2.697969e+003,1.091748e-002
2.699898e+003,1.096626e-002
2.701826e+003,1.106931e-002
2.703755e+003,1.121218e-002
2.705683e+003,1.136415e-002
2.707612e+003,1.155578e-002
2.709541e+003,1.173620e-002
2.711469e+003,1.188614e-002
2.713397e+003,1.208223e-002
2.715326e+003,1.224761e-002
2.717254e+003,1.244996e-002
2.719183e+003,1.265401e-002
2.721111e+003,1.285264e-002
2.723040e+003,1.314671e-002
2.724969e+003,1.342175e-002
2.726897e+003,1.370228e-002
2.728825e+003,1.395778e-002
2.730754e+003,1.427884e-002
2.732682e+003,1.448914e-002
2.734611e+003,1.461334e-002
2.736539e+003,1.473970e-002
2.738468e+003,1.483259e-002
2.740396e+003,1.485234e-002
2.742325e+003,1.494640e-002
2.744253e+003,1.500998e-002
2.746182e+003,1.502336e-002
2.748110e+003,1.500017e-002
2.750039e+003,1.499882e-002
2.751967e+003,1.515806e-002
2.753896e+003,1.537856e-002
2.755824e+003,1.562363e-002
2.757753e+003,1.592583e-002
2.759681e+003,1.631021e-002
2.761610e+003,1.675119e-002
2.763538e+003,1.716515e-002
2.765467e+003,1.758656e-002
2.767395e+003,1.803347e-002
2.769324e+003,1.853807e-002
2.771252e+003,1.915608e-002
2.773181e+003,1.990837e-002
2.775109e+003,2.072828e-002
2.777038e+003,2.161499e-002
2.778966e+003,2.249826e-002
2.780895e+003,2.345397e-002
2.782823e+003,2.458566e-002
2.784752e+003,2.588958e-002
2.786680e+003,2.732723e-002
2.788609e+003,2.874910e-002
2.790537e+003,3.020314e-002
2.792466e+003,3.190352e-002
2.794394e+003,3.374446e-002
2.796323e+003,3.553609e-002
2.798251e+003,3.741298e-002
2.800180e+003,3.940340e-002
2.802108e+003,4.147107e-002
2.804037e+003,4.370999e-002
2.805965e+003,4.617684e-002
2.807894e+003,4.897019e-002
2.809822e+003,5.191356e-002
2.811751e+003,5.518083e-002
2.813679e+003,5.892587e-002
2.815608e+003,6.328647e-002
2.817536e+003,6.833007e-002
2.819465e+003,7.427723e-002
2.821393e+003,8.131859e-002
2.823322e+003,8.990060e-002
2.825250e+003,1.005519e-001
2.827179e+003,1.140144e-001
2.829107e+003,1.314238e-001
2.831036e+003,1.546910e-001
2.832964e+003,1.867141e-001
2.834893e+003,2.319879e-001
2.836821e+003,2.963029e-001
2.838750e+003,3.892176e-001
2.840678e+003,5.260229e-001
2.842607e+003,7.261847e-001
2.844535e+003,9.974488e-001
2.846464e+003,1.266582e+000
2.848392e+003,1.302207e+000
2.850321e+003,1.058896e+000
2.852249e+003,7.870765e-001
2.854178e+003,5.938740e-001
2.856106e+003,4.615401e-001
2.858035e+003,3.671303e-001
2.859963e+003,2.992399e-001
2.861892e+003,2.514964e-001
2.863820e+003,2.194776e-001
2.865749e+003,2.001889e-001
2.867677e+003,1.910484e-001
2.869606e+003,1.886078e-001
2.871534e+003,1.897819e-001
2.873463e+003,1.939063e-001
2.875391e+003,2.023659e-001
2.877320e+003,2.164660e-001
2.879248e+003,2.362719e-001
2.881177e+003,2.609514e-001
2.883105e+003,2.894622e-001
2.885034e+003,3.210931e-001
2.886962e+003,3.552074e-001
2.888891e+003,3.909696e-001
2.890819e+003,4.273870e-001
2.892748e+003,4.636775e-001
2.894676e+003,4.997391e-001
2.896605e+003,5.362498e-001
2.898533e+003,5.745933e-001
2.900462e+003,6.173730e-001
2.902390e+003,6.686950e-001
2.904319e+003,7.345326e-001
2.906247e+003,8.236199e-001
2.908176e+003,9.461191e-001
2.910104e+003,1.111141e+000
2.912033e+003,1.312804e+000
2.913961e+003,1.491748e+000
2.915890e+003,1.528988e+000
2.917818e+003,1.388529e+000
2.919747e+003,1.177115e+000
2.921675e+003,9.813241e-001
2.923604e+003,8.219247e-001
2.925532e+003,6.947171e-001
2.927461e+003,5.908791e-001
2.929389e+003,5.034403e-001
2.931318e+003,4.284843e-001
2.933246e+003,3.640063e-001
2.935175e+003,3.087299e-001
2.937103e+003,2.615660e-001
2.939032e+003,2.215938e-001
2.940960e+003,1.882712e-001
2.942889e+003,1.612675e-001
2.944817e+003,1.405233e-001
2.946746e+003,1.258705e-001
2.948674e+003,1.166623e-001
2.950603e+003,1.115539e-001
2.952531e+003,1.083661e-001
2.954460e+003,1.051047e-001
2.956388e+003,1.009757e-001
2.958317e+003,9.564279e-002
2.960245e+003,8.930869e-002
2.962174e+003,8.194320e-002
2.964102e+003,7.392986e-002
2.966031e+003,6.576276e-002
2.967959e+003,5.791520e-002
2.969888e+003,5.066048e-002
2.971816e+003,4.435059e-002
2.973745e+003,3.903976e-002
2.975673e+003,3.457788e-002
2.977602e+003,3.092288e-002
2.979530e+003,2.790453e-002
2.981459e+003,2.534773e-002
2.983387e+003,2.328008e-002
2.985316e+003,2.152634e-002
2.987244e+003,2.005384e-002
2.989173e+003,1.880428e-002
2.991101e+003,1.781300e-002
2.993030e+003,1.692848e-002
2.994958e+003,1.623695e-002
2.996887e+003,1.573062e-002
2.998815e+003,1.531216e-002
3.000744e+003,1.484261e-002
3.002672e+003,1.431542e-002
3.004601e+003,1.386023e-002
3.006529e+003,1.348178e-002
3.008458e+003,1.305791e-002
3.010386e+003,1.259740e-002
3.012315e+003,1.209039e-002
3.014243e+003,1.163194e-002
3.016172e+003,1.124926e-002
3.018100e+003,1.092194e-002
3.020029e+003,1.059151e-002
3.021957e+003,1.029659e-002
3.023886e+003,9.997413e-003
3.025814e+003,9.687647e-003
3.027743e+003,9.406865e-003
3.029671e+003,9.183601e-003
3.031600e+003,8.879103e-003
3.033528e+003,8.580983e-003
3.035457e+003,8.263007e-003
3.037385e+003,7.962465e-003
3.039314e+003,7.745571e-003
3.041242e+003,7.407092e-003
3.043171e+003,7.006548e-003
3.045099e+003,6.699309e-003
3.047028e+003,6.439358e-003
3.048956e+003,6.228700e-003
3.050885e+003,6.014608e-003
3.052813e+003,5.867414e-003
3.054742e+003,5.731717e-003
3.056670e+003,5.488090e-003
3.058599e+003,5.212210e-003
3.060527e+003,5.122982e-003
3.062456e+003,5.072616e-003
3.064384e+003,5.005479e-003
3.066313e+003,4.912965e-003
3.068241e+003,4.673861e-003
3.070170e+003,4.440472e-003
3.072098e+003,4.389256e-003
3.074027e+003,4.362457e-003
3.075955e+003,4.256956e-003
3.077884e+003,4.079491e-003
3.079812e+003,4.054204e-003
3.081741e+003,4.020333e-003
3.083669e+003,3.746942e-003
3.085598e+003,3.546536e-003
3.087526e+003,3.432482e-003
3.089455e+003,3.225788e-003
3.091383e+003,2.976142e-003
3.093312e+003,2.719998e-003
3.095240e+003,2.492413e-003
3.097169e+003,2.177142e-003
3.099097e+003,1.903780e-003
3.101026e+003,1.765668e-003
3.102954e+003,1.631618e-003
3.104883e+003,1.442857e-003
3.106811e+003,1.328699e-003
3.108740e+003,1.188472e-003
3.110668e+003,1.043834e-003
3.112597e+003,9.928346e-004
3.114525e+003,9.555444e-004
3.116454e+003,8.747578e-004
3.118382e+003,8.166283e-004
3.120311e+003,7.559508e-004
3.122239e+003,5.978495e-004
3.124168e+003,5.383268e-004
3.126096e+003,6.079525e-004
3.128025e+003,5.254075e-004
3.129953e+003,4.007369e-004
3.131882e+003,3.856868e-004
3.133810e+003,4.418492e-004
3.135739e+003,3.768206e-004
3.137667e+003,4.011467e-004
3.139596e+003,5.048960e-004
3.141524e+003,4.324019e-004
3.143453e+003,2.704188e-004
3.145381e+003,1.255423e-004
3.147310e+003,9.553134e-005
3.149238e+003,2.515167e-004
3.151167e+003,3.457963e-004
3.153095e+003,3.354251e-004
3.155024e+003,2.659112e-004
3.156952e+003,2.370328e-004
3.158881e+003,2.876073e-004
3.160809e+003,2.136156e-004
3.162738e+003,1.539513e-004
3.164666e+003,2.625063e-004
3.166594e+003,2.407953e-004
3.168523e+003,1.608878e-004
3.170452e+003,1.728758e-004
3.172380e+003,2.680421e-004
3.174309e+003,3.536269e-004
3.176237e+003,2.975315e-004
3.178166e+003,2.187714e-004
3.180094e+003,1.661927e-004
3.182022e+003,2.696216e-004
3.183951e+003,2.748370e-004
3.185880e+003,1.905933e-004
3.187808e+003,1.574457e-004
3.189737e+003,1.979843e-004
3.191665e+003,1.527220e-004
3.193594e+003,1.560599e-004
3.195522e+003,2.647117e-004
3.197450e+003,2.752244e-004
3.199379e+003,2.323017e-004
3.201308e+003,2.122074e-004
3.203236e+003,2.618060e-004
3.205165e+003,3.409311e-004
3.207093e+003,2.333149e-004
3.209021e+003,1.523197e-004
3.210950e+003,1.575872e-004
3.212878e+003,2.175495e-004
3.214807e+003,2.012774e-004
3.216736e+003,1.700670e-004
3.218664e+003,2.316460e-004
3.220593e+003,2.877191e-004
3.222521e+003,2.576560e-004
3.224449e+003,2.020895e-004
3.226378e+003,3.465638e-004
3.228307e+003,4.802048e-004
3.230235e+003,5.093291e-004
3.232164e+003,4.023090e-004
3.234092e+003,3.372207e-004
3.236021e+003,3.443360e-004
3.237949e+003,4.544109e-004
3.239877e+003,5.838200e-004
3.241806e+003,5.796775e-004
3.243735e+003,5.591065e-004
3.245663e+003,5.683377e-004
3.247592e+003,5.752742e-004
3.249520e+003,6.619170e-004
3.251448e+003,7.271990e-004
3.253377e+003,7.971153e-004
3.255305e+003,8.617267e-004
3.257234e+003,9.629205e-004
3.259163e+003,1.056761e-003
3.261091e+003,1.064099e-003
3.263020e+003,1.091853e-003
3.264948e+003,1.043715e-003
3.266876e+003,1.088262e-003
3.268805e+003,1.177847e-003
3.270733e+003,1.143768e-003
3.272662e+003,1.138695e-003
3.274591e+003,1.217037e-003
3.276519e+003,1.316354e-003
3.278448e+003,1.317024e-003
3.280376e+003,1.189746e-003
3.282304e+003,1.269840e-003
3.284233e+003,1.398921e-003
3.286161e+003,1.415804e-003
3.288090e+003,1.364015e-003
3.290019e+003,1.260497e-003
3.291947e+003,1.208097e-003
3.293875e+003,1.157761e-003
3.295804e+003,1.140065e-003
3.297732e+003,1.166649e-003
3.299661e+003,1.190908e-003
3.301589e+003,1.240849e-003
3.303518e+003,1.292937e-003
3.305447e+003,1.220703e-003
3.307375e+003,1.230903e-003
3.309303e+003,1.209565e-003
3.311232e+003,1.172379e-003
3.313160e+003,1.152903e-003
3.315089e+003,1.025923e-003
3.317018e+003,9.304881e-004
3.318946e+003,9.549558e-004
3.320875e+003,9.655952e-004
3.322803e+003,9.759963e-004
3.324731e+003,1.035057e-003
3.326660e+003,1.037382e-003
3.328588e+003,9.601563e-004
3.330517e+003,9.202957e-004
3.332446e+003,8.193329e-004
3.334374e+003,7.793307e-004
3.336302e+003,8.319840e-004
3.338231e+003,8.166581e-004
3.340159e+003,7.875264e-004
3.342088e+003,8.317232e-004
3.344016e+003,8.253977e-004
3.345945e+003,7.590428e-004
3.347874e+003,7.363930e-004
3.349802e+003,7.183105e-004
3.351730e+003,6.716475e-004
3.353659e+003,6.121397e-004
3.355587e+003,5.137697e-004
3.357516e+003,4.594028e-004
3.359444e+003,5.621538e-004
3.361373e+003,6.248057e-004
3.363302e+003,5.414188e-004
3.365230e+003,6.019473e-004
3.367158e+003,6.861240e-004
3.369087e+003,5.688518e-004
3.371015e+003,4.034787e-004
3.372944e+003,4.018620e-004
3.374872e+003,3.400072e-004
3.376801e+003,2.710223e-004
3.378729e+003,2.534389e-004
3.380658e+003,2.127588e-004
3.382586e+003,1.633763e-004
3.384515e+003,1.698732e-004
3.386443e+003,1.776144e-004
3.388372e+003,5.292147e-005
3.390300e+003,3.878027e-005
3.392229e+003,3.632903e-005
3.394157e+003,-7.098168e-005
3.396086e+003,-1.219511e-004
3.398014e+003,-1.677200e-004
3.399943e+003,-1.902133e-004
3.401871e+003,-2.469420e-004
3.403800e+003,-2.613142e-004
3.405728e+003,-2.331436e-004
3.407657e+003,-1.814663e-004
3.409585e+003,-7.653981e-005
3.411514e+003,-5.680323e-005
3.413442e+003,-6.856024e-005
3.415371e+003,-5.163252e-005
3.417299e+003,-1.281947e-004
3.419228e+003,-5.491078e-005
3.421156e+003,1.958013e-005
3.423085e+003,-1.652986e-004
3.425013e+003,-3.442317e-004
3.426942e+003,-2.149045e-004
3.428870e+003,-1.002029e-004
3.430799e+003,-9.320676e-005
3.432727e+003,-1.435578e-004
3.434656e+003,-1.460761e-004
3.436584e+003,-2.148971e-004
3.438513e+003,-2.085790e-004
3.440441e+003,-1.454204e-004
3.442370e+003,-6.572902e-005
3.444298e+003,-1.605302e-004
3.446227e+003,-1.521856e-004
3.448155e+003,-3.519133e-004
3.450084e+003,-5.471483e-004
3.452012e+003,-5.567446e-004
3.453941e+003,-4.810244e-004
3.455869e+003,-4.583523e-004
3.457798e+003,-4.967377e-004
3.459726e+003,-5.866066e-004
3.461655e+003,-5.818605e-004
3.463583e+003,-6.058365e-004
3.465512e+003,-7.068664e-004
3.467440e+003,-6.734133e-004
3.469369e+003,-6.852746e-004
3.471297e+003,-7.055253e-004
3.473226e+003,-7.236451e-004
3.475154e+003,-7.330552e-004
3.477083e+003,-6.866828e-004
3.479011e+003,-6.015226e-004
3.480940e+003,-5.658939e-004
3.482868e+003,-5.866513e-004
3.484797e+003,-7.577017e-004
3.486725e+003,-7.511675e-004
3.488654e+003,-7.563978e-004
3.490582e+003,-9.324625e-004
3.492511e+003,-9.641424e-004
3.494439e+003,-9.213164e-004
3.496368e+003,-7.325634e-004
3.498296e+003,-7.766187e-004
3.500225e+003,-8.354485e-004
3.502153e+003,-5.557612e-004
3.504082e+003,-5.396530e-004
3.506010e+003,-1.017056e-003
3.507939e+003,-9.797812e-004
3.509867e+003,-7.549226e-004
3.511796e+003,-7.853210e-004
3.513724e+003,-9.850636e-004
3.515653e+003,-1.155719e-003
3.517581e+003,-1.031548e-003
3.519510e+003,-9.413511e-004
3.521438e+003,-9.360090e-004
3.523367e+003,-7.927716e-004
3.525295e+003,-8.776039e-004
3.527224e+003,-9.085760e-004
3.529152e+003,-9.463131e-004
3.531081e+003,-1.130670e-003
3.533009e+003,-1.316577e-003
3.534938e+003,-1.156487e-003
3.536866e+003,-1.123458e-003
3.538795e+003,-1.306370e-003
3.540723e+003,-1.278117e-003
3.542652e+003,-1.069181e-003
3.544580e+003,-7.101893e-004
3.546509e+003,-6.867573e-004
3.548437e+003,-1.231998e-003
3.550366e+003,-1.363695e-003
3.552294e+003,-9.286180e-004
3.554223e+003,-9.903908e-004
3.556151e+003,-1.311824e-003
3.558080e+003,-1.396976e-003
3.560008e+003,-1.191474e-003
3.561937e+003,-9.863526e-004
3.563865e+003,-6.474704e-004
3.565794e+003,2.658665e-004
3.567722e+003,1.818687e-004
3.569651e+003,-1.188166e-003
3.571579e+003,-1.705572e-003
3.573508e+003,-1.319766e-003
3.575436e+003,-9.836331e-004
3.577365e+003,-1.214780e-003
3.579293e+003,-1.430988e-003
3.581222e+003,-1.181588e-003
3.583150e+003,-1.011521e-003
3.585079e+003,-6.960332e-004
3.587007e+003,5.161315e-004
3.588936e+003,-2.254546e-005
3.590864e+003,-8.941144e-004
3.592793e+003,-4.627258e-004
3.594721e+003,4.172772e-004
3.596650e+003,4.333705e-004
3.598578e+003,4.326105e-004
3.600507e+003,9.481013e-004
3.602435e+003,1.379162e-003
3.604364e+003,1.330823e-003
3.606292e+003,1.729846e-003
3.608221e+003,2.229258e-003
3.610149e+003,1.507550e-003
3.612078e+003,1.290426e-003
3.614006e+003,1.471952e-003
3.615935e+003,8.694082e-004
3.617863e+003,8.756369e-004
3.619792e+003,9.308159e-004
3.621720e+003,1.637638e-005
3.623649e+003,-2.546906e-004
3.625577e+003,-4.088879e-005
3.627506e+003,1.192942e-003
3.629434e+003,1.829669e-003
3.631363e+003,1.867563e-004
3.633291e+003,8.580089e-005
3.635220e+003,3.125519e-004
3.637148e+003,9.429455e-005
3.639077e+003,-1.442879e-004
3.641005e+003,-2.790987e-005
3.642934e+003,2.956241e-004
3.644862e+003,8.346289e-004
3.646791e+003,2.433315e-003
3.648719e+003,3.957108e-003
3.650648e+003,2.764598e-003
3.652576e+003,6.437302e-006
3.654505e+003,-3.631115e-004
3.656433e+003,4.655272e-004
3.658362e+003,-1.870841e-004
3.660290e+003,-6.987900e-004
3.662219e+003,-5.545616e-004
3.664147e+003,-4.681349e-004
3.666076e+003,-4.296750e-004
3.668004e+003,3.828257e-004
3.669933e+003,2.112776e-003
3.671861e+003,8.490682e-004
3.673790e+003,1.280904e-003
3.675718e+003,3.481656e-003
3.677647e+003,9.898692e-004
3.679575e+003,-5.165637e-004
3.681504e+003,-7.238686e-004
3.683432e+003,-3.302842e-004
3.685361e+003,1.024753e-004
3.687289e+003,1.245767e-003
3.689218e+003,1.731724e-003
3.691146e+003,3.037900e-004
3.693075e+003,-7.776171e-004
3.695003e+003,-3.625304e-004
3.696932e+003,2.526939e-004
3.698860e+003,-1.257360e-004
3.700789e+003,-1.468807e-004
3.702717e+003,-5.567074e-004
3.704646e+003,-7.910281e-004
3.706574e+003,-1.768619e-004
3.708503e+003,1.209438e-003
3.710431e+003,2.450243e-003
3.712360e+003,1.411706e-003
3.714288e+003,-5.540252e-004
3.716217e+003,-1.082957e-003
3.718145e+003,-2.519935e-004
3.720074e+003,7.908195e-004
3.722002e+003,1.191154e-003
3.723931e+003,5.843192e-004
3.725859e+003,1.237243e-004
3.727788e+003,-2.183765e-004
3.729716e+003,1.712888e-004
3.731645e+003,1.693219e-003
3.733573e+003,3.205031e-003
3.735502e+003,3.178075e-003
3.737430e+003,1.163527e-003
3.739359e+003,5.693287e-004
3.741287e+003,5.158484e-004
3.743216e+003,2.198681e-003
3.745144e+003,3.077939e-003
3.747073e+003,1.324981e-003
3.749001e+003,1.813710e-003
3.750930e+003,3.686085e-003
3.752858e+003,2.419442e-003
3.754787e+003,9.895861e-004
3.756715e+003,6.007105e-004
3.758644e+003,5.892962e-004
3.760572e+003,6.999075e-005
3.762501e+003,-7.520020e-004
3.764429e+003,3.635883e-006
3.766358e+003,5.765855e-004
3.768286e+003,3.980398e-004
3.770215e+003,6.108135e-004
3.772143e+003,-1.841486e-004
3.774072e+003,-6.360412e-004
3.776000e+003,-3.405660e-004
3.777929e+003,-5.775690e-005
3.779857e+003,1.604408e-004
3.781786e+003,-3.751069e-004
3.783714e+003,-3.613234e-004
3.785643e+003,8.971989e-005
3.787571e+003,-1.654178e-004
3.789500e+003,-2.209395e-004
3.791428e+003,-1.803339e-004
3.793357e+003,-6.794333e-004
3.795285e+003,8.833408e-005
3.797214e+003,4.149377e-004
3.799142e+003,1.546144e-004
3.801071e+003,2.384856e-003
3.802999e+003,1.645908e-003
3.804927e+003,4.149675e-004
3.806856e+003,6.905943e-004
3.808785e+003,-7.905066e-005
3.810713e+003,-4.574955e-004
3.812642e+003,-1.241863e-004
3.814570e+003,1.124308e-003
3.816499e+003,1.996234e-003
3.818427e+003,1.008585e-003
3.820355e+003,1.656070e-003
3.822284e+003,1.672417e-003
3.824213e+003,6.275475e-004
3.826141e+003,9.070635e-004
3.828070e+003,7.657558e-004
3.829998e+003,2.134591e-004
3.831927e+003,2.044290e-004
3.833855e+003,8.154064e-004
3.835783e+003,1.589969e-003
3.837712e+003,3.270537e-003
3.839641e+003,2.940580e-003
3.841569e+003,1.198173e-003
3.843498e+003,6.153584e-004
3.845426e+003,-7.301569e-007
3.847354e+003,5.978346e-005
3.849283e+003,1.105383e-003
3.851211e+003,2.597570e-003
3.853140e+003,5.643979e-003
3.855069e+003,2.789631e-003
3.856997e+003,6.921142e-004
3.858926e+003,5.832613e-004
3.860854e+003,1.174316e-003
3.862782e+003,1.466438e-003
3.864711e+003,2.050430e-003
3.866640e+003,1.105651e-003
3.868568e+003,1.735359e-003
3.870497e+003,2.299577e-003
3.872425e+003,1.428872e-003
3.874354e+003,1.373410e-003
3.876282e+003,6.872863e-004
3.878210e+003,5.720109e-004
3.880139e+003,1.845747e-003
3.882068e+003,1.085296e-003
3.883996e+003,7.249117e-004
3.885925e+003,1.716509e-003
3.887853e+003,9.246916e-004
3.889781e+003,9.434819e-004
3.891710e+003,1.918063e-003
3.893638e+003,1.061708e-003
3.895567e+003,1.514256e-004
3.897496e+003,7.953644e-004
3.899424e+003,2.118140e-003
3.901353e+003,2.533332e-003
3.903281e+003,2.529934e-003
3.905209e+003,1.492098e-003
3.907138e+003,5.422235e-004
3.909066e+003,2.097040e-004
3.910995e+003,5.202442e-004
3.912924e+003,5.542785e-004
3.914852e+003,7.623732e-004
3.916781e+003,1.143366e-003
3.918709e+003,1.054943e-003
3.920637e+003,6.674081e-004
3.922566e+003,6.516278e-004
3.924494e+003,1.162782e-003
3.926423e+003,9.018183e-004
3.928352e+003,7.268488e-004
3.930280e+003,1.046762e-003
3.932208e+003,1.273051e-003
3.934137e+003,5.146563e-004
3.936065e+003,1.853257e-004
3.937994e+003,4.274249e-004
3.939922e+003,4.512668e-004
3.941851e+003,7.431358e-004
3.943780e+003,7.049739e-004
3.945708e+003,3.420711e-004
3.947636e+003,5.591512e-004
3.949565e+003,8.150041e-004
3.951493e+003,4.517138e-004
3.953422e+003,1.848340e-004
3.955351e+003,3.352463e-004
3.957279e+003,4.613400e-004
3.959208e+003,3.538281e-004
3.961136e+003,4.667789e-004
3.963064e+003,4.807711e-004
3.964993e+003,2.682954e-004
3.966921e+003,1.880229e-004
3.968850e+003,2.322942e-004
3.970779e+003,2.629012e-004
3.972707e+003,2.466440e-004
3.974635e+003,3.875047e-004
3.976564e+003,3.096610e-004
3.978492e+003,1.028180e-004
3.980421e+003,1.147985e-004
3.982349e+003,1.471341e-004
3.984278e+003,1.948476e-004
3.986207e+003,1.215935e-004
3.988135e+003,1.978725e-004
3.990063e+003,4.075617e-004
3.991992e+003,3.643185e-004
3.993920e+003,3.539026e-004
3.995849e+003,3.069788e-004
3.997777e+003,1.980215e-004
3.999706e+003,1.755655e-004
4.001635e+003,0.000000e+000
