3.991992e+002,0.000000e+000
4.011277e+002,0.000000e+000
4.030562e+002,0.000000e+000
4.049846e+002,0.000000e+000
4.069131e+002,0.000000e+000
4.088416e+002,0.000000e+000
4.107701e+002,0.000000e+000
4.126986e+002,0.000000e+000
4.146271e+002,0.000000e+000
4.165556e+002,0.000000e+000
4.184841e+002,0.000000e+000
4.204126e+002,0.000000e+000
4.223411e+002,0.000000e+000
4.242697e+002,0.000000e+000
4.261982e+002,0.000000e+000
4.281266e+002,0.000000e+000
4.300551e+002,0.000000e+000
4.319836e+002,0.000000e+000
4.339121e+002,0.000000e+000
4.358406e+002,0.000000e+000
4.377691e+002,0.000000e+000
4.396976e+002,0.000000e+000
4.416261e+002,0.000000e+000
4.435546e+002,0.000000e+000
4.454831e+002,0.000000e+000
4.474116e+002,0.000000e+000
4.493401e+002,0.000000e+000
4.512686e+002,0.000000e+000
4.531971e+002,0.000000e+000
4.551256e+002,0.000000e+000
4.570541e+002,0.000000e+000
4.589826e+002,0.000000e+000
4.609111e+002,0.000000e+000
4.628396e+002,0.000000e+000
4.647681e+002,0.000000e+000
4.666966e+002,0.000000e+000
4.686251e+002,0.000000e+000
4.705536e+002,0.000000e+000
4.724821e+002,0.000000e+000
4.744106e+002,0.000000e+000
4.763391e+002,0.000000e+000
4.782676e+002,0.000000e+000
4.801961e+002,0.000000e+000
4.821246e+002,0.000000e+000
4.840531e+002,0.000000e+000
4.859816e+002,0.000000e+000
4.879101e+002,0.000000e+000
4.898386e+002,0.000000e+000
4.917671e+002,0.000000e+000
4.936956e+002,0.000000e+000
4.956241e+002,0.000000e+000
4.975526e+002,0.000000e+000
4.994811e+002,0.000000e+000
5.014096e+002,0.000000e+000
5.033381e+002,0.000000e+000
5.052666e+002,0.000000e+000
5.071951e+002,0.000000e+000
5.091236e+002,0.000000e+000
5.110521e+002,0.000000e+000
5.129806e+002,0.000000e+000
5.149091e+002,0.000000e+000
5.168376e+002,0.000000e+000
5.187661e+002,0.000000e+000
5.206946e+002,0.000000e+000
5.226230e+002,0.000000e+000
5.245516e+002,-1.300331e-004
5.264800e+002,-1.648366e-004
5.284086e+002,-1.019109e-004
5.303370e+002,5.501788e-005
5.322656e+002,9.546988e-006
5.341940e+002,-1.015072e-004
5.361226e+002,-7.904181e-005
5.380510e+002,-9.495346e-005
5.399796e+002,-9.509921e-005
5.419081e+002,-2.743397e-005
5.438365e+002,1.334306e-005
5.457650e+002,-7.143337e-005
5.476935e+002,-2.018223e-005
5.496221e+002,-1.619291e-005
5.515505e+002,7.712189e-005
5.534790e+002,4.708115e-005
5.554075e+002,1.453604e-004
5.573361e+002,2.072095e-004
5.592645e+002,1.288299e-004
5.611931e+002,-1.158845e-005
5.631215e+002,1.083221e-005
5.650500e+002,-4.650094e-006
5.669785e+002,-7.639639e-006
5.689070e+002,-1.536915e-004
5.708355e+002,-1.987489e-004
5.727640e+002,-1.232377e-004
5.746925e+002,-6.499747e-005
5.766210e+002,-6.093038e-005
5.785495e+002,-9.487383e-006
5.804780e+002,-3.064843e-005
5.824065e+002,-1.103459e-004
5.843350e+002,-1.035044e-004
5.862635e+002,-9.545544e-005
5.881920e+002,-1.579616e-004
5.901205e+002,-1.169895e-004
5.920490e+002,-1.194384e-004
5.939775e+002,-1.980313e-004
5.959060e+002,-2.473798e-004
5.978345e+002,-2.756766e-004
5.997630e+002,-2.300916e-004
6.016915e+002,-1.032152e-004
6.036200e+002,-7.925974e-005
6.055485e+002,6.609736e-005
6.074770e+002,1.913216e-005
6.094055e+002,-8.431263e-006
6.113340e+002,-4.459266e-005
6.132625e+002,-1.490046e-004
6.151910e+002,-2.963487e-004
6.171195e+002,-2.482850e-004
6.190480e+002,-1.034886e-004
6.209765e+002,-7.037353e-005
6.229050e+002,-1.052348e-004
6.248335e+002,4.612701e-005
6.267620e+002,1.656814e-004
6.286905e+002,2.211086e-004
6.306190e+002,2.445644e-004
6.325475e+002,2.512434e-004
6.344760e+002,3.318675e-004
6.364045e+002,4.129400e-004
6.383330e+002,3.654598e-004
6.402615e+002,4.217559e-004
6.421899e+002,4.524766e-004
6.441185e+002,5.308511e-004
6.460470e+002,4.556612e-004
6.479755e+002,4.032115e-004
6.499039e+002,4.071230e-004
6.518325e+002,4.658354e-004
6.537610e+002,4.360788e-004
6.556895e+002,5.222019e-004
6.576179e+002,6.162440e-004
6.595464e+002,7.088296e-004
6.614750e+002,6.973664e-004
6.634034e+002,7.265219e-004
6.653319e+002,6.527901e-004
6.672604e+002,6.293431e-004
6.691890e+002,7.160343e-004
6.711174e+002,8.767387e-004
6.730460e+002,1.065655e-003
6.749745e+002,1.195649e-003
6.769030e+002,1.206608e-003
6.788314e+002,1.289997e-003
6.807599e+002,1.326182e-003
6.826885e+002,1.582817e-003
6.846169e+002,1.730929e-003
6.865454e+002,1.898207e-003
6.884739e+002,2.083586e-003
6.904025e+002,2.458340e-003
6.923309e+002,2.749831e-003
6.942594e+002,3.140572e-003
6.961879e+002,3.585607e-003
6.981165e+002,4.351611e-003
7.000449e+002,5.309923e-003
7.019734e+002,6.652672e-003
7.039019e+002,8.352625e-003
7.058304e+002,1.077519e-002
7.077589e+002,1.392594e-002
7.096874e+002,1.871302e-002
7.116159e+002,2.655046e-002
7.135444e+002,4.151976e-002
7.154729e+002,6.776661e-002
7.174014e+002,1.025767e-001
7.193299e+002,1.162006e-001
7.212584e+002,8.628044e-002
7.231869e+002,5.708035e-002
7.251154e+002,4.661560e-002
7.270439e+002,5.088966e-002
7.289724e+002,6.712888e-002
7.309009e+002,6.479201e-002
7.328294e+002,3.712192e-002
7.347579e+002,1.853295e-002
7.366864e+002,1.194926e-002
7.386149e+002,9.270305e-003
7.405434e+002,7.731545e-003
7.424719e+002,6.834104e-003
7.444004e+002,6.091017e-003
7.463289e+002,5.479734e-003
7.482574e+002,4.925795e-003
7.501859e+002,4.648116e-003
7.521144e+002,4.401906e-003
7.540428e+002,4.138143e-003
7.559714e+002,3.880990e-003
7.578999e+002,3.627523e-003
7.598284e+002,3.299975e-003
7.617568e+002,3.160771e-003
7.636854e+002,3.015315e-003
7.656139e+002,2.863938e-003
7.675424e+002,2.724873e-003
7.694709e+002,2.588599e-003
7.713994e+002,2.452603e-003
7.733279e+002,2.379267e-003
7.752563e+002,2.298668e-003
7.771849e+002,2.293919e-003
7.791134e+002,2.267937e-003
7.810419e+002,2.196508e-003
7.829703e+002,2.138937e-003
7.848989e+002,2.146930e-003
7.868274e+002,2.145044e-003
7.887559e+002,2.144020e-003
7.906843e+002,2.140006e-003
7.926129e+002,2.042834e-003
7.945414e+002,1.961172e-003
7.964698e+002,2.012972e-003
7.983983e+002,2.064805e-003
8.003268e+002,2.055220e-003
8.022554e+002,2.024086e-003
8.041838e+002,1.941611e-003
8.061123e+002,1.881026e-003
8.080408e+002,1.809040e-003
8.099694e+002,1.804021e-003
8.118978e+002,1.803436e-003
8.138263e+002,1.678580e-003
8.157548e+002,1.510182e-003
8.176833e+002,1.520292e-003
8.196118e+002,1.547783e-003
8.215403e+002,1.474239e-003
8.234689e+002,1.372621e-003
8.253973e+002,1.292369e-003
8.273258e+002,1.239000e-003
8.292543e+002,1.198050e-003
8.311829e+002,1.166519e-003
8.331113e+002,1.208932e-003
8.350398e+002,1.179818e-003
8.369683e+002,1.177636e-003
8.388969e+002,1.188488e-003
8.408253e+002,1.201217e-003
8.427538e+002,1.220017e-003
8.446823e+002,1.238760e-003
8.466108e+002,1.211818e-003
8.485393e+002,1.303182e-003
8.504678e+002,1.349938e-003
8.523963e+002,1.293798e-003
8.543248e+002,1.238842e-003
8.562533e+002,1.179286e-003
8.581818e+002,1.168053e-003
8.601103e+002,1.227997e-003
8.620388e+002,1.242707e-003
8.639673e+002,1.271529e-003
8.658958e+002,1.294772e-003
8.678243e+002,1.272769e-003
8.697528e+002,1.299124e-003
8.716813e+002,1.380427e-003
8.736098e+002,1.324235e-003
8.755383e+002,1.311806e-003
8.774668e+002,1.401116e-003
8.793953e+002,1.514193e-003
8.813238e+002,1.519206e-003
8.832523e+002,1.602435e-003
8.851808e+002,1.637853e-003
8.871093e+002,1.766242e-003
8.890378e+002,1.882885e-003
8.909663e+002,1.812648e-003
8.928948e+002,1.567060e-003
8.948232e+002,1.478116e-003
8.967518e+002,1.518549e-003
8.986803e+002,1.582347e-003
9.006088e+002,1.617927e-003
9.025372e+002,1.775105e-003
9.044658e+002,2.072885e-003
9.063943e+002,2.434147e-003
9.083228e+002,2.600175e-003
9.102512e+002,2.331103e-003
9.121797e+002,1.984017e-003
9.141083e+002,1.782076e-003
9.160367e+002,1.591763e-003
9.179653e+002,1.640233e-003
9.198937e+002,1.541802e-003
9.218223e+002,1.382851e-003
9.237507e+002,1.254704e-003
9.256793e+002,1.297264e-003
9.276077e+002,1.324423e-003
9.295363e+002,1.219094e-003
9.314647e+002,1.185750e-003
9.333932e+002,1.259279e-003
9.353217e+002,1.338173e-003
9.372502e+002,1.371632e-003
9.391787e+002,1.303000e-003
9.411072e+002,1.324872e-003
9.430358e+002,1.323160e-003
9.449642e+002,1.287792e-003
9.468928e+002,1.267447e-003
9.488212e+002,1.312209e-003
9.507498e+002,1.295500e-003
9.526782e+002,1.365581e-003
9.546068e+002,1.465493e-003
9.565352e+002,1.528157e-003
9.584637e+002,1.536765e-003
9.603922e+002,1.584736e-003
9.623207e+002,1.624113e-003
9.642492e+002,1.696054e-003
9.661777e+002,1.728783e-003
9.681062e+002,1.755005e-003
9.700347e+002,1.688406e-003
9.719632e+002,1.723537e-003
9.738917e+002,1.721042e-003
9.758202e+002,1.743992e-003
9.777487e+002,1.722426e-003
9.796772e+002,1.762796e-003
9.816057e+002,1.807867e-003
9.835342e+002,1.853012e-003
9.854627e+002,1.906382e-003
9.873912e+002,2.092805e-003
9.893197e+002,2.226996e-003
9.912482e+002,2.303592e-003
9.931767e+002,2.270812e-003
9.951052e+002,2.237624e-003
9.970337e+002,2.247981e-003
9.989622e+002,2.265384e-003
1.000891e+003,2.243221e-003
1.002819e+003,2.327336e-003
1.004748e+003,2.404678e-003
1.006676e+003,2.552301e-003
1.008605e+003,2.660219e-003
1.010533e+003,2.837648e-003
1.012462e+003,2.977499e-003
1.014390e+003,3.095663e-003
1.016319e+003,3.160306e-003
1.018247e+003,3.231790e-003
1.020176e+003,3.245411e-003
1.022104e+003,3.300753e-003
1.024033e+003,3.333551e-003
1.025961e+003,3.394539e-003
1.027890e+003,3.402848e-003
1.029818e+003,3.468504e-003
1.031747e+003,3.528287e-003
1.033675e+003,3.555042e-003
1.035604e+003,3.514238e-003
1.037532e+003,3.602630e-003
1.039461e+003,3.689433e-003
1.041389e+003,3.801546e-003
1.043318e+003,3.888428e-003
1.045246e+003,3.938837e-003
1.047175e+003,3.997551e-003
1.049103e+003,4.241278e-003
1.051032e+003,4.355154e-003
1.052960e+003,4.290339e-003
1.054889e+003,4.214776e-003
1.056817e+003,4.281815e-003
1.058746e+003,4.382866e-003
1.060674e+003,4.513306e-003
1.062603e+003,4.543426e-003
1.064531e+003,4.573136e-003
1.066460e+003,4.543187e-003
1.068388e+003,4.581526e-003
1.070317e+003,4.666421e-003
1.072245e+003,4.819896e-003
1.074174e+003,4.973248e-003
1.076102e+003,5.245146e-003
1.078031e+003,5.380083e-003
1.079959e+003,5.436309e-003
1.081888e+003,5.393047e-003
1.083816e+003,5.332112e-003
1.085745e+003,5.225766e-003
1.087673e+003,5.168857e-003
1.089602e+003,5.065251e-003
1.091530e+003,5.046256e-003
1.093459e+003,4.978061e-003
1.095387e+003,4.940727e-003
1.097316e+003,4.856423e-003
1.099244e+003,4.884452e-003
1.101173e+003,4.813612e-003
1.103101e+003,4.758005e-003
1.105030e+003,4.703073e-003
1.106958e+003,4.656992e-003
1.108887e+003,4.563660e-003
1.110815e+003,4.483080e-003
1.112744e+003,4.365150e-003
1.114672e+003,4.319646e-003
1.116601e+003,4.224838e-003
1.118529e+003,4.134922e-003
1.120458e+003,4.093684e-003
1.122386e+003,4.139856e-003
1.124315e+003,4.110923e-003
1.126243e+003,4.086970e-003
1.128172e+003,4.055483e-003
1.130100e+003,4.126050e-003
1.132029e+003,4.131455e-003
1.133957e+003,4.132844e-003
1.135885e+003,4.074563e-003
1.137814e+003,4.053760e-003
1.139743e+003,4.035959e-003
1.141671e+003,4.077549e-003
1.143600e+003,4.094300e-003
1.145528e+003,4.214507e-003
1.147457e+003,4.361341e-003
1.149385e+003,4.611388e-003
1.151314e+003,4.863403e-003
1.153242e+003,5.167749e-003
1.155171e+003,5.337888e-003
1.157099e+003,5.521202e-003
1.159028e+003,5.669935e-003
1.160956e+003,5.786113e-003
1.162885e+003,5.762983e-003
1.164813e+003,5.732095e-003
1.166742e+003,5.605582e-003
1.168670e+003,5.457970e-003
1.170599e+003,5.249943e-003
1.172527e+003,5.108139e-003
1.174456e+003,5.009721e-003
1.176384e+003,5.001166e-003
1.178313e+003,4.770358e-003
1.180241e+003,4.536928e-003
1.182170e+003,4.445196e-003
1.184098e+003,4.458651e-003
1.186027e+003,4.389809e-003
1.187955e+003,4.406580e-003
1.189884e+003,4.451099e-003
1.191812e+003,4.520696e-003
1.193740e+003,4.554042e-003
1.195669e+003,4.636499e-003
1.197598e+003,4.717313e-003
1.199526e+003,4.888567e-003
1.201455e+003,5.022435e-003
1.203383e+003,5.180690e-003
1.205312e+003,5.338578e-003
1.207240e+003,5.572706e-003
1.209168e+003,5.768396e-003
1.211097e+003,5.994575e-003
1.213026e+003,6.167321e-003
1.214954e+003,6.373194e-003
1.216883e+003,6.547348e-003
1.218811e+003,6.752709e-003
1.220740e+003,6.874084e-003
1.222668e+003,7.038171e-003
1.224596e+003,7.158608e-003
1.226525e+003,7.299230e-003
1.228453e+003,7.443353e-003
1.230382e+003,7.653406e-003
1.232311e+003,7.749580e-003
1.234239e+003,7.854317e-003
1.236167e+003,7.903062e-003
1.238096e+003,8.001084e-003
1.240025e+003,8.000033e-003
1.241953e+003,7.973178e-003
1.243882e+003,7.912564e-003
1.245810e+003,7.831370e-003
1.247739e+003,7.657479e-003
1.249667e+003,7.545137e-003
1.251595e+003,7.401479e-003
1.253524e+003,7.341472e-003
1.255453e+003,7.292493e-003
1.257381e+003,7.312781e-003
1.259310e+003,7.241714e-003
1.261238e+003,7.215076e-003
1.263167e+003,7.066648e-003
1.265095e+003,6.970716e-003
1.267023e+003,6.851429e-003
1.268952e+003,6.788560e-003
1.270880e+003,6.712255e-003
1.272809e+003,6.736374e-003
1.274738e+003,6.699274e-003
1.276666e+003,6.746555e-003
1.278594e+003,6.755079e-003
1.280523e+003,6.870043e-003
1.282451e+003,6.967550e-003
1.284380e+003,7.149926e-003
1.286308e+003,7.335639e-003
1.288237e+003,7.622463e-003
1.290166e+003,7.819675e-003
1.292094e+003,8.203299e-003
1.294022e+003,8.620086e-003
1.295951e+003,9.098899e-003
1.297879e+003,9.455185e-003
1.299808e+003,9.725730e-003
1.301736e+003,9.784447e-003
1.303665e+003,9.834159e-003
1.305594e+003,9.750349e-003
1.307522e+003,9.677514e-003
1.309450e+003,9.381596e-003
1.311379e+003,9.088075e-003
1.313307e+003,8.643460e-003
1.315236e+003,8.231709e-003
1.317164e+003,7.749765e-003
1.319093e+003,7.323365e-003
1.321021e+003,6.818287e-003
1.322950e+003,6.521715e-003
1.324878e+003,6.251666e-003
1.326807e+003,6.155528e-003
1.328735e+003,6.064544e-003
1.330664e+003,6.157219e-003
1.332592e+003,6.342129e-003
1.334521e+003,6.791580e-003
1.336449e+003,7.398636e-003
1.338378e+003,8.311884e-003
1.340306e+003,9.002627e-003
1.342235e+003,9.407544e-003
1.344163e+003,9.782166e-003
1.346092e+003,1.043309e-002
1.348021e+003,1.112942e-002
1.349949e+003,1.191051e-002
1.351877e+003,1.227550e-002
1.353806e+003,1.231222e-002
1.355734e+003,1.205094e-002
1.357663e+003,1.206854e-002
1.359591e+003,1.237331e-002
1.361520e+003,1.331915e-002
1.363448e+003,1.456041e-002
1.365377e+003,1.561350e-002
1.367305e+003,1.638293e-002
1.369234e+003,1.642685e-002
1.371162e+003,1.532250e-002
1.373091e+003,1.427025e-002
1.375019e+003,1.375748e-002
1.376948e+003,1.366131e-002
1.378876e+003,1.199839e-002
1.380805e+003,9.323087e-003
1.382733e+003,7.312985e-003
1.384662e+003,6.454468e-003
1.386590e+003,5.991012e-003
1.388519e+003,5.758945e-003
1.390447e+003,5.404673e-003
1.392376e+003,5.432177e-003
1.394304e+003,5.501946e-003
1.396233e+003,5.670067e-003
1.398161e+003,5.482204e-003
1.400090e+003,5.469681e-003
1.402018e+003,5.270102e-003
1.403947e+003,5.537319e-003
1.405875e+003,5.616112e-003
1.407804e+003,5.779662e-003
1.409732e+003,5.771464e-003
1.411661e+003,6.062525e-003
1.413589e+003,6.166949e-003
1.415518e+003,6.696858e-003
1.417446e+003,7.089790e-003
1.419375e+003,7.939246e-003
1.421303e+003,8.112817e-003
1.423232e+003,9.164724e-003
1.425160e+003,1.056029e-002
1.427089e+003,1.246264e-002
1.429017e+003,1.488989e-002
1.430946e+003,1.861114e-002
1.432874e+003,2.166556e-002
1.434803e+003,2.466262e-002
1.436731e+003,2.775860e-002
1.438660e+003,3.022495e-002
1.440588e+003,3.153485e-002
1.442517e+003,3.361838e-002
1.444445e+003,3.519854e-002
1.446374e+003,3.763934e-002
1.448302e+003,4.099464e-002
1.450231e+003,4.633117e-002
1.452159e+003,5.453285e-002
1.454088e+003,6.538059e-002
1.456016e+003,7.654132e-002
1.457945e+003,1.028975e-001
1.459873e+003,1.495712e-001
1.461802e+003,1.952928e-001
1.463730e+003,1.933425e-001
1.465659e+003,1.501146e-001
1.467587e+003,1.374855e-001
1.469516e+003,1.357021e-001
1.471444e+003,1.551209e-001
1.473373e+003,1.385893e-001
1.475301e+003,7.502610e-002
1.477230e+003,3.306336e-002
1.479158e+003,2.090455e-002
1.481087e+003,1.526861e-002
1.483015e+003,1.274480e-002
1.484944e+003,1.081873e-002
1.486872e+003,1.046554e-002
1.488801e+003,9.181879e-003
1.490729e+003,8.799385e-003
1.492658e+003,7.539738e-003
1.494586e+003,7.634372e-003
1.496515e+003,7.076339e-003
1.498443e+003,6.976608e-003
1.500372e+003,6.130073e-003
1.502300e+003,6.147491e-003
1.504229e+003,5.899926e-003
1.506157e+003,7.194145e-003
1.508086e+003,6.322020e-003
1.510014e+003,5.913633e-003
1.511943e+003,5.281620e-003
1.513871e+003,5.423432e-003
1.515800e+003,5.289000e-003
1.517728e+003,5.561165e-003
1.519657e+003,5.219784e-003
1.521585e+003,5.849211e-003
1.523514e+003,5.224007e-003
1.525442e+003,5.396525e-003
1.527371e+003,5.073672e-003
1.529299e+003,5.019248e-003
1.531228e+003,4.722193e-003
1.533156e+003,5.196568e-003
1.535085e+003,4.863454e-003
1.537013e+003,4.991820e-003
1.538942e+003,5.403842e-003
1.540870e+003,6.370093e-003
1.542799e+003,5.281491e-003
1.544727e+003,5.160378e-003
1.546656e+003,4.501370e-003
1.548584e+003,4.534230e-003
1.550513e+003,4.259704e-003
1.552441e+003,4.238318e-003
1.554370e+003,4.267124e-003
1.556298e+003,4.625598e-003
1.558227e+003,4.899267e-003
1.560155e+003,4.666838e-003
1.562084e+003,3.900887e-003
1.564012e+003,3.962561e-003
1.565941e+003,3.790652e-003
1.567869e+003,3.834349e-003
1.569798e+003,3.774256e-003
1.571726e+003,3.714000e-003
1.573655e+003,3.642274e-003
1.575583e+003,4.120825e-003
1.577512e+003,3.920479e-003
1.579440e+003,3.685590e-003
1.581369e+003,3.536629e-003
1.583297e+003,3.630854e-003
1.585226e+003,3.548610e-003
1.587154e+003,3.560261e-003
1.589083e+003,3.439192e-003
1.591011e+003,3.523580e-003
1.592940e+003,3.535232e-003
1.594868e+003,3.676756e-003
1.596797e+003,3.500458e-003
1.598725e+003,3.467990e-003
1.600654e+003,3.446587e-003
1.602582e+003,3.523123e-003
1.604511e+003,3.436054e-003
1.606439e+003,3.572041e-003
1.608368e+003,3.554080e-003
1.610296e+003,3.604236e-003
1.612225e+003,3.553350e-003
1.614153e+003,3.717489e-003
1.616082e+003,3.882361e-003
1.618010e+003,3.851599e-003
1.619939e+003,3.582067e-003
1.621867e+003,3.901392e-003
1.623796e+003,4.174473e-003
1.625724e+003,4.175926e-003
1.627653e+003,4.096748e-003
1.629581e+003,4.144140e-003
1.631510e+003,4.151772e-003
1.633438e+003,4.401695e-003
1.635367e+003,4.676020e-003
1.637295e+003,4.714438e-003
1.639224e+003,4.503682e-003
1.641152e+003,4.635005e-003
1.643081e+003,4.633898e-003
1.645009e+003,4.733920e-003
1.646938e+003,4.758032e-003
1.648866e+003,4.623174e-003
1.650795e+003,4.516469e-003
1.652723e+003,5.055413e-003
1.654652e+003,4.583968e-003
1.656580e+003,4.162049e-003
1.658509e+003,4.001880e-003
1.660437e+003,4.152499e-003
1.662366e+003,4.171597e-003
1.664294e+003,3.912838e-003
1.666223e+003,3.670119e-003
1.668151e+003,3.932834e-003
1.670080e+003,4.014172e-003
1.672008e+003,3.808081e-003
1.673937e+003,3.665874e-003
1.675865e+003,3.705230e-003
1.677794e+003,3.423944e-003
1.679722e+003,3.495120e-003
1.681651e+003,3.432095e-003
1.683579e+003,3.992612e-003
1.685508e+003,3.465669e-003
1.687436e+003,3.134351e-003
1.689365e+003,2.900902e-003
1.691293e+003,2.667496e-003
1.693222e+003,2.449784e-003
1.695150e+003,2.703220e-003
1.697079e+003,2.676591e-003
1.699007e+003,2.658775e-003
1.700936e+003,2.512351e-003
1.702864e+003,2.436193e-003
1.704793e+003,2.366746e-003
1.706721e+003,2.306931e-003
1.708650e+003,2.033254e-003
1.710578e+003,2.092458e-003
1.712507e+003,2.168424e-003
1.714435e+003,2.541412e-003
1.716364e+003,2.744989e-003
1.718292e+003,2.929904e-003
1.720221e+003,2.505992e-003
1.722149e+003,2.468707e-003
1.724078e+003,2.447724e-003
1.726006e+003,2.412315e-003
1.727935e+003,2.460584e-003
1.729863e+003,2.820920e-003
1.731792e+003,2.986601e-003
1.733720e+003,3.617382e-003
1.735649e+003,3.194874e-003
1.737577e+003,2.951087e-003
1.739506e+003,2.927000e-003
1.741434e+003,2.888169e-003
1.743363e+003,2.691329e-003
1.745291e+003,2.578588e-003
1.747220e+003,2.527513e-003
1.749148e+003,2.579898e-003
1.751077e+003,2.133805e-003
1.753005e+003,1.570202e-003
1.754934e+003,1.210552e-003
1.756862e+003,1.213845e-003
1.758791e+003,9.487383e-004
1.760719e+003,9.083822e-004
1.762648e+003,7.983800e-004
1.764576e+003,5.703866e-004
1.766505e+003,5.103201e-004
1.768433e+003,7.947274e-004
1.770362e+003,9.232368e-004
1.772290e+003,1.119653e-003
1.774219e+003,6.827656e-004
1.776147e+003,4.803240e-004
1.778076e+003,3.716946e-004
1.780004e+003,5.931500e-004
1.781933e+003,3.225133e-004
1.783861e+003,2.304539e-004
1.785790e+003,2.299547e-004
1.787718e+003,2.654158e-004
1.789646e+003,3.000926e-004
1.791575e+003,6.236788e-004
1.793504e+003,3.608428e-004
1.795432e+003,2.905447e-004
1.797361e+003,2.083443e-004
1.799289e+003,3.042314e-004
1.801218e+003,3.610924e-004
1.803146e+003,1.904089e-004
1.805074e+003,-9.638071e-005
1.807003e+003,-1.785904e-005
1.808932e+003,-1.275241e-004
1.810860e+003,-1.394469e-004
1.812789e+003,-2.780724e-004
1.814717e+003,-3.639720e-004
1.816646e+003,-4.865080e-004
1.818574e+003,-2.456587e-004
1.820502e+003,-1.740567e-004
1.822431e+003,1.938827e-005
1.824360e+003,-6.555021e-005
1.826288e+003,-1.640879e-004
1.828217e+003,-3.511999e-004
1.830145e+003,-8.822605e-005
1.832073e+003,-2.626665e-004
1.834002e+003,-3.024843e-004
1.835931e+003,-4.599635e-004
1.837859e+003,-3.967676e-004
1.839788e+003,-5.216729e-004
1.841716e+003,-3.374349e-004
1.843645e+003,-2.297312e-004
1.845573e+003,-2.080277e-004
1.847501e+003,-4.407503e-004
1.849430e+003,-4.603658e-004
1.851359e+003,-6.927177e-004
1.853287e+003,-6.940886e-004
1.855216e+003,-7.412229e-004
1.857144e+003,-5.572215e-004
1.859073e+003,-7.198211e-004
1.861001e+003,-7.249638e-004
1.862929e+003,-8.794274e-004
1.864858e+003,-7.986445e-004
1.866787e+003,-9.204801e-004
1.868715e+003,-6.153956e-004
1.870644e+003,-8.661803e-004
1.872572e+003,-9.583253e-004
1.874500e+003,-1.137054e-003
1.876429e+003,-9.388812e-004
1.878357e+003,-1.218401e-003
1.880286e+003,-1.249159e-003
1.882215e+003,-1.152251e-003
1.884143e+003,-1.025191e-003
1.886072e+003,-1.307154e-003
1.888000e+003,-1.092745e-003
1.889928e+003,-1.138583e-003
1.891857e+003,-7.554647e-004
1.893785e+003,-5.619470e-004
1.895714e+003,-4.122015e-004
1.897643e+003,-6.747805e-004
1.899571e+003,-3.854334e-004
1.901500e+003,-3.809463e-004
1.903428e+003,-3.764629e-004
1.905356e+003,-3.719963e-004
1.907285e+003,-3.675353e-004
1.909213e+003,-3.630854e-004
1.911142e+003,-3.586430e-004
1.913071e+003,-3.542099e-004
1.914999e+003,-3.497880e-004
1.916927e+003,-3.453773e-004
1.918856e+003,-3.409702e-004
1.920784e+003,-3.365781e-004
1.922713e+003,-3.321916e-004
1.924641e+003,-3.278181e-004
1.926570e+003,-3.234521e-004
1.928499e+003,-3.190916e-004
1.930427e+003,-3.147461e-004
1.932355e+003,-3.104080e-004
1.934284e+003,-3.060792e-004
1.936212e+003,-3.017597e-004
1.938141e+003,-2.974495e-004
1.940070e+003,-2.931487e-004
1.941998e+003,-2.888571e-004
1.943927e+003,-2.845768e-004
1.945855e+003,-2.803057e-004
1.947783e+003,-2.760403e-004
1.949712e+003,-2.717879e-004
1.951640e+003,-2.675448e-004
1.953569e+003,-2.633072e-004
1.955498e+003,-2.590828e-004
1.957426e+003,-2.548657e-004
1.959354e+003,-2.506599e-004
1.961283e+003,-2.464633e-004
1.963211e+003,-2.422743e-004
1.965140e+003,-2.380963e-004
1.967068e+003,-2.339296e-004
1.968997e+003,-2.297685e-004
1.970926e+003,-2.256185e-004
1.972854e+003,-2.214778e-004
1.974782e+003,-2.173465e-004
1.976711e+003,-2.132244e-004
1.978639e+003,-2.091117e-004
1.980568e+003,-2.050083e-004
1.982496e+003,-2.009142e-004
1.984425e+003,-1.968294e-004
1.986354e+003,-1.927540e-004
1.988282e+003,-1.886878e-004
1.990210e+003,-1.846347e-004
1.992139e+003,-1.805853e-004
1.994067e+003,-1.765508e-004
1.995996e+003,-1.725219e-004
1.997924e+003,-1.685023e-004
1.999853e+003,-1.644939e-004
2.001781e+003,-1.604930e-004
2.003710e+003,-1.565013e-004
2.005638e+003,-1.525208e-004
2.007567e+003,-1.485497e-004
2.009495e+003,-1.445878e-004
2.011424e+003,-1.406334e-004
2.013352e+003,-1.366902e-004
2.015281e+003,-1.327563e-004
2.017209e+003,-1.288317e-004
2.019138e+003,-1.249164e-004
2.021066e+003,-1.210105e-004
2.022995e+003,-1.171138e-004
2.024923e+003,-1.132265e-004
2.026852e+003,-1.093466e-004
2.028781e+003,-1.054797e-004
2.030709e+003,-1.016203e-004
2.032637e+003,-9.777211e-005
2.034566e+003,-9.393133e-005
2.036494e+003,-9.009987e-005
2.038423e+003,-8.627959e-005
2.040351e+003,-8.246861e-005
2.042280e+003,-7.866323e-005
2.044208e+003,-7.487088e-005
2.046137e+003,-7.108599e-005
2.048065e+003,-6.731413e-005
2.049994e+003,-6.355159e-005
2.051922e+003,-5.979463e-005
2.053851e+003,-5.604327e-005
2.055779e+003,-5.230680e-005
2.057708e+003,-4.858151e-005
2.059636e+003,-4.486367e-005
2.061565e+003,-4.115514e-005
2.063493e+003,-3.745779e-005
2.065422e+003,-3.376789e-005
2.067350e+003,-3.008731e-005
2.069279e+003,-2.641231e-005
2.071207e+003,-2.275035e-005
2.073136e+003,-1.909770e-005
2.075064e+003,-1.545809e-005
2.076993e+003,-1.182407e-005
2.078921e+003,-8.199364e-006
2.080850e+003,-4.583970e-006
2.082778e+003,-9.816140e-007
2.084707e+003,2.617016e-006
2.086635e+003,6.202608e-006
2.088564e+003,9.780750e-006
2.090492e+003,1.334772e-005
2.092421e+003,1.690537e-005
2.094349e+003,2.045557e-005
2.096278e+003,2.399459e-005
2.098206e+003,2.752617e-005
2.100135e+003,3.104657e-005
2.102063e+003,3.455952e-005
2.103992e+003,3.806129e-005
2.105920e+003,4.155375e-005
2.107849e+003,4.503690e-005
2.109777e+003,4.850887e-005
2.111706e+003,5.197339e-005
2.113634e+003,5.543046e-005
2.115563e+003,5.887821e-005
2.117491e+003,6.231293e-005
2.119420e+003,6.573834e-005
2.121348e+003,6.915629e-005
2.123277e+003,7.256493e-005
2.125205e+003,7.596053e-005
2.127134e+003,7.935055e-005
2.129062e+003,8.273311e-005
2.130991e+003,8.610263e-005
2.132919e+003,8.946285e-005
2.134848e+003,9.281375e-005
2.136776e+003,9.615533e-005
2.138705e+003,9.948760e-005
2.140633e+003,1.028124e-004
2.142562e+003,1.061298e-004
2.144490e+003,1.094323e-004
2.146419e+003,1.127291e-004
2.148347e+003,1.160149e-004
2.150276e+003,1.192912e-004
2.152204e+003,1.225583e-004
2.154133e+003,1.258161e-004
2.156061e+003,1.290683e-004
2.157990e+003,1.323037e-004
2.159918e+003,1.355316e-004
2.161847e+003,1.387522e-004
2.163775e+003,1.419652e-004
2.165704e+003,1.451671e-004
2.167632e+003,1.483578e-004
2.169561e+003,1.515392e-004
2.171489e+003,1.547132e-004
2.173418e+003,1.578778e-004
2.175346e+003,1.610331e-004
2.177275e+003,1.641773e-004
2.179203e+003,1.673140e-004
2.181132e+003,1.704395e-004
2.183060e+003,1.735538e-004
2.184989e+003,1.766626e-004
2.186917e+003,1.797620e-004
2.188846e+003,1.828503e-004
2.190774e+003,1.859274e-004
2.192703e+003,1.889989e-004
2.194631e+003,1.920592e-004
2.196560e+003,1.951102e-004
2.198488e+003,1.981519e-004
2.200417e+003,2.011862e-004
2.202345e+003,2.042092e-004
2.204274e+003,2.072230e-004
2.206202e+003,2.102274e-004
2.208131e+003,2.132207e-004
2.210059e+003,2.162065e-004
2.211988e+003,2.191812e-004
2.213916e+003,2.221484e-004
2.215845e+003,2.251063e-004
2.217773e+003,2.280548e-004
2.219702e+003,2.309922e-004
2.221630e+003,2.339222e-004
2.223559e+003,2.368391e-004
2.225487e+003,2.397504e-004
2.227416e+003,2.426505e-004
2.229344e+003,2.455432e-004
2.231273e+003,2.484266e-004
2.233201e+003,2.513006e-004
2.235130e+003,2.541598e-004
2.237058e+003,2.570152e-004
2.238987e+003,2.598595e-004
2.240915e+003,2.626926e-004
2.242844e+003,2.655182e-004
2.244772e+003,2.683364e-004
2.246701e+003,2.711453e-004
2.248629e+003,2.739411e-004
2.250558e+003,2.767295e-004
2.252486e+003,2.795085e-004
2.254415e+003,2.822783e-004
2.256343e+003,2.850369e-004
2.258272e+003,2.877880e-004
2.260200e+003,2.905279e-004
2.262129e+003,2.932623e-004
2.264057e+003,2.959855e-004
2.265986e+003,2.986975e-004
2.267914e+003,3.014002e-004
2.269843e+003,3.040917e-004
2.271771e+003,3.067777e-004
2.273700e+003,3.094543e-004
2.275628e+003,3.121216e-004
2.277557e+003,3.147777e-004
2.279485e+003,3.174245e-004
2.281414e+003,3.200602e-004
2.283342e+003,3.226884e-004
2.285271e+003,3.253054e-004
2.287199e+003,3.279205e-004
2.289128e+003,3.305227e-004
2.291056e+003,3.331099e-004
2.292985e+003,3.356915e-004
2.294913e+003,3.382619e-004
2.296842e+003,3.408268e-004
2.298770e+003,3.433786e-004
2.300699e+003,3.459211e-004
2.302627e+003,3.484599e-004
2.304556e+003,3.509857e-004
2.306484e+003,3.535002e-004
2.308413e+003,3.560055e-004
2.310341e+003,3.585014e-004
2.312270e+003,3.609899e-004
2.314198e+003,3.634673e-004
2.316127e+003,3.659371e-004
2.318055e+003,3.683940e-004
2.319984e+003,3.708452e-004
2.321912e+003,3.732871e-004
2.323841e+003,3.757160e-004
2.325769e+003,3.781393e-004
2.327698e+003,3.805514e-004
2.329626e+003,3.829543e-004
2.331555e+003,3.853459e-004
2.333483e+003,3.877338e-004
2.335412e+003,3.901087e-004
2.337340e+003,3.924742e-004
2.339269e+003,3.948286e-004
2.341197e+003,3.971737e-004
2.343126e+003,3.995113e-004
2.345054e+003,4.018378e-004
2.346983e+003,4.041586e-004
2.348911e+003,4.064683e-004
2.350840e+003,4.087687e-004
2.352768e+003,4.110597e-004
2.354697e+003,4.133414e-004
2.356625e+003,4.156101e-004
2.358554e+003,4.178733e-004
2.360482e+003,4.201233e-004
2.362411e+003,4.223678e-004
2.364339e+003,4.246030e-004
2.366268e+003,4.268270e-004
2.368196e+003,4.290417e-004
2.370125e+003,4.312452e-004
2.372053e+003,4.334431e-004
2.373982e+003,4.356280e-004
2.375910e+003,4.378054e-004
2.377839e+003,4.399773e-004
2.379767e+003,4.421342e-004
2.381696e+003,4.442856e-004
2.383624e+003,4.464239e-004
2.385553e+003,4.485548e-004
2.387481e+003,4.506744e-004
2.389410e+003,4.527867e-004
2.391338e+003,4.548915e-004
2.393267e+003,4.569832e-004
2.395195e+003,4.590657e-004
2.397124e+003,4.611388e-004
2.399052e+003,4.632063e-004
2.400981e+003,4.026275e-004
2.402909e+003,3.095344e-004
2.404838e+003,3.673937e-004
2.406766e+003,5.368665e-004
2.408695e+003,7.028021e-004
2.410623e+003,8.243062e-004
2.412552e+003,1.022350e-003
2.414480e+003,9.744950e-004
2.416409e+003,9.211525e-004
2.418337e+003,8.560754e-004
2.420266e+003,7.440392e-004
2.422194e+003,6.964598e-004
2.424123e+003,6.834753e-004
2.426051e+003,7.551871e-004
2.427979e+003,8.854717e-004
2.429908e+003,8.073337e-004
2.431837e+003,7.711202e-004
2.433765e+003,9.036958e-004
2.435694e+003,9.585079e-004
2.437622e+003,7.525291e-004
2.439551e+003,7.330943e-004
2.441479e+003,8.596536e-004
2.443407e+003,9.625591e-004
2.445336e+003,9.128712e-004
2.447265e+003,9.953082e-004
2.449193e+003,1.002284e-003
2.451122e+003,1.078600e-003
2.453050e+003,1.276033e-003
2.454979e+003,1.454221e-003
2.456907e+003,1.326602e-003
2.458836e+003,1.193957e-003
2.460764e+003,1.094082e-003
2.462693e+003,9.819400e-004
2.464621e+003,8.153059e-004
2.466550e+003,1.041049e-003
2.468478e+003,1.211412e-003
2.470406e+003,1.309317e-003
2.472335e+003,1.450492e-003
2.474264e+003,1.612555e-003
2.476192e+003,1.605984e-003
2.478121e+003,1.554232e-003
2.480049e+003,1.512580e-003
2.481978e+003,1.551876e-003
2.483906e+003,1.411537e-003
2.485835e+003,1.291232e-003
2.487763e+003,1.443943e-003
2.489692e+003,1.610005e-003
2.491620e+003,1.579577e-003
2.493549e+003,1.692357e-003
2.495477e+003,1.646852e-003
2.497406e+003,1.496950e-003
2.499334e+003,1.521099e-003
2.501263e+003,1.634240e-003
2.503191e+003,1.736425e-003
2.505120e+003,1.957055e-003
2.507048e+003,1.972429e-003
2.508977e+003,1.933306e-003
2.510905e+003,1.928642e-003
2.512833e+003,2.077091e-003
2.514762e+003,2.087882e-003
2.516691e+003,2.155673e-003
2.518619e+003,2.397275e-003
2.520548e+003,2.504708e-003
2.522476e+003,2.574097e-003
2.524405e+003,2.843319e-003
2.526333e+003,2.906306e-003
2.528261e+003,2.801353e-003
2.530190e+003,2.979832e-003
2.532119e+003,3.170053e-003
2.534047e+003,3.060112e-003
2.535976e+003,2.970852e-003
2.537904e+003,2.932420e-003
2.539833e+003,2.970990e-003
2.541761e+003,3.169488e-003
2.543689e+003,3.456514e-003
2.545618e+003,3.672030e-003
2.547547e+003,3.821280e-003
2.549475e+003,3.876444e-003
2.551404e+003,3.886295e-003
2.553332e+003,3.771909e-003
2.555260e+003,3.861971e-003
2.557189e+003,3.948167e-003
2.559117e+003,4.071485e-003
2.561046e+003,4.227834e-003
2.562975e+003,4.352869e-003
2.564903e+003,4.415261e-003
2.566832e+003,4.639240e-003
2.568760e+003,4.741808e-003
2.570688e+003,4.810231e-003
2.572617e+003,5.023763e-003
2.574546e+003,5.216969e-003
2.576474e+003,5.357748e-003
2.578403e+003,5.577778e-003
2.580331e+003,5.643833e-003
2.582260e+003,5.895320e-003
2.584188e+003,6.285492e-003
2.586116e+003,6.470790e-003
2.588045e+003,6.645001e-003
2.589974e+003,7.020403e-003
2.591902e+003,7.192243e-003
2.593831e+003,7.417804e-003
2.595759e+003,7.651256e-003
2.597688e+003,7.796619e-003
2.599616e+003,7.928275e-003
2.601544e+003,8.237025e-003
2.603473e+003,8.532440e-003
2.605402e+003,8.775499e-003
2.607330e+003,9.071769e-003
2.609259e+003,9.400640e-003
2.611187e+003,9.602893e-003
2.613115e+003,9.890685e-003
2.615044e+003,1.036820e-002
2.616972e+003,1.077085e-002
2.618901e+003,1.102329e-002
2.620830e+003,1.139797e-002
2.622758e+003,1.186976e-002
2.624687e+003,1.227759e-002
2.626615e+003,1.269803e-002
2.628543e+003,1.310480e-002
2.630472e+003,1.352555e-002
2.632400e+003,1.388573e-002
2.634329e+003,1.410506e-002
2.636258e+003,1.420468e-002
2.638186e+003,1.421208e-002
2.640115e+003,1.411312e-002
2.642043e+003,1.400603e-002
2.643971e+003,1.396372e-002
2.645900e+003,1.397379e-002
2.647828e+003,1.403329e-002
2.649757e+003,1.420477e-002
2.651686e+003,1.442128e-002
2.653614e+003,1.453730e-002
2.655542e+003,1.474637e-002
2.657471e+003,1.496032e-002
2.659399e+003,1.496337e-002
2.661328e+003,1.482112e-002
2.663256e+003,1.469723e-002
2.665185e+003,1.455522e-002
2.667114e+003,1.435517e-002
2.669042e+003,1.421106e-002
2.670970e+003,1.412283e-002
2.672899e+003,1.400054e-002
2.674827e+003,1.380751e-002
2.676756e+003,1.364698e-002
2.678685e+003,1.347945e-002
2.680613e+003,1.331332e-002
2.682542e+003,1.319350e-002
2.684470e+003,1.308114e-002
2.686398e+003,1.295415e-002
2.688327e+003,1.277152e-002
2.690255e+003,1.257583e-002
2.692184e+003,1.244065e-002
2.694113e+003,1.239249e-002
2.696041e+003,1.237862e-002
2.697969e+003,1.242126e-002
2.699898e+003,1.248115e-002
2.701826e+003,1.258415e-002
2.703755e+003,1.273965e-002
2.705683e+003,1.290565e-002
2.707612e+003,1.312703e-002
2.709541e+003,1.334679e-002
2.711469e+003,1.347020e-002
2.713397e+003,1.361193e-002
2.715326e+003,1.382304e-002
2.717254e+003,1.396578e-002
2.719183e+003,1.416067e-002
2.721111e+003,1.439134e-002
2.723040e+003,1.468329e-002
2.724969e+003,1.502846e-002
2.726897e+003,1.534649e-002
2.728825e+003,1.559998e-002
2.730754e+003,1.585611e-002
2.732682e+003,1.608662e-002
2.734611e+003,1.625603e-002
2.736539e+003,1.643969e-002
2.738468e+003,1.658868e-002
2.740396e+003,1.665404e-002
2.742325e+003,1.665810e-002
2.744253e+003,1.667262e-002
2.746182e+003,1.668837e-002
2.748110e+003,1.671942e-002
2.750039e+003,1.681932e-002
2.751967e+003,1.694197e-002
2.753896e+003,1.709148e-002
2.755824e+003,1.736044e-002
2.757753e+003,1.779955e-002
2.759681e+003,1.827265e-002
2.761610e+003,1.868029e-002
2.763538e+003,1.905692e-002
2.765467e+003,1.946885e-002
2.767395e+003,1.994633e-002
2.769324e+003,2.046759e-002
2.771252e+003,2.109132e-002
2.773181e+003,2.185825e-002
2.775109e+003,2.266841e-002
2.777038e+003,2.356296e-002
2.778966e+003,2.457309e-002
2.780895e+003,2.564794e-002
2.782823e+003,2.675855e-002
2.784752e+003,2.801774e-002
2.786680e+003,2.952250e-002
2.788609e+003,3.112457e-002
2.790537e+003,3.286707e-002
2.792466e+003,3.455381e-002
2.794394e+003,3.626868e-002
2.796323e+003,3.808989e-002
2.798251e+003,3.999036e-002
2.800180e+003,4.205983e-002
2.802108e+003,4.425209e-002
2.804037e+003,4.655718e-002
2.805965e+003,4.907972e-002
2.807894e+003,5.193558e-002
2.809822e+003,5.510859e-002
2.811751e+003,5.859693e-002
2.813679e+003,6.246561e-002
2.815608e+003,6.693796e-002
2.817536e+003,7.218334e-002
2.819465e+003,7.845256e-002
2.821393e+003,8.599761e-002
2.823322e+003,9.514728e-002
2.825250e+003,1.064424e-001
2.827179e+003,1.208443e-001
2.829107e+003,1.395154e-001
2.831036e+003,1.642427e-001
2.832964e+003,1.979896e-001
2.834893e+003,2.453261e-001
2.836821e+003,3.125307e-001
2.838750e+003,4.099475e-001
2.840678e+003,5.547932e-001
2.842607e+003,7.680174e-001
2.844535e+003,1.057058e+000
2.846464e+003,1.341419e+000
2.848392e+003,1.373176e+000
2.850321e+003,1.109984e+000
2.852249e+003,8.204528e-001
2.854178e+003,6.145813e-001
2.856106e+003,4.725457e-001
2.858035e+003,3.707809e-001
2.859963e+003,2.979867e-001
2.861892e+003,2.472216e-001
2.863820e+003,2.133922e-001
2.865749e+003,1.927620e-001
2.867677e+003,1.821406e-001
2.869606e+003,1.785182e-001
2.871534e+003,1.796609e-001
2.873463e+003,1.850643e-001
2.875391e+003,1.959836e-001
2.877320e+003,2.133408e-001
2.879248e+003,2.365956e-001
2.881177e+003,2.643901e-001
2.883105e+003,2.956400e-001
2.885034e+003,3.298223e-001
2.886962e+003,3.665228e-001
2.888891e+003,4.047226e-001
2.890819e+003,4.433641e-001
2.892748e+003,4.817561e-001
2.894676e+003,5.195645e-001
2.896605e+003,5.576653e-001
2.898533e+003,5.978474e-001
2.900462e+003,6.428517e-001
2.902390e+003,6.973211e-001
2.904319e+003,7.681839e-001
2.906247e+003,8.647362e-001
2.908176e+003,9.979337e-001
2.910104e+003,1.176436e+000
2.912033e+003,1.389535e+000
2.913961e+003,1.566461e+000
2.915890e+003,1.584882e+000
2.917818e+003,1.426019e+000
2.919747e+003,1.204667e+000
2.921675e+003,1.002237e+000
2.923604e+003,8.363228e-001
2.925532e+003,7.034116e-001
2.927461e+003,5.951412e-001
2.929389e+003,5.044048e-001
2.931318e+003,4.269052e-001
2.933246e+003,3.604377e-001
2.935175e+003,3.036993e-001
2.937103e+003,2.554034e-001
2.939032e+003,2.145302e-001
2.940960e+003,1.806702e-001
2.942889e+003,1.531664e-001
2.944817e+003,1.315348e-001
2.946746e+003,1.154873e-001
2.948674e+003,1.043129e-001
2.950603e+003,9.668914e-002
2.952531e+003,9.091243e-002
2.954460e+003,8.562496e-002
2.956388e+003,8.011723e-002
2.958317e+003,7.416765e-002
2.960245e+003,6.784893e-002
2.962174e+003,6.128487e-002
2.964102e+003,5.487530e-002
2.966031e+003,4.885077e-002
2.967959e+003,4.342550e-002
2.969888e+003,3.874023e-002
2.971816e+003,3.476372e-002
2.973745e+003,3.132979e-002
2.975673e+003,2.855872e-002
2.977602e+003,2.624545e-002
2.979530e+003,2.431764e-002
2.981459e+003,2.272521e-002
2.983387e+003,2.142715e-002
2.985316e+003,2.027608e-002
2.987244e+003,1.919609e-002
2.989173e+003,1.820844e-002
2.991101e+003,1.728892e-002
2.993030e+003,1.658536e-002
2.994958e+003,1.603118e-002
2.996887e+003,1.551457e-002
2.998815e+003,1.497876e-002
3.000744e+003,1.442292e-002
3.002672e+003,1.392392e-002
3.004601e+003,1.342189e-002
3.006529e+003,1.301157e-002
3.008458e+003,1.267192e-002
3.010386e+003,1.239107e-002
3.012315e+003,1.209610e-002
3.014243e+003,1.179843e-002
3.016172e+003,1.156472e-002
3.018100e+003,1.140810e-002
3.020029e+003,1.118009e-002
3.021957e+003,1.101053e-002
3.023886e+003,1.085358e-002
3.025814e+003,1.062091e-002
3.027743e+003,1.036334e-002
3.029671e+003,1.016959e-002
3.031600e+003,9.987621e-003
3.033528e+003,9.702407e-003
3.035457e+003,9.409726e-003
3.037385e+003,9.174924e-003
3.039314e+003,8.828804e-003
3.041242e+003,8.424820e-003
3.043171e+003,8.073606e-003
3.045099e+003,7.793089e-003
3.047028e+003,7.576084e-003
3.048956e+003,7.297169e-003
3.050885e+003,7.076520e-003
3.052813e+003,6.941700e-003
3.054742e+003,6.753288e-003
3.056670e+003,6.525690e-003
3.058599e+003,6.349221e-003
3.060527e+003,6.316165e-003
3.062456e+003,6.072888e-003
3.064384e+003,5.783295e-003
3.066313e+003,5.664786e-003
3.068241e+003,5.599113e-003
3.070170e+003,5.464550e-003
3.072098e+003,5.340286e-003
3.074027e+003,5.292911e-003
3.075955e+003,5.181480e-003
3.077884e+003,5.049892e-003
3.079812e+003,4.967425e-003
3.081741e+003,4.845299e-003
3.083669e+003,4.703607e-003
3.085598e+003,4.647125e-003
3.087526e+003,4.546966e-003
3.089455e+003,4.258905e-003
3.091383e+003,3.981058e-003
3.093312e+003,3.716588e-003
3.095240e+003,3.467415e-003
3.097169e+003,3.158573e-003
3.099097e+003,2.877753e-003
3.101026e+003,2.691071e-003
3.102954e+003,2.541296e-003
3.104883e+003,2.415609e-003
3.106811e+003,2.264656e-003
3.108740e+003,2.130743e-003
3.110668e+003,1.994550e-003
3.112597e+003,1.851115e-003
3.114525e+003,1.883127e-003
3.116454e+003,1.773104e-003
3.118382e+003,1.617841e-003
3.120311e+003,1.583513e-003
3.122239e+003,1.581699e-003
3.124168e+003,1.553882e-003
3.126096e+003,1.500014e-003
3.128025e+003,1.367576e-003
3.129953e+003,1.269843e-003
3.131882e+003,1.323961e-003
3.133810e+003,1.392715e-003
3.135739e+003,1.327604e-003
3.137667e+003,1.258891e-003
3.139596e+003,1.168240e-003
3.141524e+003,1.171019e-003
3.143453e+003,1.171343e-003
3.145381e+003,1.147099e-003
3.147310e+003,1.165893e-003
3.149238e+003,1.242664e-003
3.151167e+003,1.232639e-003
3.153095e+003,1.213819e-003
3.155024e+003,1.218222e-003
3.156952e+003,1.290914e-003
3.158881e+003,1.279593e-003
3.160809e+003,1.170263e-003
3.162738e+003,1.068212e-003
3.164666e+003,1.131400e-003
3.166594e+003,1.297686e-003
3.168523e+003,1.291800e-003
3.170452e+003,1.232609e-003
3.172380e+003,1.200605e-003
3.174309e+003,1.142580e-003
3.176237e+003,1.163639e-003
3.178166e+003,1.267172e-003
3.180094e+003,1.226354e-003
3.182022e+003,1.223400e-003
3.183951e+003,1.278609e-003
3.185880e+003,1.253609e-003
3.187808e+003,1.237344e-003
3.189737e+003,1.288749e-003
3.191665e+003,1.347806e-003
3.193594e+003,1.279928e-003
3.195522e+003,1.252770e-003
3.197450e+003,1.270317e-003
3.199379e+003,1.289614e-003
3.201308e+003,1.299471e-003
3.203236e+003,1.350023e-003
3.205165e+003,1.421321e-003
3.207093e+003,1.445100e-003
3.209021e+003,1.396861e-003
3.210950e+003,1.460236e-003
3.212878e+003,1.469668e-003
3.214807e+003,1.443837e-003
3.216736e+003,1.357775e-003
3.218664e+003,1.319602e-003
3.220593e+003,1.420286e-003
3.222521e+003,1.466256e-003
3.224449e+003,1.534194e-003
3.226378e+003,1.574371e-003
3.228307e+003,1.528401e-003
3.230235e+003,1.495752e-003
3.232164e+003,1.481950e-003
3.234092e+003,1.512397e-003
3.236021e+003,1.559697e-003
3.237949e+003,1.542926e-003
3.239877e+003,1.546495e-003
3.241806e+003,1.545433e-003
3.243735e+003,1.579080e-003
3.245663e+003,1.629520e-003
3.247592e+003,1.621548e-003
3.249520e+003,1.669969e-003
3.251448e+003,1.702540e-003
3.253377e+003,1.755822e-003
3.255305e+003,1.746785e-003
3.257234e+003,1.786087e-003
3.259163e+003,1.878370e-003
3.261091e+003,1.976851e-003
3.263020e+003,1.957707e-003
3.264948e+003,2.016086e-003
3.266876e+003,2.046105e-003
3.268805e+003,2.082270e-003
3.270733e+003,2.076685e-003
3.272662e+003,2.101563e-003
3.274591e+003,2.174202e-003
3.276519e+003,2.170987e-003
3.278448e+003,2.134670e-003
3.280376e+003,2.161518e-003
3.282304e+003,2.213608e-003
3.284233e+003,2.231486e-003
3.286161e+003,2.272613e-003
3.288090e+003,2.274554e-003
3.290019e+003,2.293386e-003
3.291947e+003,2.407793e-003
3.293875e+003,2.335913e-003
3.295804e+003,2.180051e-003
3.297732e+003,2.261613e-003
3.299661e+003,2.335317e-003
3.301589e+003,2.279483e-003
3.303518e+003,2.250191e-003
3.305447e+003,2.283551e-003
3.307375e+003,2.352703e-003
3.309303e+003,2.329692e-003
3.311232e+003,2.318576e-003
3.313160e+003,2.329525e-003
3.315089e+003,2.245143e-003
3.317018e+003,2.252661e-003
3.318946e+003,2.275079e-003
3.320875e+003,2.249096e-003
3.322803e+003,2.300218e-003
3.324731e+003,2.298612e-003
3.326660e+003,2.343256e-003
3.328588e+003,2.363063e-003
3.330517e+003,2.333973e-003
3.332446e+003,2.354573e-003
3.334374e+003,2.400134e-003
3.336302e+003,2.366919e-003
3.338231e+003,2.324358e-003
3.340159e+003,2.259608e-003
3.342088e+003,2.226584e-003
3.344016e+003,2.276391e-003
3.345945e+003,2.292007e-003
3.347874e+003,2.253581e-003
3.349802e+003,2.268404e-003
3.351730e+003,2.353307e-003
3.353659e+003,2.352573e-003
3.355587e+003,2.280544e-003
3.357516e+003,2.292659e-003
3.359444e+003,2.271090e-003
3.361373e+003,2.284575e-003
3.363302e+003,2.242170e-003
3.365230e+003,2.269827e-003
3.367158e+003,2.298199e-003
3.369087e+003,2.272326e-003
3.371015e+003,2.239306e-003
3.372944e+003,2.135046e-003
3.374872e+003,2.133112e-003
3.376801e+003,2.171796e-003
3.378729e+003,2.155624e-003
3.380658e+003,2.087727e-003
3.382586e+003,2.108503e-003
3.384515e+003,2.163697e-003
3.386443e+003,2.160251e-003
3.388372e+003,2.052914e-003
3.390300e+003,1.959164e-003
3.392229e+003,1.962960e-003
3.394157e+003,1.842402e-003
3.396086e+003,1.728177e-003
3.398014e+003,1.618903e-003
3.399943e+003,1.620423e-003
3.401871e+003,1.652457e-003
3.403800e+003,1.648314e-003
3.405728e+003,1.590356e-003
3.407657e+003,1.614537e-003
3.409585e+003,1.531459e-003
3.411514e+003,1.474030e-003
3.413442e+003,1.473464e-003
3.415371e+003,1.416620e-003
3.417299e+003,1.341142e-003
3.419228e+003,1.465611e-003
3.421156e+003,1.544196e-003
3.423085e+003,1.497254e-003
3.425013e+003,1.484927e-003
3.426942e+003,1.429394e-003
3.428870e+003,1.350142e-003
3.430799e+003,1.368482e-003
3.432727e+003,1.359314e-003
3.434656e+003,1.266815e-003
3.436584e+003,1.122031e-003
3.438513e+003,1.117021e-003
3.440441e+003,1.257751e-003
3.442370e+003,1.374558e-003
3.444298e+003,1.359489e-003
3.446227e+003,1.432694e-003
3.448155e+003,1.362216e-003
3.450084e+003,1.194842e-003
3.452012e+003,1.048401e-003
3.453941e+003,9.557754e-004
3.455869e+003,9.070672e-004
3.457798e+003,8.570179e-004
3.459726e+003,9.302944e-004
3.461655e+003,1.090910e-003
3.463583e+003,9.977967e-004
3.465512e+003,8.377247e-004
3.467440e+003,6.957352e-004
3.469369e+003,7.041804e-004
3.471297e+003,7.263087e-004
3.473226e+003,6.355643e-004
3.475154e+003,5.891062e-004
3.477083e+003,6.196946e-004
3.479011e+003,6.068423e-004
3.480940e+003,6.834641e-004
3.482868e+003,5.537495e-004
3.484797e+003,4.711300e-004
3.486725e+003,4.442967e-004
3.488654e+003,4.166029e-004
3.490582e+003,2.887212e-004
3.492511e+003,2.569966e-004
3.494439e+003,3.618114e-004
3.496368e+003,3.122762e-004
3.498296e+003,2.243184e-004
3.500225e+003,2.425052e-004
3.502153e+003,4.990548e-004
3.504082e+003,5.426444e-004
3.506010e+003,2.216026e-004
3.507939e+003,9.332225e-005
3.509867e+003,1.663007e-004
3.511796e+003,1.445636e-004
3.513724e+003,-7.654354e-005
3.515653e+003,-4.001297e-004
3.517581e+003,-4.804768e-004
3.519510e+003,-5.322471e-004
3.521438e+003,-5.302839e-004
3.523367e+003,-1.893938e-004
3.525295e+003,5.666912e-005
3.527224e+003,1.970418e-004
3.529152e+003,-6.781518e-005
3.531081e+003,-3.384389e-004
3.533009e+003,-3.621578e-004
3.534938e+003,-2.458803e-004
3.536866e+003,-3.231354e-004
3.538795e+003,-5.396865e-004
3.540723e+003,-6.443337e-004
3.542652e+003,-4.362352e-004
3.544580e+003,3.025308e-005
3.546509e+003,6.369129e-005
3.548437e+003,-5.439334e-004
3.550366e+003,-7.134639e-004
3.552294e+003,-5.622432e-004
3.554223e+003,-6.240122e-004
3.556151e+003,-8.165538e-004
3.558080e+003,-8.465201e-004
3.560008e+003,-7.940158e-004
3.561937e+003,-6.486066e-004
3.563865e+003,-2.496876e-004
3.565794e+003,5.289316e-004
3.567722e+003,5.510785e-004
3.569651e+003,-4.549958e-004
3.571579e+003,-9.599552e-004
3.573508e+003,-8.579642e-004
3.575436e+003,-8.116737e-004
3.577365e+003,-8.902662e-004
3.579293e+003,-9.503551e-004
3.581222e+003,-9.605624e-004
3.583150e+003,-7.669777e-004
3.585079e+003,-3.632270e-004
3.587007e+003,4.491620e-004
3.588936e+003,3.645867e-004
3.590864e+003,-9.480119e-005
3.592793e+003,1.457483e-004
3.594721e+003,8.588172e-004
3.596650e+003,1.166653e-003
3.598578e+003,1.218047e-003
3.600507e+003,1.554996e-003
3.602435e+003,1.632739e-003
3.604364e+003,1.633134e-003
3.606292e+003,1.797564e-003
3.608221e+003,1.850788e-003
3.610149e+003,9.926111e-004
3.612078e+003,5.297549e-004
3.614006e+003,9.124987e-004
3.615935e+003,1.129605e-003
3.617863e+003,1.264833e-003
3.619792e+003,7.986985e-004
3.621720e+003,-1.688860e-004
3.623649e+003,-3.500991e-004
3.625577e+003,-1.102537e-004
3.627506e+003,4.561990e-005
3.629434e+003,4.894659e-005
3.631363e+003,-4.161596e-004
3.633291e+003,-1.673363e-004
3.635220e+003,2.587065e-004
3.637148e+003,2.169386e-004
3.639077e+003,-2.356581e-004
3.641005e+003,-4.333742e-004
3.642934e+003,-3.246740e-004
3.644862e+003,4.582107e-006
3.646791e+003,9.717271e-004
3.648719e+003,1.395684e-003
3.650648e+003,8.930303e-004
3.652576e+003,2.521537e-004
3.654505e+003,1.391582e-004
3.656433e+003,3.643520e-004
3.658362e+003,-3.561378e-006
3.660290e+003,-3.985055e-004
3.662219e+003,-3.684312e-004
3.664147e+003,-4.091263e-004
3.666076e+003,-4.778728e-004
3.668004e+003,-5.022176e-004
3.669933e+003,-8.022040e-005
3.671861e+003,-5.184747e-004
3.673790e+003,-4.020669e-004
3.675718e+003,9.902306e-004
3.677647e+003,2.273433e-004
3.679575e+003,-6.066933e-004
3.681504e+003,-9.137914e-004
3.683432e+003,-9.034760e-004
3.685361e+003,-1.036134e-003
3.687289e+003,-1.166299e-003
3.689218e+003,-3.155991e-004
3.691146e+003,-7.491559e-006
3.693075e+003,-4.403964e-004
3.695003e+003,-5.157515e-004
3.696932e+003,-2.755970e-004
3.698860e+003,-3.254488e-004
3.700789e+003,-5.089454e-004
3.702717e+003,-5.034022e-004
3.704646e+003,-6.965958e-004
3.706574e+003,-6.337725e-004
3.708503e+003,-2.466105e-004
3.710431e+003,3.402047e-004
3.712360e+003,1.674928e-004
3.714288e+003,-8.385256e-005
3.716217e+003,-3.635623e-004
3.718145e+003,-3.091991e-004
3.720074e+003,-1.789816e-004
3.722002e+003,1.596212e-004
3.723931e+003,2.851970e-004
3.725859e+003,3.749579e-004
3.727788e+003,1.935475e-004
3.729716e+003,-6.481260e-005
3.731645e+003,3.633611e-004
3.733573e+003,8.121356e-004
3.735502e+003,9.713694e-004
3.737430e+003,6.023757e-004
3.739359e+003,5.933978e-004
3.741287e+003,3.705882e-004
3.743216e+003,-4.455075e-005
3.745144e+003,3.106222e-004
3.747073e+003,4.042052e-004
3.749001e+003,6.046407e-004
3.750930e+003,9.771585e-004
3.752858e+003,1.281984e-004
3.754787e+003,-1.194626e-004
3.756715e+003,-2.157688e-004
3.758644e+003,-3.560819e-004
3.760572e+003,-6.779991e-004
3.762501e+003,-9.725913e-004
3.764429e+003,-5.501844e-004
3.766358e+003,-7.823482e-005
3.768286e+003,-1.643375e-004
3.770215e+003,-2.068616e-004
3.772143e+003,-4.686229e-004
3.774072e+003,-4.904531e-004
3.776000e+003,-3.504641e-004
3.777929e+003,-1.405142e-004
3.779857e+003,8.727238e-005
3.781786e+003,-1.409091e-004
3.783714e+003,8.891150e-005
3.785643e+003,4.098080e-004
3.787571e+003,6.673485e-005
3.789500e+003,-2.328493e-004
3.791428e+003,-1.824312e-004
3.793357e+003,-2.704747e-004
3.795285e+003,1.179092e-004
3.797214e+003,6.893761e-004
3.799142e+003,6.043017e-004
3.801071e+003,1.202356e-003
3.802999e+003,1.068048e-003
3.804927e+003,4.012063e-004
3.806856e+003,4.397444e-004
3.808785e+003,2.671033e-004
3.810713e+003,1.919158e-004
3.812642e+003,2.424456e-004
3.814570e+003,7.808544e-004
3.816499e+003,1.101211e-003
3.818427e+003,8.316822e-004
3.820355e+003,1.271900e-003
3.822284e+003,1.505479e-003
3.824213e+003,8.962154e-004
3.826141e+003,8.721128e-004
3.828070e+003,9.252764e-004
3.829998e+003,8.723885e-004
3.831927e+003,9.149276e-004
3.833855e+003,8.853003e-004
3.835783e+003,8.828975e-004
3.837712e+003,1.575448e-003
3.839641e+003,2.329998e-003
3.841569e+003,1.802705e-003
3.843498e+003,1.230735e-003
3.845426e+003,5.401112e-004
3.847354e+003,4.580095e-004
3.849283e+003,1.003072e-003
3.851211e+003,1.516379e-003
3.853140e+003,2.545305e-003
3.855069e+003,1.601938e-003
3.856997e+003,1.073800e-003
3.858926e+003,9.891838e-004
3.860854e+003,1.151789e-003
3.862782e+003,1.097724e-003
3.864711e+003,9.910390e-004
3.866640e+003,6.318949e-004
3.868568e+003,1.782387e-003
3.870497e+003,2.425328e-003
3.872425e+003,1.445659e-003
3.874354e+003,1.150452e-003
3.876282e+003,9.108856e-004
3.878210e+003,7.955544e-004
3.880139e+003,1.632944e-003
3.882068e+003,1.345124e-003
3.883996e+003,1.004901e-003
3.885925e+003,1.440097e-003
3.887853e+003,1.403496e-003
3.889781e+003,1.391329e-003
3.891710e+003,1.805231e-003
3.893638e+003,1.462828e-003
3.895567e+003,1.065701e-003
3.897496e+003,1.224425e-003
3.899424e+003,1.743801e-003
3.901353e+003,1.841236e-003
3.903281e+003,2.146460e-003
3.905209e+003,2.053946e-003
3.907138e+003,1.399700e-003
3.909066e+003,9.680539e-004
3.910995e+003,7.962808e-004
3.912924e+003,7.077530e-004
3.914852e+003,8.729473e-004
3.916781e+003,1.299638e-003
3.918709e+003,1.605429e-003
3.920637e+003,1.606960e-003
3.922566e+003,1.652516e-003
3.924494e+003,1.670491e-003
3.926423e+003,1.181811e-003
3.928352e+003,1.015875e-003
3.930280e+003,1.368087e-003
3.932208e+003,1.415625e-003
3.934137e+003,9.058490e-004
3.936065e+003,6.815307e-004
3.937994e+003,7.524677e-004
3.939922e+003,6.843098e-004
3.941851e+003,7.764995e-004
3.943780e+003,6.372109e-004
3.945708e+003,5.164370e-004
3.947636e+003,8.927919e-004
3.949565e+003,8.736700e-004
3.951493e+003,5.968511e-004
3.953422e+003,4.685521e-004
3.955351e+003,4.288927e-004
3.957279e+003,5.012341e-004
3.959208e+003,6.169975e-004
3.961136e+003,7.883683e-004
3.963064e+003,7.689670e-004
3.964993e+003,7.399842e-004
3.966921e+003,7.894710e-004
3.968850e+003,8.047186e-004
3.970779e+003,8.202530e-004
3.972707e+003,1.007769e-003
3.974635e+003,1.081537e-003
3.976564e+003,9.284616e-004
3.978492e+003,7.843077e-004
3.980421e+003,8.278824e-004
3.982349e+003,9.528771e-004
3.984278e+003,1.028407e-003
3.986207e+003,9.536929e-004
3.988135e+003,8.109473e-004
3.990063e+003,8.420050e-004
3.991992e+003,8.173026e-004
3.993920e+003,6.998219e-004
3.995849e+003,6.141625e-004
3.997777e+003,6.183982e-004
3.999706e+003,5.561337e-004
4.001635e+003,0.000000e+000
