3.991992e+002,0.000000e+000
4.011277e+002,0.000000e+000
4.030562e+002,0.000000e+000
4.049846e+002,0.000000e+000
4.069131e+002,0.000000e+000
4.088416e+002,0.000000e+000
4.107701e+002,0.000000e+000
4.126986e+002,0.000000e+000
4.146271e+002,0.000000e+000
4.165556e+002,0.000000e+000
4.184841e+002,0.000000e+000
4.204126e+002,0.000000e+000
4.223411e+002,0.000000e+000
4.242697e+002,0.000000e+000
4.261982e+002,0.000000e+000
4.281266e+002,0.000000e+000
4.300551e+002,0.000000e+000
4.319836e+002,0.000000e+000
4.339121e+002,0.000000e+000
4.358406e+002,0.000000e+000
4.377691e+002,0.000000e+000
4.396976e+002,0.000000e+000
4.416261e+002,0.000000e+000
4.435546e+002,0.000000e+000
4.454831e+002,0.000000e+000
4.474116e+002,0.000000e+000
4.493401e+002,0.000000e+000
4.512686e+002,0.000000e+000
4.531971e+002,0.000000e+000
4.551256e+002,0.000000e+000
4.570541e+002,0.000000e+000
4.589826e+002,0.000000e+000
4.609111e+002,0.000000e+000
4.628396e+002,0.000000e+000
4.647681e+002,0.000000e+000
4.666966e+002,0.000000e+000
4.686251e+002,0.000000e+000
4.705536e+002,0.000000e+000
4.724821e+002,0.000000e+000
4.744106e+002,0.000000e+000
4.763391e+002,0.000000e+000
4.782676e+002,0.000000e+000
4.801961e+002,0.000000e+000
4.821246e+002,0.000000e+000
4.840531e+002,0.000000e+000
4.859816e+002,0.000000e+000
4.879101e+002,0.000000e+000
4.898386e+002,0.000000e+000
4.917671e+002,0.000000e+000
4.936956e+002,0.000000e+000
4.956241e+002,0.000000e+000
4.975526e+002,0.000000e+000
4.994811e+002,0.000000e+000
5.014096e+002,0.000000e+000
5.033381e+002,0.000000e+000
5.052666e+002,0.000000e+000
5.071951e+002,0.000000e+000
5.091236e+002,0.000000e+000
5.110521e+002,0.000000e+000
5.129806e+002,0.000000e+000
5.149091e+002,0.000000e+000
5.168376e+002,0.000000e+000
5.187661e+002,0.000000e+000
5.206946e+002,0.000000e+000
5.226230e+002,0.000000e+000
5.245516e+002,-9.441548e-004
5.264800e+002,-1.026202e-003
5.284086e+002,-1.092430e-003
5.303370e+002,-9.907144e-004
5.322656e+002,-8.569341e-004
5.341940e+002,-1.067247e-003
5.361226e+002,-1.102880e-003
5.380510e+002,-1.038073e-003
5.399796e+002,-9.631049e-004
5.419081e+002,-9.676921e-004
5.438365e+002,-1.072564e-003
5.457650e+002,-1.134219e-003
5.476935e+002,-1.086447e-003
5.496221e+002,-1.101954e-003
5.515505e+002,-9.580366e-004
5.534790e+002,-8.056425e-004
5.554075e+002,-8.637225e-004
5.573361e+002,-8.940445e-004
5.592645e+002,-8.024862e-004
5.611931e+002,-9.108461e-004
5.631215e+002,-9.849188e-004
5.650500e+002,-1.050721e-003
5.669785e+002,-9.840066e-004
5.689070e+002,-7.537794e-004
5.708355e+002,-7.084198e-004
5.727640e+002,-6.313403e-004
5.746925e+002,-4.705139e-004
5.766210e+002,-5.017249e-004
5.785495e+002,-5.168933e-004
5.804780e+002,-5.222899e-004
5.824065e+002,-5.587651e-004
5.843350e+002,-5.544345e-004
5.862635e+002,-4.949183e-004
5.881920e+002,-4.650364e-004
5.901205e+002,-4.507895e-004
5.920490e+002,-5.038455e-004
5.939775e+002,-3.887182e-004
5.959060e+002,-2.846289e-004
5.978345e+002,-2.599256e-004
5.997630e+002,-3.641685e-004
6.016915e+002,-2.976749e-004
6.036200e+002,-2.820548e-004
6.055485e+002,-2.512466e-004
6.074770e+002,-2.894122e-004
6.094055e+002,-3.733588e-004
6.113340e+002,-4.043570e-004
6.132625e+002,-3.130473e-004
6.151910e+002,-4.728483e-004
6.171195e+002,-6.061350e-004
6.190480e+002,-6.532026e-004
6.209765e+002,-5.625910e-004
6.229050e+002,-4.214998e-004
6.248335e+002,-3.136573e-004
6.267620e+002,-2.498534e-004
6.286905e+002,-2.824562e-004
6.306190e+002,-2.995599e-004
6.325475e+002,-1.010699e-004
6.344760e+002,-7.960573e-005
6.364045e+002,-1.229439e-004
6.383330e+002,-8.855946e-005
6.402615e+002,1.051556e-005
6.421899e+002,4.578568e-005
6.441185e+002,1.431275e-004
6.460470e+002,2.766298e-004
6.479755e+002,3.318917e-004
6.499039e+002,2.989331e-004
6.518325e+002,3.459230e-004
6.537610e+002,2.990561e-004
6.556895e+002,3.649304e-004
6.576179e+002,4.946273e-004
6.595464e+002,6.932104e-004
6.614750e+002,8.526519e-004
6.634034e+002,9.298772e-004
6.653319e+002,9.176070e-004
6.672604e+002,1.010899e-003
6.691890e+002,1.138770e-003
6.711174e+002,1.347670e-003
6.730460e+002,1.432448e-003
6.749745e+002,1.671977e-003
6.769030e+002,1.865175e-003
6.788314e+002,2.155527e-003
6.807599e+002,2.436782e-003
6.826885e+002,2.690592e-003
6.846169e+002,2.859135e-003
6.865454e+002,3.178945e-003
6.884739e+002,3.598862e-003
6.904025e+002,4.051013e-003
6.923309e+002,4.376073e-003
6.942594e+002,4.938995e-003
6.961879e+002,5.642699e-003
6.981165e+002,6.508638e-003
7.000449e+002,7.378811e-003
7.019734e+002,8.492840e-003
7.039019e+002,9.965359e-003
7.058304e+002,1.227466e-002
7.077589e+002,1.536743e-002
7.096874e+002,1.991588e-002
7.116159e+002,2.695074e-002
7.135444e+002,4.001803e-002
7.154729e+002,6.238206e-002
7.174014e+002,9.281697e-002
7.193299e+002,1.072171e-001
7.212584e+002,8.299227e-002
7.231869e+002,5.739831e-002
7.251154e+002,4.857454e-002
7.270439e+002,5.360848e-002
7.289724e+002,6.914155e-002
7.309009e+002,6.521822e-002
7.328294e+002,3.788050e-002
7.347579e+002,2.003072e-002
7.366864e+002,1.352914e-002
7.386149e+002,1.067004e-002
7.405434e+002,8.924653e-003
7.424719e+002,7.871018e-003
7.444004e+002,6.971673e-003
7.463289e+002,6.244029e-003
7.482574e+002,5.586267e-003
7.501859e+002,5.176641e-003
7.521144e+002,4.763176e-003
7.540428e+002,4.427754e-003
7.559714e+002,4.115059e-003
7.578999e+002,3.873224e-003
7.598284e+002,3.606572e-003
7.617568e+002,3.397990e-003
7.636854e+002,3.226140e-003
7.656139e+002,3.092133e-003
7.675424e+002,2.902008e-003
7.694709e+002,2.701362e-003
7.713994e+002,2.502652e-003
7.733279e+002,2.323659e-003
7.752563e+002,2.169225e-003
7.771849e+002,2.024708e-003
7.791134e+002,1.941480e-003
7.810419e+002,1.953711e-003
7.829703e+002,1.912066e-003
7.848989e+002,1.828586e-003
7.868274e+002,1.760319e-003
7.887559e+002,1.719430e-003
7.906843e+002,1.712301e-003
7.926129e+002,1.715045e-003
7.945414e+002,1.740674e-003
7.964698e+002,1.769816e-003
7.983983e+002,1.731615e-003
8.003268e+002,1.751614e-003
8.022554e+002,1.777025e-003
8.041838e+002,1.760125e-003
8.061123e+002,1.735013e-003
8.080408e+002,1.668194e-003
8.099694e+002,1.652323e-003
8.118978e+002,1.640931e-003
8.138263e+002,1.567367e-003
8.157548e+002,1.536136e-003
8.176833e+002,1.547099e-003
8.196118e+002,1.510724e-003
8.215403e+002,1.450571e-003
8.234689e+002,1.395630e-003
8.253973e+002,1.320311e-003
8.273258e+002,1.410577e-003
8.292543e+002,1.468812e-003
8.311829e+002,1.431103e-003
8.331113e+002,1.479967e-003
8.350398e+002,1.527870e-003
8.369683e+002,1.572345e-003
8.388969e+002,1.651159e-003
8.408253e+002,1.654794e-003
8.427538e+002,1.685222e-003
8.446823e+002,1.793400e-003
8.466108e+002,1.882754e-003
8.485393e+002,1.920115e-003
8.504678e+002,1.984562e-003
8.523963e+002,2.079878e-003
8.543248e+002,2.109496e-003
8.562533e+002,2.131214e-003
8.581818e+002,2.136253e-003
8.601103e+002,2.065395e-003
8.620388e+002,2.024436e-003
8.639673e+002,2.159967e-003
8.658958e+002,2.161630e-003
8.678243e+002,2.101947e-003
8.697528e+002,2.064639e-003
8.716813e+002,2.163999e-003
8.736098e+002,2.268755e-003
8.755383e+002,2.321449e-003
8.774668e+002,2.311517e-003
8.793953e+002,2.313307e-003
8.813238e+002,2.281620e-003
8.832523e+002,2.355647e-003
8.851808e+002,2.514782e-003
8.871093e+002,2.642948e-003
8.890378e+002,2.713373e-003
8.909663e+002,2.744466e-003
8.928948e+002,2.579189e-003
8.948232e+002,2.410267e-003
8.967518e+002,2.333893e-003
8.986803e+002,2.288839e-003
9.006088e+002,2.259713e-003
9.025372e+002,2.411877e-003
9.044658e+002,2.687397e-003
9.063943e+002,3.075973e-003
9.083228e+002,3.308868e-003
9.102512e+002,3.223893e-003
9.121797e+002,2.895014e-003
9.141083e+002,2.610150e-003
9.160367e+002,2.336651e-003
9.179653e+002,2.184439e-003
9.198937e+002,2.192598e-003
9.218223e+002,2.186024e-003
9.237507e+002,2.082713e-003
9.256793e+002,2.043624e-003
9.276077e+002,2.042354e-003
9.295363e+002,2.123826e-003
9.314647e+002,2.228891e-003
9.333932e+002,2.288324e-003
9.353217e+002,2.275515e-003
9.372502e+002,2.351982e-003
9.391787e+002,2.430947e-003
9.411072e+002,2.521753e-003
9.430358e+002,2.593830e-003
9.449642e+002,2.722873e-003
9.468928e+002,2.797741e-003
9.488212e+002,2.905864e-003
9.507498e+002,3.024973e-003
9.526782e+002,3.137317e-003
9.546068e+002,3.261498e-003
9.565352e+002,3.522853e-003
9.584637e+002,3.671620e-003
9.603922e+002,3.833116e-003
9.623207e+002,3.995434e-003
9.642492e+002,4.144096e-003
9.661777e+002,4.180978e-003
9.681062e+002,4.216434e-003
9.700347e+002,4.204677e-003
9.719632e+002,4.189603e-003
9.738917e+002,4.127832e-003
9.758202e+002,4.083843e-003
9.777487e+002,4.078691e-003
9.796772e+002,4.185709e-003
9.816057e+002,4.265035e-003
9.835342e+002,4.423523e-003
9.854627e+002,4.545264e-003
9.873912e+002,4.678628e-003
9.893197e+002,4.858598e-003
9.912482e+002,5.032036e-003
9.931767e+002,5.010841e-003
9.951052e+002,5.023736e-003
9.970337e+002,5.065991e-003
9.989622e+002,5.131889e-003
1.000891e+003,5.237640e-003
1.002819e+003,5.404008e-003
1.004748e+003,5.524449e-003
1.006676e+003,5.693994e-003
1.008605e+003,5.843046e-003
1.010533e+003,6.045016e-003
1.012462e+003,6.254258e-003
1.014390e+003,6.490686e-003
1.016319e+003,6.673054e-003
1.018247e+003,6.909743e-003
1.020176e+003,7.078480e-003
1.022104e+003,7.271904e-003
1.024033e+003,7.450530e-003
1.025961e+003,7.650952e-003
1.027890e+003,7.808656e-003
1.029818e+003,7.922431e-003
1.031747e+003,7.961398e-003
1.033675e+003,8.016301e-003
1.035604e+003,8.008074e-003
1.037532e+003,8.020135e-003
1.039461e+003,7.988669e-003
1.041389e+003,7.973485e-003
1.043318e+003,8.001102e-003
1.045246e+003,8.181036e-003
1.047175e+003,8.344457e-003
1.049103e+003,8.608814e-003
1.051032e+003,8.834968e-003
1.052960e+003,8.988441e-003
1.054889e+003,9.166016e-003
1.056817e+003,9.438896e-003
1.058746e+003,9.671350e-003
1.060674e+003,9.916916e-003
1.062603e+003,1.005428e-002
1.064531e+003,1.016116e-002
1.066460e+003,1.026060e-002
1.068388e+003,1.046284e-002
1.070317e+003,1.065261e-002
1.072245e+003,1.099854e-002
1.074174e+003,1.157642e-002
1.076102e+003,1.236418e-002
1.078031e+003,1.314045e-002
1.079959e+003,1.394508e-002
1.081888e+003,1.459553e-002
1.083816e+003,1.507753e-002
1.085745e+003,1.549438e-002
1.087673e+003,1.605317e-002
1.089602e+003,1.665126e-002
1.091530e+003,1.724160e-002
1.093459e+003,1.767332e-002
1.095387e+003,1.791518e-002
1.097316e+003,1.789613e-002
1.099244e+003,1.771159e-002
1.101173e+003,1.736931e-002
1.103101e+003,1.699908e-002
1.105030e+003,1.653889e-002
1.106958e+003,1.625555e-002
1.108887e+003,1.626075e-002
1.110815e+003,1.660153e-002
1.112744e+003,1.719480e-002
1.114672e+003,1.791755e-002
1.116601e+003,1.846571e-002
1.118529e+003,1.877488e-002
1.120458e+003,1.856045e-002
1.122386e+003,1.791056e-002
1.124315e+003,1.704316e-002
1.126243e+003,1.642754e-002
1.128172e+003,1.623030e-002
1.130100e+003,1.665477e-002
1.132029e+003,1.764324e-002
1.133957e+003,1.920741e-002
1.135885e+003,2.104046e-002
1.137814e+003,2.303777e-002
1.139743e+003,2.482535e-002
1.141671e+003,2.625936e-002
1.143600e+003,2.730822e-002
1.145528e+003,2.825895e-002
1.147457e+003,2.918298e-002
1.149385e+003,3.018878e-002
1.151314e+003,3.134378e-002
1.153242e+003,3.259115e-002
1.155171e+003,3.372871e-002
1.157099e+003,3.477615e-002
1.159028e+003,3.557313e-002
1.160956e+003,3.607889e-002
1.162885e+003,3.616758e-002
1.164813e+003,3.591478e-002
1.166742e+003,3.529220e-002
1.168670e+003,3.439326e-002
1.170599e+003,3.324050e-002
1.172527e+003,3.205184e-002
1.174456e+003,3.083445e-002
1.176384e+003,2.961267e-002
1.178313e+003,2.826986e-002
1.180241e+003,2.699282e-002
1.182170e+003,2.584893e-002
1.184098e+003,2.486637e-002
1.186027e+003,2.397552e-002
1.187955e+003,2.323040e-002
1.189884e+003,2.251368e-002
1.191812e+003,2.180835e-002
1.193740e+003,2.108165e-002
1.195669e+003,2.044841e-002
1.197598e+003,1.985005e-002
1.199526e+003,1.942343e-002
1.201455e+003,1.903412e-002
1.203383e+003,1.881726e-002
1.205312e+003,1.875346e-002
1.207240e+003,1.886092e-002
1.209168e+003,1.889522e-002
1.211097e+003,1.893938e-002
1.213026e+003,1.897789e-002
1.214954e+003,1.907310e-002
1.216883e+003,1.921511e-002
1.218811e+003,1.946446e-002
1.220740e+003,1.978813e-002
1.222668e+003,2.023223e-002
1.224596e+003,2.069832e-002
1.226525e+003,2.120777e-002
1.228453e+003,2.166142e-002
1.230382e+003,2.215406e-002
1.232311e+003,2.260328e-002
1.234239e+003,2.295787e-002
1.236167e+003,2.310079e-002
1.238096e+003,2.317936e-002
1.240025e+003,2.309638e-002
1.241953e+003,2.285400e-002
1.243882e+003,2.233453e-002
1.245810e+003,2.164898e-002
1.247739e+003,2.079915e-002
1.249667e+003,2.004389e-002
1.251595e+003,1.936518e-002
1.253524e+003,1.888531e-002
1.255453e+003,1.856297e-002
1.257381e+003,1.840431e-002
1.259310e+003,1.815985e-002
1.261238e+003,1.786665e-002
1.263167e+003,1.748038e-002
1.265095e+003,1.711399e-002
1.267023e+003,1.670936e-002
1.268952e+003,1.644403e-002
1.270880e+003,1.621758e-002
1.272809e+003,1.611334e-002
1.274738e+003,1.605737e-002
1.276666e+003,1.611848e-002
1.278594e+003,1.610077e-002
1.280523e+003,1.601808e-002
1.282451e+003,1.569874e-002
1.284380e+003,1.542001e-002
1.286308e+003,1.513525e-002
1.288237e+003,1.503928e-002
1.290166e+003,1.506869e-002
1.292094e+003,1.531799e-002
1.294022e+003,1.563069e-002
1.295951e+003,1.598493e-002
1.297879e+003,1.623498e-002
1.299808e+003,1.649801e-002
1.301736e+003,1.655087e-002
1.303665e+003,1.650029e-002
1.305594e+003,1.625601e-002
1.307522e+003,1.606847e-002
1.309450e+003,1.580825e-002
1.311379e+003,1.553861e-002
1.313307e+003,1.511085e-002
1.315236e+003,1.474224e-002
1.317164e+003,1.435190e-002
1.319093e+003,1.396123e-002
1.321021e+003,1.335990e-002
1.322950e+003,1.284212e-002
1.324878e+003,1.234823e-002
1.326807e+003,1.202367e-002
1.328735e+003,1.179028e-002
1.330664e+003,1.178566e-002
1.332592e+003,1.189836e-002
1.334521e+003,1.237751e-002
1.336449e+003,1.300728e-002
1.338378e+003,1.397344e-002
1.340306e+003,1.491336e-002
1.342235e+003,1.557825e-002
1.344163e+003,1.608850e-002
1.346092e+003,1.683350e-002
1.348021e+003,1.761544e-002
1.349949e+003,1.841835e-002
1.351877e+003,1.884456e-002
1.353806e+003,1.892450e-002
1.355734e+003,1.873415e-002
1.357663e+003,1.888854e-002
1.359591e+003,1.924817e-002
1.361520e+003,2.002860e-002
1.363448e+003,2.119664e-002
1.365377e+003,2.227588e-002
1.367305e+003,2.299631e-002
1.369234e+003,2.300681e-002
1.371162e+003,2.212154e-002
1.373091e+003,2.140995e-002
1.375019e+003,2.181432e-002
1.376948e+003,2.251288e-002
1.378876e+003,2.084893e-002
1.380805e+003,1.731860e-002
1.382733e+003,1.422611e-002
1.384662e+003,1.252806e-002
1.386590e+003,1.136488e-002
1.388519e+003,1.060656e-002
1.390447e+003,9.938754e-003
1.392376e+003,9.532049e-003
1.394304e+003,9.228058e-003
1.396233e+003,9.360567e-003
1.398161e+003,9.511944e-003
1.400090e+003,9.806458e-003
1.402018e+003,9.700281e-003
1.403947e+003,9.760290e-003
1.405875e+003,9.505779e-003
1.407804e+003,9.639500e-003
1.409732e+003,9.912780e-003
1.411661e+003,1.075675e-002
1.413589e+003,1.154714e-002
1.415518e+003,1.250594e-002
1.417446e+003,1.302241e-002
1.419375e+003,1.350505e-002
1.421303e+003,1.338034e-002
1.423232e+003,1.396498e-002
1.425160e+003,1.511628e-002
1.427089e+003,1.723920e-002
1.429017e+003,2.005398e-002
1.430946e+003,2.421772e-002
1.432874e+003,2.755880e-002
1.434803e+003,3.068576e-002
1.436731e+003,3.429391e-002
1.438660e+003,3.727537e-002
1.440588e+003,3.878406e-002
1.442517e+003,4.088444e-002
1.444445e+003,4.262294e-002
1.446374e+003,4.516821e-002
1.448302e+003,4.891138e-002
1.450231e+003,5.451381e-002
1.452159e+003,6.285491e-002
1.454088e+003,7.342596e-002
1.456016e+003,8.390158e-002
1.457945e+003,1.062946e-001
1.459873e+003,1.446107e-001
1.461802e+003,1.827863e-001
1.463730e+003,1.828866e-001
1.465659e+003,1.463713e-001
1.467587e+003,1.332292e-001
1.469516e+003,1.272794e-001
1.471444e+003,1.393603e-001
1.473373e+003,1.219935e-001
1.475301e+003,6.724031e-002
1.477230e+003,3.089969e-002
1.479158e+003,2.029077e-002
1.481087e+003,1.502002e-002
1.483015e+003,1.241185e-002
1.484944e+003,1.051096e-002
1.486872e+003,1.001330e-002
1.488801e+003,8.880755e-003
1.490729e+003,8.515090e-003
1.492658e+003,7.327785e-003
1.494586e+003,7.223466e-003
1.496515e+003,6.669643e-003
1.498443e+003,6.883608e-003
1.500372e+003,6.162247e-003
1.502300e+003,5.971422e-003
1.504229e+003,5.286200e-003
1.506157e+003,5.712397e-003
1.508086e+003,5.429722e-003
1.510014e+003,5.743086e-003
1.511943e+003,5.301971e-003
1.513871e+003,5.372579e-003
1.515800e+003,5.153313e-003
1.517728e+003,5.435403e-003
1.519657e+003,5.235452e-003
1.521585e+003,5.570600e-003
1.523514e+003,5.089816e-003
1.525442e+003,5.086979e-003
1.527371e+003,4.901310e-003
1.529299e+003,5.248760e-003
1.531228e+003,5.105540e-003
1.533156e+003,5.444113e-003
1.535085e+003,5.213071e-003
1.537013e+003,5.320113e-003
1.538942e+003,5.291389e-003
1.540870e+003,6.096480e-003
1.542799e+003,5.458333e-003
1.544727e+003,5.492039e-003
1.546656e+003,5.106390e-003
1.548584e+003,5.338204e-003
1.550513e+003,4.992826e-003
1.552441e+003,4.899056e-003
1.554370e+003,4.520129e-003
1.556298e+003,4.571003e-003
1.558227e+003,4.608769e-003
1.560155e+003,4.484586e-003
1.562084e+003,3.767008e-003
1.564012e+003,3.643868e-003
1.565941e+003,3.408823e-003
1.567869e+003,3.488110e-003
1.569798e+003,3.411116e-003
1.571726e+003,3.450874e-003
1.573655e+003,3.184853e-003
1.575583e+003,3.338751e-003
1.577512e+003,3.406821e-003
1.579440e+003,3.397951e-003
1.581369e+003,3.149271e-003
1.583297e+003,3.175436e-003
1.585226e+003,3.091585e-003
1.587154e+003,3.176361e-003
1.589083e+003,3.175225e-003
1.591011e+003,3.204140e-003
1.592940e+003,3.105585e-003
1.594868e+003,3.256582e-003
1.596797e+003,3.245993e-003
1.598725e+003,3.260594e-003
1.600654e+003,3.160812e-003
1.602582e+003,3.193894e-003
1.604511e+003,3.167825e-003
1.606439e+003,3.443550e-003
1.608368e+003,3.503790e-003
1.610296e+003,3.551023e-003
1.612225e+003,3.462717e-003
1.614153e+003,3.579084e-003
1.616082e+003,3.964052e-003
1.618010e+003,4.278328e-003
1.619939e+003,4.010497e-003
1.621867e+003,4.092377e-003
1.623796e+003,4.463105e-003
1.625724e+003,4.887028e-003
1.627653e+003,4.994063e-003
1.629581e+003,5.056582e-003
1.631510e+003,5.000399e-003
1.633438e+003,5.134944e-003
1.635367e+003,5.563844e-003
1.637295e+003,6.124705e-003
1.639224e+003,6.081365e-003
1.641152e+003,6.180402e-003
1.643081e+003,6.354924e-003
1.645009e+003,6.563129e-003
1.646938e+003,6.948084e-003
1.648866e+003,7.020101e-003
1.650795e+003,6.793033e-003
1.652723e+003,7.033151e-003
1.654652e+003,7.337116e-003
1.656580e+003,7.025773e-003
1.658509e+003,6.503658e-003
1.660437e+003,6.264552e-003
1.662366e+003,6.005971e-003
1.664294e+003,5.894067e-003
1.666223e+003,5.653944e-003
1.668151e+003,5.477088e-003
1.670080e+003,5.329223e-003
1.672008e+003,5.228987e-003
1.673937e+003,5.232057e-003
1.675865e+003,5.229918e-003
1.677794e+003,4.969100e-003
1.679722e+003,4.803604e-003
1.681651e+003,4.446512e-003
1.683579e+003,4.595196e-003
1.685508e+003,4.743868e-003
1.687436e+003,4.758257e-003
1.689365e+003,4.562484e-003
1.691293e+003,4.451772e-003
1.693222e+003,4.223423e-003
1.695150e+003,4.441446e-003
1.697079e+003,4.734373e-003
1.699007e+003,4.982853e-003
1.700936e+003,4.914306e-003
1.702864e+003,5.381290e-003
1.704793e+003,5.578199e-003
1.706721e+003,5.976656e-003
1.708650e+003,6.263599e-003
1.710578e+003,6.659703e-003
1.712507e+003,7.087190e-003
1.714435e+003,7.628055e-003
1.716364e+003,8.315464e-003
1.718292e+003,9.973971e-003
1.720221e+003,1.103889e-002
1.722149e+003,1.224115e-002
1.724078e+003,1.407136e-002
1.726006e+003,1.618523e-002
1.727935e+003,1.886038e-002
1.729863e+003,2.304615e-002
1.731792e+003,2.730188e-002
1.733720e+003,3.538834e-002
1.735649e+003,4.649364e-002
1.737577e+003,5.302302e-002
1.739506e+003,6.453882e-002
1.741434e+003,7.585058e-002
1.743363e+003,8.418013e-002
1.745291e+003,8.921243e-002
1.747220e+003,8.954861e-002
1.749148e+003,8.410163e-002
1.751077e+003,7.345303e-002
1.753005e+003,6.044270e-002
1.754934e+003,5.011601e-002
1.756862e+003,3.755224e-002
1.758791e+003,2.769069e-002
1.760719e+003,2.124935e-002
1.762648e+003,1.509463e-002
1.764576e+003,1.136375e-002
1.766505e+003,8.922763e-003
1.768433e+003,6.976569e-003
1.770362e+003,6.055446e-003
1.772290e+003,5.250948e-003
1.774219e+003,4.331186e-003
1.776147e+003,3.470844e-003
1.778076e+003,2.820168e-003
1.780004e+003,2.703235e-003
1.781933e+003,2.456045e-003
1.783861e+003,2.286209e-003
1.785790e+003,1.940949e-003
1.787718e+003,1.685122e-003
1.789646e+003,1.530135e-003
1.791575e+003,1.637600e-003
1.793504e+003,1.412109e-003
1.795432e+003,1.295997e-003
1.797361e+003,1.050938e-003
1.799289e+003,1.010027e-003
1.801218e+003,9.452067e-004
1.803146e+003,9.324253e-004
1.805074e+003,7.688496e-004
1.807003e+003,6.106254e-004
1.808932e+003,3.705984e-004
1.810860e+003,2.592029e-004
1.812789e+003,6.410945e-005
1.814717e+003,-8.295104e-005
1.816646e+003,-3.742576e-004
1.818574e+003,-4.938059e-005
1.820502e+003,1.306618e-004
1.822431e+003,1.880946e-004
1.824360e+003,1.107929e-004
1.826288e+003,-1.718123e-004
1.828217e+003,-3.211861e-004
1.830145e+003,-3.031818e-004
1.832073e+003,-5.660448e-004
1.834002e+003,-6.337697e-004
1.835931e+003,-7.809373e-004
1.837859e+003,-6.394312e-004
1.839788e+003,-6.815856e-004
1.841716e+003,-6.656712e-004
1.843645e+003,-7.521929e-004
1.845573e+003,-7.813647e-004
1.847501e+003,-8.979300e-004
1.849430e+003,-8.372376e-004
1.851359e+003,-1.116536e-003
1.853287e+003,-1.141427e-003
1.855216e+003,-1.201291e-003
1.857144e+003,-1.007185e-003
1.859073e+003,-1.018153e-003
1.861001e+003,-8.397540e-004
1.862929e+003,-1.009716e-003
1.864858e+003,-9.157015e-004
1.866787e+003,-7.512039e-004
1.868715e+003,-4.710536e-004
1.870644e+003,-6.914502e-004
1.872572e+003,-8.562207e-004
1.874500e+003,-1.190982e-003
1.876429e+003,-1.058810e-003
1.878357e+003,-1.080315e-003
1.880286e+003,-8.686008e-004
1.882215e+003,-8.820407e-004
1.884143e+003,-7.673111e-004
1.886072e+003,-1.023232e-003
1.888000e+003,-7.076180e-004
1.889928e+003,-5.332381e-004
1.891857e+003,-5.455054e-004
1.893785e+003,-5.801804e-004
1.895714e+003,-1.720060e-004
1.897643e+003,-1.936574e-004
1.899571e+003,-2.222927e-004
1.901500e+003,-2.209097e-004
1.903428e+003,-2.195304e-004
1.905356e+003,-2.181605e-004
1.907285e+003,-2.167998e-004
1.909213e+003,-2.154447e-004
1.911142e+003,-2.140952e-004
1.913071e+003,-2.127551e-004
1.914999e+003,-2.114233e-004
1.916927e+003,-2.100989e-004
1.918856e+003,-2.087783e-004
1.920784e+003,-2.074689e-004
1.922713e+003,-2.061650e-004
1.924641e+003,-2.048686e-004
1.926570e+003,-2.035778e-004
1.928499e+003,-2.022944e-004
1.930427e+003,-2.010223e-004
1.932355e+003,-1.997538e-004
1.934284e+003,-1.984928e-004
1.936212e+003,-1.972392e-004
1.938141e+003,-1.959950e-004
1.940070e+003,-1.947563e-004
1.941998e+003,-1.935251e-004
1.943927e+003,-1.923032e-004
1.945855e+003,-1.910850e-004
1.947783e+003,-1.898762e-004
1.949712e+003,-1.886748e-004
1.951640e+003,-1.874808e-004
1.953569e+003,-1.862925e-004
1.955498e+003,-1.851134e-004
1.957426e+003,-1.839399e-004
1.959354e+003,-1.827739e-004
1.961283e+003,-1.816172e-004
1.963211e+003,-1.804661e-004
1.965140e+003,-1.793206e-004
1.967068e+003,-1.781862e-004
1.968997e+003,-1.770593e-004
1.970926e+003,-1.759361e-004
1.972854e+003,-1.748223e-004
1.974782e+003,-1.737140e-004
1.976711e+003,-1.726151e-004
1.978639e+003,-1.715217e-004
1.980568e+003,-1.704376e-004
1.982496e+003,-1.693591e-004
1.984425e+003,-1.682881e-004
1.986354e+003,-1.672246e-004
1.988282e+003,-1.661703e-004
1.990210e+003,-1.651198e-004
1.992139e+003,-1.640785e-004
1.994067e+003,-1.630448e-004
1.995996e+003,-1.620185e-004
1.997924e+003,-1.609977e-004
1.999853e+003,-1.599863e-004
2.001781e+003,-1.589805e-004
2.003710e+003,-1.579840e-004
2.005638e+003,-1.569949e-004
2.007567e+003,-1.560096e-004
2.009495e+003,-1.550354e-004
2.011424e+003,-1.540668e-004
2.013352e+003,-1.531038e-004
2.015281e+003,-1.521502e-004
2.017209e+003,-1.512039e-004
2.019138e+003,-1.502652e-004
2.021066e+003,-1.493320e-004
2.022995e+003,-1.484063e-004
2.024923e+003,-1.474917e-004
2.026852e+003,-1.465809e-004
2.028781e+003,-1.456756e-004
2.030709e+003,-1.447834e-004
2.032637e+003,-1.438949e-004
2.034566e+003,-1.430120e-004
2.036494e+003,-1.421385e-004
2.038423e+003,-1.412705e-004
2.040351e+003,-1.404136e-004
2.042280e+003,-1.395606e-004
2.044208e+003,-1.387149e-004
2.046137e+003,-1.378804e-004
2.048065e+003,-1.370497e-004
2.049994e+003,-1.362264e-004
2.051922e+003,-1.354124e-004
2.053851e+003,-1.346022e-004
2.055779e+003,-1.338031e-004
2.057708e+003,-1.330096e-004
2.059636e+003,-1.322217e-004
2.061565e+003,-1.314450e-004
2.063493e+003,-1.306739e-004
2.065422e+003,-1.299083e-004
2.067350e+003,-1.291521e-004
2.069279e+003,-1.283996e-004
2.071207e+003,-1.276601e-004
2.073136e+003,-1.269225e-004
2.075064e+003,-1.261942e-004
2.076993e+003,-1.254752e-004
2.078921e+003,-1.247618e-004
2.080850e+003,-1.240578e-004
2.082778e+003,-1.233574e-004
2.084707e+003,-1.226664e-004
2.086635e+003,-1.219828e-004
2.088564e+003,-1.213048e-004
2.090492e+003,-1.206361e-004
2.092421e+003,-1.199730e-004
2.094349e+003,-1.193210e-004
2.096278e+003,-1.186710e-004
2.098206e+003,-1.180284e-004
2.100135e+003,-1.173951e-004
2.102063e+003,-1.167711e-004
2.103992e+003,-1.161527e-004
2.105920e+003,-1.155399e-004
2.107849e+003,-1.149382e-004
2.109777e+003,-1.143422e-004
2.111706e+003,-1.137517e-004
2.113634e+003,-1.131687e-004
2.115563e+003,-1.125950e-004
2.117491e+003,-1.120269e-004
2.119420e+003,-1.114681e-004
2.121348e+003,-1.109149e-004
2.123277e+003,-1.103692e-004
2.125205e+003,-1.098327e-004
2.127134e+003,-1.093000e-004
2.129062e+003,-1.087748e-004
2.130991e+003,-1.082588e-004
2.132919e+003,-1.077503e-004
2.134848e+003,-1.072492e-004
2.136776e+003,-1.067556e-004
2.138705e+003,-1.062658e-004
2.140633e+003,-1.057889e-004
2.142562e+003,-1.053121e-004
2.144490e+003,-1.048483e-004
2.146419e+003,-1.043901e-004
2.148347e+003,-1.039393e-004
2.150276e+003,-1.034979e-004
2.152204e+003,-1.030602e-004
2.154133e+003,-1.026317e-004
2.156061e+003,-1.022089e-004
2.157990e+003,-1.017936e-004
2.159918e+003,-1.013875e-004
2.161847e+003,-1.009889e-004
2.163775e+003,-1.005977e-004
2.165704e+003,-1.002122e-004
2.167632e+003,-9.983405e-005
2.169561e+003,-9.946339e-005
2.171489e+003,-9.910017e-005
2.173418e+003,-9.874441e-005
2.175346e+003,-9.839423e-005
2.177275e+003,-9.805523e-005
2.179203e+003,-9.771995e-005
2.181132e+003,-9.739213e-005
2.183060e+003,-9.707361e-005
2.184989e+003,-9.676255e-005
2.186917e+003,-9.645708e-005
2.188846e+003,-9.615719e-005
2.190774e+003,-9.586662e-005
2.192703e+003,-9.558536e-005
2.194631e+003,-9.531155e-005
2.196560e+003,-9.503961e-005
2.198488e+003,-9.478070e-005
2.200417e+003,-9.452365e-005
2.202345e+003,-9.427965e-005
2.204274e+003,-9.403937e-005
2.206202e+003,-9.380654e-005
2.208131e+003,-9.358115e-005
2.210059e+003,-9.336509e-005
2.211988e+003,-9.315647e-005
2.213916e+003,-9.295344e-005
2.215845e+003,-9.275973e-005
2.217773e+003,-9.256974e-005
2.219702e+003,-9.238906e-005
2.221630e+003,-9.221397e-005
2.223559e+003,-9.204820e-005
2.225487e+003,-9.188987e-005
2.227416e+003,-9.173714e-005
2.229344e+003,-9.159185e-005
2.231273e+003,-9.145401e-005
2.233201e+003,-9.132549e-005
2.235130e+003,-9.120442e-005
2.237058e+003,-9.108521e-005
2.238987e+003,-9.097904e-005
2.240915e+003,-9.088032e-005
2.242844e+003,-9.078719e-005
2.244772e+003,-9.069778e-005
2.246701e+003,-9.061955e-005
2.248629e+003,-9.054877e-005
2.250558e+003,-9.048358e-005
2.252486e+003,-9.042397e-005
2.254415e+003,-9.037741e-005
2.256343e+003,-9.033456e-005
2.258272e+003,-9.030104e-005
2.260200e+003,-9.027123e-005
2.262129e+003,-9.025075e-005
2.264057e+003,-9.023771e-005
2.265986e+003,-9.023212e-005
2.267914e+003,-9.023398e-005
2.269843e+003,-9.024329e-005
2.271771e+003,-9.026006e-005
2.273700e+003,-9.028241e-005
2.275628e+003,-9.031035e-005
2.277557e+003,-9.034947e-005
2.279485e+003,-9.039417e-005
2.281414e+003,-9.044632e-005
2.283342e+003,-9.050779e-005
2.285271e+003,-9.057298e-005
2.287199e+003,-9.064935e-005
2.289128e+003,-9.072758e-005
2.291056e+003,-9.081699e-005
2.292985e+003,-9.091385e-005
2.294913e+003,-9.101816e-005
2.296842e+003,-9.112805e-005
2.298770e+003,-9.124540e-005
2.300699e+003,-9.137206e-005
2.302627e+003,-9.150431e-005
2.304556e+003,-9.164400e-005
2.306484e+003,-9.179115e-005
2.308413e+003,-9.194575e-005
2.310341e+003,-9.210780e-005
2.312270e+003,-9.227730e-005
2.314198e+003,-9.245425e-005
2.316127e+003,-9.263679e-005
2.318055e+003,-9.283051e-005
2.319984e+003,-9.302609e-005
2.321912e+003,-9.323098e-005
2.323841e+003,-9.344332e-005
2.325769e+003,-9.366311e-005
2.327698e+003,-9.389035e-005
2.329626e+003,-9.412691e-005
2.331555e+003,-9.436905e-005
2.333483e+003,-9.461679e-005
2.335412e+003,-9.487383e-005
2.337340e+003,-9.513646e-005
2.339269e+003,-9.540841e-005
2.341197e+003,-9.568781e-005
2.343126e+003,-9.597465e-005
2.345054e+003,-9.626709e-005
2.346983e+003,-9.656698e-005
2.348911e+003,-9.687431e-005
2.350840e+003,-9.718724e-005
2.352768e+003,-9.750947e-005
2.354697e+003,-9.783916e-005
2.356625e+003,-9.818003e-005
2.358554e+003,-9.852089e-005
2.360482e+003,-9.887293e-005
2.362411e+003,-9.923056e-005
2.364339e+003,-9.959750e-005
2.366268e+003,-9.997003e-005
2.368196e+003,-1.003500e-004
2.370125e+003,-1.007393e-004
2.372053e+003,-1.011360e-004
2.373982e+003,-1.015365e-004
2.375910e+003,-1.019463e-004
2.377839e+003,-1.023635e-004
2.379767e+003,-1.027845e-004
2.381696e+003,-1.032185e-004
2.383624e+003,-1.036581e-004
2.385553e+003,-1.041032e-004
2.387481e+003,-1.045577e-004
2.389410e+003,-1.050178e-004
2.391338e+003,-1.054835e-004
2.393267e+003,-1.059603e-004
2.395195e+003,-1.064427e-004
2.397124e+003,-1.069345e-004
2.399052e+003,-1.074299e-004
2.400981e+003,-8.672476e-005
2.402909e+003,-2.357438e-004
2.404838e+003,-1.631770e-004
2.406766e+003,1.504887e-004
2.408695e+003,3.663208e-004
2.410623e+003,2.962891e-004
2.412552e+003,1.959205e-004
2.414480e+003,2.127010e-004
2.416409e+003,2.969783e-004
2.418337e+003,2.612602e-004
2.420266e+003,3.155470e-004
2.422194e+003,2.653822e-004
2.424123e+003,2.783984e-004
2.426051e+003,3.051907e-004
2.427979e+003,2.715159e-004
2.429908e+003,9.830669e-005
2.431837e+003,1.317244e-004
2.433765e+003,1.509767e-004
2.435694e+003,1.004320e-004
2.437622e+003,1.769569e-004
2.439551e+003,2.535135e-004
2.441479e+003,2.780017e-004
2.443407e+003,3.504623e-004
2.445336e+003,3.776159e-004
2.447265e+003,4.388541e-004
2.449193e+003,4.261527e-004
2.451122e+003,3.932305e-004
2.453050e+003,3.890805e-004
2.454979e+003,4.228819e-004
2.456907e+003,4.235357e-004
2.458836e+003,5.333070e-004
2.460764e+003,6.188974e-004
2.462693e+003,6.217659e-004
2.464621e+003,4.676376e-004
2.466550e+003,2.707243e-004
2.468478e+003,3.015604e-004
2.470406e+003,5.956646e-004
2.472335e+003,8.151215e-004
2.474264e+003,8.457787e-004
2.476192e+003,7.942449e-004
2.478121e+003,8.830205e-004
2.480049e+003,7.785466e-004
2.481978e+003,7.014144e-004
2.483906e+003,7.814858e-004
2.485835e+003,8.489937e-004
2.487763e+003,7.943101e-004
2.489692e+003,7.719211e-004
2.491620e+003,9.868741e-004
2.493549e+003,1.261521e-003
2.495477e+003,1.217986e-003
2.497406e+003,1.151839e-003
2.499334e+003,1.196064e-003
2.501263e+003,1.191663e-003
2.503191e+003,1.147225e-003
2.505120e+003,1.242233e-003
2.507048e+003,1.253251e-003
2.508977e+003,1.372056e-003
2.510905e+003,1.510231e-003
2.512833e+003,1.646675e-003
2.514762e+003,1.685552e-003
2.516691e+003,1.714610e-003
2.518619e+003,1.713982e-003
2.520548e+003,1.904259e-003
2.522476e+003,1.998192e-003
2.524405e+003,2.161428e-003
2.526333e+003,2.297498e-003
2.528261e+003,2.440622e-003
2.530190e+003,2.459068e-003
2.532119e+003,2.420567e-003
2.534047e+003,2.272524e-003
2.535976e+003,2.199663e-003
2.537904e+003,2.274690e-003
2.539833e+003,2.388146e-003
2.541761e+003,2.543138e-003
2.543689e+003,2.889067e-003
2.545618e+003,3.062395e-003
2.547547e+003,3.115686e-003
2.549475e+003,3.087403e-003
2.551404e+003,3.062950e-003
2.553332e+003,3.038108e-003
2.555260e+003,3.255174e-003
2.557189e+003,3.449390e-003
2.559117e+003,3.514437e-003
2.561046e+003,3.561880e-003
2.562975e+003,3.690898e-003
2.564903e+003,3.609698e-003
2.566832e+003,3.552798e-003
2.568760e+003,3.659533e-003
2.570688e+003,3.736390e-003
2.572617e+003,3.931610e-003
2.574546e+003,4.253644e-003
2.576474e+003,4.534582e-003
2.578403e+003,4.641615e-003
2.580331e+003,4.697196e-003
2.582260e+003,4.838906e-003
2.584188e+003,4.946839e-003
2.586116e+003,5.110005e-003
2.588045e+003,5.469099e-003
2.589974e+003,5.706757e-003
2.591902e+003,5.841458e-003
2.593831e+003,6.008059e-003
2.595759e+003,6.096845e-003
2.597688e+003,6.181531e-003
2.599616e+003,6.361822e-003
2.601544e+003,6.519159e-003
2.603473e+003,6.646857e-003
2.605402e+003,6.965619e-003
2.607330e+003,7.216360e-003
2.609259e+003,7.430449e-003
2.611187e+003,7.713925e-003
2.613115e+003,7.961715e-003
2.615044e+003,8.179318e-003
2.616972e+003,8.489840e-003
2.618901e+003,8.799810e-003
2.620830e+003,9.140713e-003
2.622758e+003,9.467386e-003
2.624687e+003,9.890866e-003
2.626615e+003,1.031277e-002
2.628543e+003,1.068223e-002
2.630472e+003,1.099056e-002
2.632400e+003,1.134670e-002
2.634329e+003,1.159555e-002
2.636258e+003,1.169040e-002
2.638186e+003,1.176406e-002
2.640115e+003,1.186050e-002
2.642043e+003,1.191572e-002
2.643971e+003,1.188900e-002
2.645900e+003,1.181864e-002
2.647828e+003,1.191136e-002
2.649757e+003,1.207101e-002
2.651686e+003,1.220419e-002
2.653614e+003,1.238293e-002
2.655542e+003,1.261060e-002
2.657471e+003,1.274392e-002
2.659399e+003,1.278665e-002
2.661328e+003,1.272795e-002
2.663256e+003,1.254917e-002
2.665185e+003,1.243135e-002
2.667114e+003,1.236159e-002
2.669042e+003,1.228087e-002
2.670970e+003,1.225451e-002
2.672899e+003,1.216481e-002
2.674827e+003,1.206120e-002
2.676756e+003,1.195058e-002
2.678685e+003,1.178563e-002
2.680613e+003,1.167638e-002
2.682542e+003,1.154904e-002
2.684470e+003,1.140404e-002
2.686398e+003,1.127815e-002
2.688327e+003,1.112432e-002
2.690255e+003,1.093168e-002
2.692184e+003,1.085893e-002
2.694113e+003,1.080563e-002
2.696041e+003,1.069052e-002
2.697969e+003,1.062495e-002
2.699898e+003,1.064196e-002
2.701826e+003,1.073897e-002
2.703755e+003,1.085408e-002
2.705683e+003,1.097311e-002
2.707612e+003,1.112868e-002
2.709541e+003,1.136333e-002
2.711469e+003,1.150961e-002
2.713397e+003,1.164249e-002
2.715326e+003,1.183093e-002
2.717254e+003,1.199434e-002
2.719183e+003,1.219174e-002
2.721111e+003,1.234146e-002
2.723040e+003,1.255855e-002
2.724969e+003,1.296764e-002
2.726897e+003,1.331515e-002
2.728825e+003,1.353388e-002
2.730754e+003,1.364242e-002
2.732682e+003,1.377696e-002
2.734611e+003,1.393690e-002
2.736539e+003,1.403387e-002
2.738468e+003,1.410851e-002
2.740396e+003,1.419485e-002
2.742325e+003,1.424185e-002
2.744253e+003,1.430924e-002
2.746182e+003,1.435325e-002
2.748110e+003,1.428482e-002
2.750039e+003,1.427998e-002
2.751967e+003,1.439133e-002
2.753896e+003,1.454668e-002
2.755824e+003,1.477732e-002
2.757753e+003,1.511191e-002
2.759681e+003,1.547290e-002
2.761610e+003,1.577817e-002
2.763538e+003,1.614500e-002
2.765467e+003,1.650723e-002
2.767395e+003,1.691277e-002
2.769324e+003,1.746146e-002
2.771252e+003,1.800829e-002
2.773181e+003,1.863624e-002
2.775109e+003,1.937970e-002
2.777038e+003,2.018401e-002
2.778966e+003,2.110850e-002
2.780895e+003,2.209136e-002
2.782823e+003,2.315448e-002
2.784752e+003,2.433313e-002
2.786680e+003,2.564357e-002
2.788609e+003,2.704969e-002
2.790537e+003,2.848064e-002
2.792466e+003,2.995210e-002
2.794394e+003,3.154320e-002
2.796323e+003,3.325609e-002
2.798251e+003,3.493575e-002
2.800180e+003,3.669976e-002
2.802108e+003,3.871746e-002
2.804037e+003,4.089379e-002
2.805965e+003,4.324923e-002
2.807894e+003,4.574507e-002
2.809822e+003,4.854089e-002
2.811751e+003,5.176859e-002
2.813679e+003,5.539786e-002
2.815608e+003,5.967730e-002
2.817536e+003,6.454687e-002
2.819465e+003,7.018983e-002
2.821393e+003,7.701044e-002
2.823322e+003,8.531572e-002
2.825250e+003,9.556890e-002
2.827179e+003,1.086007e-001
2.829107e+003,1.252760e-001
2.831036e+003,1.470553e-001
2.832964e+003,1.764695e-001
2.834893e+003,2.175785e-001
2.836821e+003,2.757135e-001
2.838750e+003,3.597037e-001
2.840678e+003,4.830761e-001
2.842607e+003,6.612239e-001
2.844535e+003,8.959805e-001
2.846464e+003,1.120413e+000
2.848392e+003,1.153629e+000
2.850321e+003,9.646253e-001
2.852249e+003,7.459863e-001
2.854178e+003,5.846496e-001
2.856106e+003,4.671111e-001
2.858035e+003,3.771974e-001
2.859963e+003,3.088822e-001
2.861892e+003,2.587120e-001
2.863820e+003,2.238154e-001
2.865749e+003,2.017267e-001
2.867677e+003,1.901118e-001
2.869606e+003,1.859433e-001
2.871534e+003,1.854973e-001
2.873463e+003,1.870987e-001
2.875391e+003,1.922606e-001
2.877320e+003,2.029051e-001
2.879248e+003,2.194118e-001
2.881177e+003,2.408676e-001
2.883105e+003,2.661580e-001
2.885034e+003,2.945503e-001
2.886962e+003,3.255402e-001
2.888891e+003,3.583778e-001
2.890819e+003,3.920880e-001
2.892748e+003,4.258139e-001
2.894676e+003,4.592738e-001
2.896605e+003,4.931424e-001
2.898533e+003,5.287815e-001
2.900462e+003,5.685066e-001
2.902390e+003,6.160336e-001
2.904319e+003,6.766205e-001
2.906247e+003,7.571747e-001
2.908176e+003,8.658285e-001
2.910104e+003,1.008597e+000
2.912033e+003,1.178335e+000
2.913961e+003,1.327789e+000
2.915890e+003,1.368259e+000
2.917818e+003,1.269464e+000
2.919747e+003,1.107748e+000
2.921675e+003,9.507636e-001
2.923604e+003,8.171853e-001
2.925532e+003,7.058404e-001
2.927461e+003,6.111531e-001
2.929389e+003,5.287300e-001
2.931318e+003,4.562592e-001
2.933246e+003,3.925188e-001
2.935175e+003,3.369212e-001
2.937103e+003,2.890138e-001
2.939032e+003,2.480907e-001
2.940960e+003,2.139097e-001
2.942889e+003,1.861336e-001
2.944817e+003,1.643434e-001
2.946746e+003,1.484912e-001
2.948674e+003,1.382128e-001
2.950603e+003,1.320552e-001
2.952531e+003,1.277502e-001
2.954460e+003,1.232651e-001
2.956388e+003,1.176113e-001
2.958317e+003,1.105684e-001
2.960245e+003,1.022930e-001
2.962174e+003,9.311386e-002
2.964102e+003,8.361442e-002
2.966031e+003,7.423255e-002
2.967959e+003,6.551485e-002
2.969888e+003,5.781144e-002
2.971816e+003,5.127572e-002
2.973745e+003,4.579886e-002
2.975673e+003,4.128519e-002
2.977602e+003,3.747789e-002
2.979530e+003,3.429610e-002
2.981459e+003,3.163294e-002
2.983387e+003,2.941932e-002
2.985316e+003,2.764110e-002
2.987244e+003,2.620274e-002
2.989173e+003,2.511549e-002
2.991101e+003,2.440825e-002
2.993030e+003,2.408616e-002
2.994958e+003,2.443230e-002
2.996887e+003,2.517257e-002
2.998815e+003,2.609267e-002
3.000744e+003,2.709101e-002
3.002672e+003,2.778930e-002
3.004601e+003,2.799493e-002
3.006529e+003,2.764265e-002
3.008458e+003,2.659345e-002
3.010386e+003,2.509511e-002
3.012315e+003,2.319523e-002
3.014243e+003,2.114549e-002
3.016172e+003,1.923483e-002
3.018100e+003,1.751507e-002
3.020029e+003,1.600985e-002
3.021957e+003,1.472978e-002
3.023886e+003,1.374449e-002
3.025814e+003,1.299857e-002
3.027743e+003,1.233166e-002
3.029671e+003,1.172637e-002
3.031600e+003,1.124116e-002
3.033528e+003,1.086312e-002
3.035457e+003,1.039904e-002
3.037385e+003,9.931639e-003
3.039314e+003,9.480750e-003
3.041242e+003,9.096853e-003
3.043171e+003,8.810207e-003
3.045099e+003,8.468518e-003
3.047028e+003,8.166220e-003
3.048956e+003,7.870128e-003
3.050885e+003,7.659402e-003
3.052813e+003,7.544534e-003
3.054742e+003,7.313350e-003
3.056670e+003,7.073186e-003
3.058599e+003,7.048490e-003
3.060527e+003,6.966719e-003
3.062456e+003,6.812086e-003
3.064384e+003,6.692206e-003
3.066313e+003,6.550010e-003
3.068241e+003,6.391089e-003
3.070170e+003,6.272390e-003
3.072098e+003,6.124264e-003
3.074027e+003,5.971471e-003
3.075955e+003,5.784485e-003
3.077884e+003,5.624635e-003
3.079812e+003,5.542595e-003
3.081741e+003,5.296204e-003
3.083669e+003,5.087171e-003
3.085598e+003,4.914183e-003
3.087526e+003,4.706684e-003
3.089455e+003,4.512135e-003
3.091383e+003,4.398942e-003
3.093312e+003,4.216669e-003
3.095240e+003,3.935430e-003
3.097169e+003,3.627678e-003
3.099097e+003,3.349924e-003
3.101026e+003,3.121516e-003
3.102954e+003,3.011730e-003
3.104883e+003,2.882261e-003
3.106811e+003,2.678009e-003
3.108740e+003,2.532417e-003
3.110668e+003,2.431903e-003
3.112597e+003,2.473410e-003
3.114525e+003,2.492100e-003
3.116454e+003,2.324205e-003
3.118382e+003,2.166137e-003
3.120311e+003,2.080694e-003
3.122239e+003,2.050059e-003
3.124168e+003,2.079496e-003
3.126096e+003,2.041304e-003
3.128025e+003,1.998186e-003
3.129953e+003,1.967715e-003
3.131882e+003,1.996091e-003
3.133810e+003,2.016122e-003
3.135739e+003,1.966503e-003
3.137667e+003,1.957770e-003
3.139596e+003,1.918448e-003
3.141524e+003,1.894047e-003
3.143453e+003,1.917874e-003
3.145381e+003,1.884602e-003
3.147310e+003,1.799885e-003
3.149238e+003,1.819741e-003
3.151167e+003,1.892148e-003
3.153095e+003,1.945760e-003
3.155024e+003,1.973515e-003
3.156952e+003,2.027137e-003
3.158881e+003,2.053892e-003
3.160809e+003,2.019104e-003
3.162738e+003,1.962978e-003
3.164666e+003,1.991227e-003
3.166594e+003,1.947328e-003
3.168523e+003,1.884721e-003
3.170452e+003,1.942651e-003
3.172380e+003,2.048822e-003
3.174309e+003,2.064940e-003
3.176237e+003,2.087409e-003
3.178166e+003,2.059273e-003
3.180094e+003,2.087248e-003
3.182022e+003,2.157645e-003
3.183951e+003,2.162650e-003
3.185880e+003,2.159573e-003
3.187808e+003,2.142156e-003
3.189737e+003,2.136782e-003
3.191665e+003,2.158821e-003
3.193594e+003,2.137674e-003
3.195522e+003,2.239065e-003
3.197450e+003,2.359398e-003
3.199379e+003,2.384091e-003
3.201308e+003,2.437619e-003
3.203236e+003,2.354993e-003
3.205165e+003,2.270639e-003
3.207093e+003,2.308873e-003
3.209021e+003,2.233934e-003
3.210950e+003,2.241448e-003
3.212878e+003,2.364486e-003
3.214807e+003,2.413725e-003
3.216736e+003,2.481848e-003
3.218664e+003,2.420796e-003
3.220593e+003,2.397578e-003
3.222521e+003,2.473315e-003
3.224449e+003,2.450092e-003
3.226378e+003,2.383938e-003
3.228307e+003,2.429316e-003
3.230235e+003,2.504902e-003
3.232164e+003,2.563519e-003
3.234092e+003,2.626145e-003
3.236021e+003,2.586899e-003
3.237949e+003,2.525587e-003
3.239877e+003,2.528213e-003
3.241806e+003,2.727941e-003
3.243735e+003,2.890276e-003
3.245663e+003,2.842581e-003
3.247592e+003,2.826035e-003
3.249520e+003,2.900954e-003
3.251448e+003,2.976069e-003
3.253377e+003,3.040593e-003
3.255305e+003,3.123367e-003
3.257234e+003,3.231822e-003
3.259163e+003,3.294064e-003
3.261091e+003,3.290139e-003
3.263020e+003,3.284330e-003
3.264948e+003,3.336310e-003
3.266876e+003,3.420087e-003
3.268805e+003,3.430698e-003
3.270733e+003,3.482513e-003
3.272662e+003,3.522970e-003
3.274591e+003,3.571114e-003
3.276519e+003,3.684994e-003
3.278448e+003,3.746055e-003
3.280376e+003,3.733199e-003
3.282304e+003,3.721213e-003
3.284233e+003,3.917743e-003
3.286161e+003,3.946230e-003
3.288090e+003,3.785672e-003
3.290019e+003,3.769318e-003
3.291947e+003,3.819151e-003
3.293875e+003,3.786942e-003
3.295804e+003,3.892867e-003
3.297732e+003,3.956357e-003
3.299661e+003,3.914876e-003
3.301589e+003,3.876245e-003
3.303518e+003,3.877170e-003
3.305447e+003,3.929693e-003
3.307375e+003,3.951579e-003
3.309303e+003,3.921485e-003
3.311232e+003,3.852885e-003
3.313160e+003,3.755704e-003
3.315089e+003,3.753262e-003
3.317018e+003,3.764406e-003
3.318946e+003,3.753303e-003
3.320875e+003,3.742512e-003
3.322803e+003,3.791792e-003
3.324731e+003,3.940996e-003
3.326660e+003,3.934678e-003
3.328588e+003,3.811104e-003
3.330517e+003,3.813595e-003
3.332446e+003,3.806490e-003
3.334374e+003,3.728461e-003
3.336302e+003,3.779808e-003
3.338231e+003,3.819225e-003
3.340159e+003,3.876673e-003
3.342088e+003,3.889810e-003
3.344016e+003,3.807040e-003
3.345945e+003,3.802577e-003
3.347874e+003,3.710013e-003
3.349802e+003,3.603164e-003
3.351730e+003,3.512308e-003
3.353659e+003,3.536705e-003
3.355587e+003,3.616916e-003
3.357516e+003,3.620250e-003
3.359444e+003,3.654746e-003
3.361373e+003,3.725586e-003
3.363302e+003,3.811887e-003
3.365230e+003,3.738161e-003
3.367158e+003,3.622049e-003
3.369087e+003,3.575506e-003
3.371015e+003,3.559722e-003
3.372944e+003,3.573494e-003
3.374872e+003,3.646813e-003
3.376801e+003,3.721697e-003
3.378729e+003,3.636261e-003
3.380658e+003,3.513409e-003
3.382586e+003,3.452260e-003
3.384515e+003,3.480185e-003
3.386443e+003,3.502406e-003
3.388372e+003,3.403394e-003
3.390300e+003,3.419958e-003
3.392229e+003,3.422983e-003
3.394157e+003,3.323277e-003
3.396086e+003,3.288988e-003
3.398014e+003,3.225438e-003
3.399943e+003,3.223274e-003
3.401871e+003,3.188049e-003
3.403800e+003,3.179282e-003
3.405728e+003,3.105938e-003
3.407657e+003,3.103560e-003
3.409585e+003,3.090210e-003
3.411514e+003,3.005594e-003
3.413442e+003,3.009144e-003
3.415371e+003,3.070494e-003
3.417299e+003,3.159566e-003
3.419228e+003,3.106365e-003
3.421156e+003,2.945412e-003
3.423085e+003,3.001394e-003
3.425013e+003,3.032746e-003
3.426942e+003,3.008215e-003
3.428870e+003,2.986209e-003
3.430799e+003,2.998773e-003
3.432727e+003,2.982996e-003
3.434656e+003,2.933605e-003
3.436584e+003,2.961969e-003
3.438513e+003,3.010832e-003
3.440441e+003,3.122522e-003
3.442370e+003,3.151372e-003
3.444298e+003,3.086042e-003
3.446227e+003,3.131691e-003
3.448155e+003,3.077941e-003
3.450084e+003,3.101317e-003
3.452012e+003,3.044555e-003
3.453941e+003,3.082542e-003
3.455869e+003,3.040554e-003
3.457798e+003,3.112044e-003
3.459726e+003,3.175532e-003
3.461655e+003,3.204752e-003
3.463583e+003,3.128242e-003
3.465512e+003,3.071822e-003
3.467440e+003,3.065215e-003
3.469369e+003,3.125418e-003
3.471297e+003,3.063712e-003
3.473226e+003,3.044847e-003
3.475154e+003,3.001843e-003
3.477083e+003,2.930658e-003
3.479011e+003,2.771441e-003
3.480940e+003,2.693217e-003
3.482868e+003,2.682082e-003
3.484797e+003,2.476014e-003
3.486725e+003,2.261480e-003
3.488654e+003,2.307435e-003
3.490582e+003,2.219293e-003
3.492511e+003,2.186812e-003
3.494439e+003,2.279846e-003
3.496368e+003,2.220031e-003
3.498296e+003,2.114700e-003
3.500225e+003,2.078870e-003
3.502153e+003,2.076650e-003
3.504082e+003,2.035070e-003
3.506010e+003,1.856470e-003
3.507939e+003,1.828242e-003
3.509867e+003,1.732437e-003
3.511796e+003,1.733318e-003
3.513724e+003,1.732649e-003
3.515653e+003,1.834594e-003
3.517581e+003,1.946054e-003
3.519510e+003,1.791924e-003
3.521438e+003,1.676463e-003
3.523367e+003,1.668351e-003
3.525295e+003,1.710545e-003
3.527224e+003,1.755882e-003
3.529152e+003,1.621865e-003
3.531081e+003,1.288798e-003
3.533009e+003,1.027213e-003
3.534938e+003,1.278397e-003
3.536866e+003,1.490895e-003
3.538795e+003,1.533471e-003
3.540723e+003,1.370633e-003
3.542652e+003,1.195056e-003
3.544580e+003,1.355086e-003
3.546509e+003,1.671948e-003
3.548437e+003,1.279142e-003
3.550366e+003,9.386949e-004
3.552294e+003,6.357636e-004
3.554223e+003,7.763859e-004
3.556151e+003,1.064204e-003
3.558080e+003,1.199473e-003
3.560008e+003,1.017382e-003
3.561937e+003,5.506258e-004
3.563865e+003,7.134676e-005
3.565794e+003,5.313661e-004
3.567722e+003,1.444487e-003
3.569651e+003,1.136227e-003
3.571579e+003,2.903007e-004
3.573508e+003,-1.527015e-004
3.575436e+003,-1.884829e-004
3.577365e+003,1.598950e-004
3.579293e+003,5.031656e-004
3.581222e+003,4.319530e-004
3.583150e+003,2.396479e-005
3.585079e+003,-2.550334e-004
3.587007e+003,4.568771e-004
3.588936e+003,1.252521e-003
3.590864e+003,1.062492e-003
3.592793e+003,3.436860e-004
3.594721e+003,-4.223362e-005
3.596650e+003,6.716736e-004
3.598578e+003,1.769308e-003
3.600507e+003,2.541220e-003
3.602435e+003,2.227001e-003
3.604364e+003,1.437072e-003
3.606292e+003,9.320602e-004
3.608221e+003,1.491925e-003
3.610149e+003,1.839731e-003
3.612078e+003,1.265710e-003
3.614006e+003,2.943147e-004
3.615935e+003,-1.329128e-004
3.617863e+003,5.896222e-004
3.619792e+003,1.706095e-003
3.621720e+003,1.228698e-003
3.623649e+003,3.531389e-004
3.625577e+003,-6.471574e-004
3.627506e+003,-4.412234e-004
3.629434e+003,9.381399e-004
3.631363e+003,1.014346e-003
3.633291e+003,-2.566259e-004
3.635220e+003,-7.438995e-004
3.637148e+003,-3.401861e-004
3.639077e+003,1.872648e-004
3.641005e+003,1.077330e-003
3.642934e+003,5.625878e-004
3.644862e+003,-9.145588e-005
3.646791e+003,-5.029161e-004
3.648719e+003,5.071554e-004
3.650648e+003,1.329923e-003
3.652576e+003,-6.900728e-005
3.654505e+003,-9.920634e-004
3.656433e+003,-1.498189e-003
3.658362e+003,-3.582221e-004
3.660290e+003,9.212270e-005
3.662219e+003,-1.963582e-004
3.664147e+003,-4.716013e-004
3.666076e+003,-9.450559e-004
3.668004e+003,-8.261260e-004
3.669933e+003,6.963499e-005
3.671861e+003,-5.293526e-004
3.673790e+003,-1.662049e-003
3.675718e+003,-3.401907e-003
3.677647e+003,-1.387706e-003
3.679575e+003,-6.925277e-004
3.681504e+003,-2.606437e-004
3.683432e+003,-6.674044e-004
3.685361e+003,-1.749072e-003
3.687289e+003,-2.358846e-003
3.689218e+003,-1.215801e-003
3.691146e+003,6.543994e-004
3.693075e+003,-1.546554e-004
3.695003e+003,-1.222543e-003
3.696932e+003,-1.831982e-003
3.698860e+003,-1.685537e-003
3.700789e+003,-1.028141e-003
3.702717e+003,-2.189279e-004
3.704646e+003,-2.662726e-004
3.706574e+003,-1.101112e-003
3.708503e+003,-1.984833e-003
3.710431e+003,-1.929954e-003
3.712360e+003,-3.353991e-004
3.714288e+003,-1.776591e-005
3.716217e+003,-5.092490e-004
3.718145e+003,-1.565522e-003
3.720074e+003,-1.831237e-003
3.722002e+003,-1.155503e-003
3.723931e+003,1.293048e-004
3.725859e+003,5.770810e-004
3.727788e+003,-4.703850e-004
3.729716e+003,-1.173362e-003
3.731645e+003,-1.750682e-003
3.733573e+003,-8.953735e-004
3.735502e+003,-6.432254e-004
3.737430e+003,-6.239638e-004
3.739359e+003,-6.173179e-004
3.741287e+003,-1.652177e-003
3.743216e+003,-2.275730e-003
3.745144e+003,-1.974316e-003
3.747073e+003,-1.139553e-003
3.749001e+003,-2.123116e-003
3.750930e+003,-1.841143e-003
3.752858e+003,-1.952169e-003
3.754787e+003,-1.732275e-003
3.756715e+003,-1.795946e-003
3.758644e+003,-1.361012e-003
3.760572e+003,-9.237453e-004
3.762501e+003,-1.158668e-003
3.764429e+003,-1.468282e-003
3.766358e+003,-1.678476e-003
3.768286e+003,-1.164977e-003
3.770215e+003,-9.485185e-004
3.772143e+003,-4.412793e-004
3.774072e+003,-3.306083e-004
3.776000e+003,-8.048229e-004
3.777929e+003,-9.691119e-004
3.779857e+003,-5.648062e-004
3.781786e+003,-1.313575e-004
3.783714e+003,-5.904026e-004
3.785643e+003,-5.268157e-004
3.787571e+003,-3.660396e-004
3.789500e+003,-3.601387e-004
3.791428e+003,3.461018e-004
3.793357e+003,2.274290e-005
3.795285e+003,4.141405e-005
3.797214e+003,-2.379790e-004
3.799142e+003,-6.616078e-004
3.801071e+003,-4.411563e-004
3.802999e+003,-4.774407e-004
3.804927e+003,-4.610531e-004
3.806856e+003,-3.652982e-004
3.808785e+003,2.640784e-004
3.810713e+003,3.111362e-004
3.812642e+003,-3.361218e-004
3.814570e+003,-2.973378e-004
3.816499e+003,-5.647652e-004
3.818427e+003,-3.614575e-004
3.820355e+003,-6.062053e-004
3.822284e+003,2.699941e-004
3.824213e+003,4.710220e-004
3.826141e+003,-3.453195e-004
3.828070e+003,-3.440604e-004
3.829998e+003,-3.778748e-004
3.831927e+003,1.180172e-004
3.833855e+003,1.006432e-003
3.835783e+003,-1.538917e-005
3.837712e+003,-6.078854e-004
3.839641e+003,-5.691536e-004
3.841569e+003,2.137199e-004
3.843498e+003,9.332858e-004
3.845426e+003,8.133315e-004
3.847354e+003,8.941442e-005
3.849283e+003,-8.203536e-004
3.851211e+003,-1.019299e-003
3.853140e+003,9.034686e-004
3.855069e+003,2.039302e-003
3.856997e+003,6.679967e-004
3.858926e+003,-2.954751e-004
3.860854e+003,-5.698688e-004
3.862782e+003,-1.351684e-004
3.864711e+003,9.848922e-004
3.866640e+003,2.937764e-005
3.868568e+003,-5.301684e-004
3.870497e+003,-4.967526e-004
3.872425e+003,7.180832e-004
3.874354e+003,9.345375e-004
3.876282e+003,7.011108e-004
3.878210e+003,-8.388236e-005
3.880139e+003,3.743544e-005
3.882068e+003,5.473308e-004
3.883996e+003,7.056333e-004
3.885925e+003,6.614961e-004
3.887853e+003,4.252754e-004
3.889781e+003,-1.922734e-004
3.891710e+003,6.051287e-004
3.893638e+003,1.424238e-003
3.895567e+003,9.481572e-004
3.897496e+003,2.810806e-004
3.899424e+003,-2.381541e-004
3.901353e+003,-7.989630e-005
3.903281e+003,6.739087e-004
3.905209e+003,1.041923e-003
3.907138e+003,6.448999e-004
3.909066e+003,1.168922e-004
3.910995e+003,2.405718e-004
3.912924e+003,4.064478e-004
3.914852e+003,6.867312e-004
3.916781e+003,6.292015e-004
3.918709e+003,5.838089e-004
3.920637e+003,3.419220e-004
3.922566e+003,4.911460e-004
3.924494e+003,4.970953e-004
3.926423e+003,4.393160e-004
3.928352e+003,2.901182e-004
3.930280e+003,2.138503e-004
3.932208e+003,7.574223e-004
3.934137e+003,6.956458e-004
3.936065e+003,4.610755e-004
3.937994e+003,3.394559e-004
3.939922e+003,3.044307e-004
3.941851e+003,4.126281e-004
3.943780e+003,5.472004e-004
3.945708e+003,3.757402e-004
3.947636e+003,8.656457e-005
3.949565e+003,1.738816e-004
3.951493e+003,2.996214e-004
3.953422e+003,3.503747e-004
3.955351e+003,4.291274e-004
3.957279e+003,2.884082e-004
3.959208e+003,2.705567e-004
3.961136e+003,4.283860e-004
3.963064e+003,4.442073e-004
3.964993e+003,4.498549e-004
3.966921e+003,3.423132e-004
3.968850e+003,2.115853e-004
3.970779e+003,3.759265e-004
3.972707e+003,5.548149e-004
3.974635e+003,6.028488e-004
3.976564e+003,5.721338e-004
3.978492e+003,4.528724e-004
3.980421e+003,4.631057e-004
3.982349e+003,4.194751e-004
3.984278e+003,4.354827e-004
3.986207e+003,5.205162e-004
3.988135e+003,5.367137e-004
3.990063e+003,4.207119e-004
3.991992e+003,3.199913e-004
3.993920e+003,2.799369e-004
3.995849e+003,3.556162e-004
3.997777e+003,4.769266e-004
3.999706e+003,4.151016e-004
4.001635e+003,0.000000e+000
