3.991992e+002,0.000000e+000
4.011277e+002,0.000000e+000
4.030562e+002,0.000000e+000
4.049846e+002,0.000000e+000
4.069131e+002,0.000000e+000
4.088416e+002,0.000000e+000
4.107701e+002,0.000000e+000
4.126986e+002,0.000000e+000
4.146271e+002,0.000000e+000
4.165556e+002,0.000000e+000
4.184841e+002,0.000000e+000
4.204126e+002,0.000000e+000
4.223411e+002,0.000000e+000
4.242697e+002,0.000000e+000
4.261982e+002,0.000000e+000
4.281266e+002,0.000000e+000
4.300551e+002,0.000000e+000
4.319836e+002,0.000000e+000
4.339121e+002,0.000000e+000
4.358406e+002,0.000000e+000
4.377691e+002,0.000000e+000
4.396976e+002,0.000000e+000
4.416261e+002,0.000000e+000
4.435546e+002,0.000000e+000
4.454831e+002,0.000000e+000
4.474116e+002,0.000000e+000
4.493401e+002,0.000000e+000
4.512686e+002,0.000000e+000
4.531971e+002,0.000000e+000
4.551256e+002,0.000000e+000
4.570541e+002,0.000000e+000
4.589826e+002,0.000000e+000
4.609111e+002,0.000000e+000
4.628396e+002,0.000000e+000
4.647681e+002,0.000000e+000
4.666966e+002,0.000000e+000
4.686251e+002,0.000000e+000
4.705536e+002,0.000000e+000
4.724821e+002,0.000000e+000
4.744106e+002,0.000000e+000
4.763391e+002,0.000000e+000
4.782676e+002,0.000000e+000
4.801961e+002,0.000000e+000
4.821246e+002,0.000000e+000
4.840531e+002,0.000000e+000
4.859816e+002,0.000000e+000
4.879101e+002,0.000000e+000
4.898386e+002,0.000000e+000
4.917671e+002,0.000000e+000
4.936956e+002,0.000000e+000
4.956241e+002,0.000000e+000
4.975526e+002,0.000000e+000
4.994811e+002,0.000000e+000
5.014096e+002,0.000000e+000
5.033381e+002,0.000000e+000
5.052666e+002,0.000000e+000
5.071951e+002,0.000000e+000
5.091236e+002,0.000000e+000
5.110521e+002,0.000000e+000
5.129806e+002,0.000000e+000
5.149091e+002,0.000000e+000
5.168376e+002,0.000000e+000
5.187661e+002,0.000000e+000
5.206946e+002,0.000000e+000
5.226230e+002,0.000000e+000
5.245516e+002,-2.011824e-004
5.264800e+002,-1.851590e-004
5.284086e+002,-2.121981e-004
5.303370e+002,-2.237931e-004
5.322656e+002,-3.628219e-004
5.341940e+002,-4.584845e-004
5.361226e+002,-2.663312e-004
5.380510e+002,-1.997231e-004
5.399796e+002,-2.489192e-004
5.419081e+002,-2.503283e-004
5.438365e+002,-2.105460e-004
5.457650e+002,-2.362970e-004
5.476935e+002,-2.460144e-004
5.496221e+002,-3.319578e-004
5.515505e+002,-1.778677e-004
5.534790e+002,-9.343680e-005
5.554075e+002,-1.215721e-004
5.573361e+002,-2.012346e-004
5.592645e+002,-3.632177e-004
5.611931e+002,-5.098181e-004
5.631215e+002,-4.579332e-004
5.650500e+002,-4.242100e-004
5.669785e+002,-5.249791e-004
5.689070e+002,-7.092403e-004
5.708355e+002,-5.705906e-004
5.727640e+002,-4.215715e-004
5.746925e+002,-4.623439e-004
5.766210e+002,-4.594037e-004
5.785495e+002,-4.230049e-004
5.804780e+002,-4.390609e-004
5.824065e+002,-5.303826e-004
5.843350e+002,-5.774517e-004
5.862635e+002,-5.081519e-004
5.881920e+002,-4.765289e-004
5.901205e+002,-4.783850e-004
5.920490e+002,-4.160861e-004
5.939775e+002,-4.197964e-004
5.959060e+002,-4.878119e-004
5.978345e+002,-4.381966e-004
5.997630e+002,-4.226277e-004
6.016915e+002,-5.584648e-004
6.036200e+002,-5.813744e-004
6.055485e+002,-3.701001e-004
6.074770e+002,-2.468750e-004
6.094055e+002,-1.940830e-004
6.113340e+002,-3.593443e-004
6.132625e+002,-4.812861e-004
6.151910e+002,-5.095499e-004
6.171195e+002,-5.552238e-004
6.190480e+002,-5.451217e-004
6.209765e+002,-4.659407e-004
6.229050e+002,-4.576026e-004
6.248335e+002,-2.044355e-004
6.267620e+002,-1.501665e-005
6.286905e+002,1.178868e-005
6.306190e+002,-7.951818e-005
6.325475e+002,-8.176733e-005
6.344760e+002,2.056640e-005
6.364045e+002,3.250036e-005
6.383330e+002,7.673167e-006
6.402615e+002,8.172356e-005
6.421899e+002,-2.045557e-005
6.441185e+002,-7.823110e-007
6.460470e+002,-4.958361e-005
6.479755e+002,-9.082071e-005
6.499039e+002,-1.112968e-004
6.518325e+002,-1.160279e-004
6.537610e+002,-1.201229e-004
6.556895e+002,-1.266599e-005
6.576179e+002,2.583396e-005
6.595464e+002,1.585428e-004
6.614750e+002,1.095235e-004
6.634034e+002,1.105880e-004
6.653319e+002,2.139127e-004
6.672604e+002,3.316272e-004
6.691890e+002,3.239959e-004
6.711174e+002,3.535664e-004
6.730460e+002,4.017157e-004
6.749745e+002,5.570147e-004
6.769030e+002,6.146347e-004
6.788314e+002,7.089227e-004
6.807599e+002,7.007532e-004
6.826885e+002,9.673303e-004
6.846169e+002,1.166326e-003
6.865454e+002,1.338873e-003
6.884739e+002,1.542765e-003
6.904025e+002,1.936963e-003
6.923309e+002,2.216888e-003
6.942594e+002,2.646807e-003
6.961879e+002,3.095659e-003
6.981165e+002,3.756125e-003
7.000449e+002,4.649590e-003
7.019734e+002,6.054607e-003
7.039019e+002,7.691402e-003
7.058304e+002,9.982293e-003
7.077589e+002,1.311940e-002
7.096874e+002,1.779205e-002
7.116159e+002,2.527495e-002
7.135444e+002,3.945574e-002
7.154729e+002,6.490123e-002
7.174014e+002,9.981786e-002
7.193299e+002,1.135239e-001
7.212584e+002,8.391382e-002
7.231869e+002,5.528286e-002
7.251154e+002,4.501970e-002
7.270439e+002,4.911166e-002
7.289724e+002,6.508140e-002
7.309009e+002,6.307800e-002
7.328294e+002,3.597059e-002
7.347579e+002,1.759165e-002
7.366864e+002,1.109106e-002
7.386149e+002,8.523296e-003
7.405434e+002,7.026616e-003
7.424719e+002,6.068085e-003
7.444004e+002,5.252019e-003
7.463289e+002,4.619054e-003
7.482574e+002,4.103356e-003
7.501859e+002,3.895002e-003
7.521144e+002,3.617941e-003
7.540428e+002,3.379422e-003
7.559714e+002,3.130933e-003
7.578999e+002,2.819163e-003
7.598284e+002,2.499807e-003
7.617568e+002,2.330958e-003
7.636854e+002,2.143181e-003
7.656139e+002,1.974803e-003
7.675424e+002,1.825592e-003
7.694709e+002,1.710574e-003
7.713994e+002,1.652900e-003
7.733279e+002,1.610036e-003
7.752563e+002,1.475533e-003
7.771849e+002,1.355601e-003
7.791134e+002,1.339938e-003
7.810419e+002,1.419752e-003
7.829703e+002,1.428465e-003
7.848989e+002,1.393377e-003
7.868274e+002,1.367848e-003
7.887559e+002,1.340829e-003
7.906843e+002,1.337374e-003
7.926129e+002,1.282947e-003
7.945414e+002,1.272150e-003
7.964698e+002,1.341008e-003
7.983983e+002,1.350819e-003
8.003268e+002,1.348223e-003
8.022554e+002,1.314943e-003
8.041838e+002,1.247066e-003
8.061123e+002,1.260507e-003
8.080408e+002,1.152681e-003
8.099694e+002,1.085625e-003
8.118978e+002,1.025019e-003
8.138263e+002,8.531921e-004
8.157548e+002,7.194448e-004
8.176833e+002,6.971397e-004
8.196118e+002,7.697009e-004
8.215403e+002,7.414091e-004
8.234689e+002,5.547330e-004
8.253973e+002,4.329160e-004
8.273258e+002,3.688289e-004
8.292543e+002,3.340123e-004
8.311829e+002,3.260532e-004
8.331113e+002,3.570430e-004
8.350398e+002,3.219508e-004
8.369683e+002,3.143931e-004
8.388969e+002,3.095521e-004
8.408253e+002,3.022859e-004
8.427538e+002,2.739253e-004
8.446823e+002,2.511647e-004
8.466108e+002,2.291724e-004
8.485393e+002,3.383225e-004
8.504678e+002,4.134290e-004
8.523963e+002,4.054196e-004
8.543248e+002,3.366694e-004
8.562533e+002,2.815723e-004
8.581818e+002,3.108857e-004
8.601103e+002,3.686734e-004
8.620388e+002,3.371015e-004
8.639673e+002,3.122110e-004
8.658958e+002,3.457163e-004
8.678243e+002,3.880719e-004
8.697528e+002,4.398674e-004
8.716813e+002,4.637195e-004
8.736098e+002,4.141508e-004
8.755383e+002,4.068213e-004
8.774668e+002,4.813466e-004
8.793953e+002,5.863542e-004
8.813238e+002,5.676374e-004
8.832523e+002,6.153518e-004
8.851808e+002,6.382577e-004
8.871093e+002,7.565245e-004
8.890378e+002,8.885888e-004
8.909663e+002,8.345610e-004
8.928948e+002,5.842550e-004
8.948232e+002,4.910687e-004
8.967518e+002,5.291980e-004
8.986803e+002,5.473094e-004
9.006088e+002,5.860524e-004
9.025372e+002,7.799147e-004
9.044658e+002,1.080501e-003
9.063943e+002,1.437544e-003
9.083228e+002,1.500182e-003
9.102512e+002,1.214988e-003
9.121797e+002,9.039175e-004
9.141083e+002,7.830504e-004
9.160367e+002,5.508382e-004
9.179653e+002,5.272347e-004
9.198937e+002,4.696976e-004
9.218223e+002,3.634226e-004
9.237507e+002,2.107676e-004
9.256793e+002,2.876595e-004
9.276077e+002,3.242828e-004
9.295363e+002,2.900362e-004
9.314647e+002,3.079530e-004
9.333932e+002,3.675148e-004
9.353217e+002,3.430508e-004
9.372502e+002,3.393367e-004
9.391787e+002,3.357045e-004
9.411072e+002,3.600456e-004
9.430358e+002,2.375394e-004
9.449642e+002,1.664143e-004
9.468928e+002,1.543444e-004
9.488212e+002,1.843274e-004
9.507498e+002,2.368577e-004
9.526782e+002,2.849773e-004
9.546068e+002,3.494024e-004
9.565352e+002,4.647709e-004
9.584637e+002,4.629586e-004
9.603922e+002,4.796162e-004
9.623207e+002,5.371887e-004
9.642492e+002,6.154869e-004
9.661777e+002,6.322637e-004
9.681062e+002,6.192420e-004
9.700347e+002,5.478710e-004
9.719632e+002,6.021112e-004
9.738917e+002,6.217510e-004
9.758202e+002,6.204043e-004
9.777487e+002,5.682074e-004
9.796772e+002,6.113276e-004
9.816057e+002,6.283447e-004
9.835342e+002,7.111374e-004
9.854627e+002,8.151233e-004
9.873912e+002,9.457171e-004
9.893197e+002,1.062240e-003
9.912482e+002,1.138983e-003
9.931767e+002,1.173792e-003
9.951052e+002,1.222663e-003
9.970337e+002,1.206037e-003
9.989622e+002,1.194427e-003
1.000891e+003,1.196627e-003
1.002819e+003,1.279464e-003
1.004748e+003,1.344783e-003
1.006676e+003,1.448210e-003
1.008605e+003,1.533683e-003
1.010533e+003,1.697380e-003
1.012462e+003,1.765208e-003
1.014390e+003,1.816140e-003
1.016319e+003,1.858868e-003
1.018247e+003,1.930006e-003
1.020176e+003,1.955787e-003
1.022104e+003,2.022576e-003
1.024033e+003,2.079131e-003
1.025961e+003,2.136009e-003
1.027890e+003,2.126254e-003
1.029818e+003,2.145765e-003
1.031747e+003,2.178187e-003
1.033675e+003,2.155283e-003
1.035604e+003,2.103871e-003
1.037532e+003,2.151541e-003
1.039461e+003,2.218140e-003
1.041389e+003,2.330083e-003
1.043318e+003,2.374444e-003
1.045246e+003,2.452912e-003
1.047175e+003,2.557795e-003
1.049103e+003,2.808411e-003
1.051032e+003,2.941608e-003
1.052960e+003,2.923692e-003
1.054889e+003,2.807293e-003
1.056817e+003,2.802465e-003
1.058746e+003,2.892710e-003
1.060674e+003,3.025992e-003
1.062603e+003,3.053041e-003
1.064531e+003,3.072960e-003
1.066460e+003,3.029870e-003
1.068388e+003,3.067954e-003
1.070317e+003,3.158825e-003
1.072245e+003,3.326230e-003
1.074174e+003,3.450420e-003
1.076102e+003,3.684724e-003
1.078031e+003,3.824899e-003
1.079959e+003,3.880061e-003
1.081888e+003,3.821963e-003
1.083816e+003,3.745304e-003
1.085745e+003,3.642648e-003
1.087673e+003,3.600288e-003
1.089602e+003,3.477719e-003
1.091530e+003,3.409756e-003
1.093459e+003,3.339848e-003
1.095387e+003,3.306124e-003
1.097316e+003,3.248014e-003
1.099244e+003,3.240956e-003
1.101173e+003,3.139744e-003
1.103101e+003,3.119048e-003
1.105030e+003,3.086718e-003
1.106958e+003,3.050664e-003
1.108887e+003,2.954880e-003
1.110815e+003,2.906790e-003
1.112744e+003,2.846783e-003
1.114672e+003,2.840819e-003
1.116601e+003,2.758583e-003
1.118529e+003,2.721010e-003
1.120458e+003,2.662124e-003
1.122386e+003,2.656166e-003
1.124315e+003,2.632791e-003
1.126243e+003,2.658192e-003
1.128172e+003,2.643025e-003
1.130100e+003,2.739308e-003
1.132029e+003,2.791176e-003
1.133957e+003,2.833920e-003
1.135885e+003,2.821049e-003
1.137814e+003,2.822904e-003
1.139743e+003,2.826544e-003
1.141671e+003,2.946278e-003
1.143600e+003,3.054714e-003
1.145528e+003,3.337575e-003
1.147457e+003,3.750199e-003
1.149385e+003,4.300667e-003
1.151314e+003,4.856324e-003
1.153242e+003,5.369293e-003
1.155171e+003,5.677376e-003
1.157099e+003,5.939975e-003
1.159028e+003,6.084407e-003
1.160956e+003,6.132646e-003
1.162885e+003,6.008912e-003
1.164813e+003,5.915258e-003
1.166742e+003,5.691810e-003
1.168670e+003,5.400777e-003
1.170599e+003,5.021980e-003
1.172527e+003,4.693434e-003
1.174456e+003,4.404118e-003
1.176384e+003,4.212823e-003
1.178313e+003,3.846195e-003
1.180241e+003,3.513953e-003
1.182170e+003,3.375061e-003
1.184098e+003,3.391204e-003
1.186027e+003,3.346987e-003
1.187955e+003,3.386604e-003
1.189884e+003,3.431592e-003
1.191812e+003,3.557280e-003
1.193740e+003,3.689783e-003
1.195669e+003,3.836380e-003
1.197598e+003,3.994217e-003
1.199526e+003,4.304036e-003
1.201455e+003,4.595546e-003
1.203383e+003,4.951790e-003
1.205312e+003,5.318206e-003
1.207240e+003,5.693849e-003
1.209168e+003,6.001342e-003
1.211097e+003,6.342646e-003
1.213026e+003,6.621642e-003
1.214954e+003,6.873341e-003
1.216883e+003,7.069996e-003
1.218811e+003,7.347627e-003
1.220740e+003,7.542079e-003
1.222668e+003,7.783063e-003
1.224596e+003,7.959947e-003
1.226525e+003,8.159833e-003
1.228453e+003,8.337637e-003
1.230382e+003,8.555450e-003
1.232311e+003,8.729177e-003
1.234239e+003,8.898802e-003
1.236167e+003,8.957231e-003
1.238096e+003,9.052323e-003
1.240025e+003,9.099294e-003
1.241953e+003,9.086592e-003
1.243882e+003,8.953985e-003
1.245810e+003,8.791657e-003
1.247739e+003,8.501051e-003
1.249667e+003,8.238213e-003
1.251595e+003,7.927628e-003
1.253524e+003,7.684425e-003
1.255453e+003,7.442562e-003
1.257381e+003,7.262070e-003
1.259310e+003,7.024806e-003
1.261238e+003,6.805029e-003
1.263167e+003,6.425034e-003
1.265095e+003,6.122513e-003
1.267023e+003,5.876234e-003
1.268952e+003,5.750718e-003
1.270880e+003,5.664352e-003
1.272809e+003,5.621200e-003
1.274738e+003,5.486509e-003
1.276666e+003,5.494183e-003
1.278594e+003,5.508373e-003
1.280523e+003,5.652143e-003
1.282451e+003,5.735740e-003
1.284380e+003,5.901104e-003
1.286308e+003,6.114414e-003
1.288237e+003,6.422425e-003
1.290166e+003,6.614428e-003
1.292094e+003,6.996848e-003
1.294022e+003,7.386878e-003
1.295951e+003,7.863481e-003
1.297879e+003,8.218091e-003
1.299808e+003,8.478746e-003
1.301736e+003,8.507565e-003
1.303665e+003,8.563336e-003
1.305594e+003,8.490508e-003
1.307522e+003,8.465515e-003
1.309450e+003,8.187914e-003
1.311379e+003,7.892061e-003
1.313307e+003,7.474707e-003
1.315236e+003,7.048929e-003
1.317164e+003,6.601423e-003
1.319093e+003,6.212540e-003
1.321021e+003,5.629960e-003
1.322950e+003,5.273769e-003
1.324878e+003,4.981663e-003
1.326807e+003,4.883938e-003
1.328735e+003,4.847366e-003
1.330664e+003,4.961343e-003
1.332592e+003,5.104722e-003
1.334521e+003,5.562406e-003
1.336449e+003,6.259084e-003
1.338378e+003,7.367773e-003
1.340306e+003,8.030189e-003
1.342235e+003,8.129012e-003
1.344163e+003,8.407215e-003
1.346092e+003,9.082774e-003
1.348021e+003,9.781400e-003
1.349949e+003,1.047681e-002
1.351877e+003,1.080203e-002
1.353806e+003,1.092741e-002
1.355734e+003,1.066637e-002
1.357663e+003,1.066119e-002
1.359591e+003,1.108222e-002
1.361520e+003,1.220287e-002
1.363448e+003,1.339362e-002
1.365377e+003,1.419483e-002
1.367305e+003,1.491246e-002
1.369234e+003,1.500031e-002
1.371162e+003,1.392040e-002
1.373091e+003,1.303891e-002
1.375019e+003,1.252541e-002
1.376948e+003,1.224642e-002
1.378876e+003,1.057339e-002
1.380805e+003,7.891359e-003
1.382733e+003,5.882246e-003
1.384662e+003,5.143626e-003
1.386590e+003,4.877586e-003
1.388519e+003,4.550548e-003
1.390447e+003,4.093120e-003
1.392376e+003,4.204355e-003
1.394304e+003,4.555492e-003
1.396233e+003,4.778132e-003
1.398161e+003,4.560402e-003
1.400090e+003,4.368473e-003
1.402018e+003,4.014384e-003
1.403947e+003,4.371790e-003
1.405875e+003,4.449148e-003
1.407804e+003,4.498148e-003
1.409732e+003,4.520237e-003
1.411661e+003,4.806535e-003
1.413589e+003,4.894054e-003
1.415518e+003,5.574945e-003
1.417446e+003,6.265430e-003
1.419375e+003,7.091790e-003
1.421303e+003,6.975165e-003
1.423232e+003,8.049397e-003
1.425160e+003,9.385960e-003
1.427089e+003,1.118486e-002
1.429017e+003,1.360217e-002
1.430946e+003,1.724946e-002
1.432874e+003,2.023405e-002
1.434803e+003,2.329425e-002
1.436731e+003,2.637765e-002
1.438660e+003,2.844193e-002
1.440588e+003,2.956570e-002
1.442517e+003,3.160574e-002
1.444445e+003,3.319437e-002
1.446374e+003,3.567597e-002
1.448302e+003,3.903390e-002
1.450231e+003,4.416845e-002
1.452159e+003,5.223500e-002
1.454088e+003,6.294359e-002
1.456016e+003,7.422508e-002
1.457945e+003,1.003549e-001
1.459873e+003,1.456996e-001
1.461802e+003,1.891872e-001
1.463730e+003,1.864478e-001
1.465659e+003,1.444016e-001
1.467587e+003,1.319134e-001
1.469516e+003,1.298442e-001
1.471444e+003,1.489387e-001
1.473373e+003,1.338818e-001
1.475301e+003,7.199751e-002
1.477230e+003,3.086912e-002
1.479158e+003,1.896878e-002
1.481087e+003,1.358656e-002
1.483015e+003,1.106616e-002
1.484944e+003,9.318536e-003
1.486872e+003,9.367850e-003
1.488801e+003,8.474786e-003
1.490729e+003,7.839462e-003
1.492658e+003,6.250104e-003
1.494586e+003,6.407881e-003
1.496515e+003,6.121151e-003
1.498443e+003,5.937142e-003
1.500372e+003,5.030254e-003
1.502300e+003,5.125185e-003
1.504229e+003,5.142679e-003
1.506157e+003,7.253576e-003
1.508086e+003,6.341580e-003
1.510014e+003,5.378122e-003
1.511943e+003,4.565278e-003
1.513871e+003,4.634725e-003
1.515800e+003,4.790364e-003
1.517728e+003,5.148444e-003
1.519657e+003,4.875608e-003
1.521585e+003,5.744878e-003
1.523514e+003,4.709043e-003
1.525442e+003,4.639849e-003
1.527371e+003,4.238760e-003
1.529299e+003,4.083093e-003
1.531228e+003,3.835021e-003
1.533156e+003,4.467856e-003
1.535085e+003,3.934076e-003
1.537013e+003,4.158067e-003
1.538942e+003,5.261555e-003
1.540870e+003,6.540384e-003
1.542799e+003,4.987562e-003
1.544727e+003,4.662635e-003
1.546656e+003,3.516393e-003
1.548584e+003,3.557540e-003
1.550513e+003,3.325455e-003
1.552441e+003,3.195435e-003
1.554370e+003,3.483344e-003
1.556298e+003,4.041033e-003
1.558227e+003,4.763220e-003
1.560155e+003,3.983226e-003
1.562084e+003,2.667466e-003
1.564012e+003,2.716130e-003
1.565941e+003,2.568590e-003
1.567869e+003,2.604160e-003
1.569798e+003,2.663873e-003
1.571726e+003,2.465807e-003
1.573655e+003,2.419177e-003
1.575583e+003,3.240895e-003
1.577512e+003,2.916355e-003
1.579440e+003,2.329813e-003
1.581369e+003,2.122337e-003
1.583297e+003,2.225574e-003
1.585226e+003,2.103003e-003
1.587154e+003,2.120275e-003
1.589083e+003,2.084503e-003
1.591011e+003,2.213813e-003
1.592940e+003,2.314415e-003
1.594868e+003,2.556160e-003
1.596797e+003,2.337035e-003
1.598725e+003,2.165377e-003
1.600654e+003,2.094334e-003
1.602582e+003,2.215870e-003
1.604511e+003,2.147114e-003
1.606439e+003,2.374662e-003
1.608368e+003,2.391161e-003
1.610296e+003,2.346307e-003
1.612225e+003,2.293160e-003
1.614153e+003,2.649857e-003
1.616082e+003,3.103433e-003
1.618010e+003,2.829503e-003
1.619939e+003,2.371535e-003
1.621867e+003,2.957646e-003
1.623796e+003,3.387723e-003
1.625724e+003,3.099216e-003
1.627653e+003,2.933526e-003
1.629581e+003,2.839111e-003
1.631510e+003,2.849318e-003
1.633438e+003,3.336294e-003
1.635367e+003,4.148662e-003
1.637295e+003,3.780553e-003
1.639224e+003,3.150888e-003
1.641152e+003,3.231645e-003
1.643081e+003,3.388163e-003
1.645009e+003,3.827184e-003
1.646938e+003,4.440246e-003
1.648866e+003,3.887327e-003
1.650795e+003,3.697144e-003
1.652723e+003,5.074944e-003
1.654652e+003,3.822355e-003
1.656580e+003,2.704177e-003
1.658509e+003,2.458217e-003
1.660437e+003,2.674889e-003
1.662366e+003,2.739925e-003
1.664294e+003,2.266614e-003
1.666223e+003,2.021169e-003
1.668151e+003,2.686614e-003
1.670080e+003,3.068039e-003
1.672008e+003,2.388399e-003
1.673937e+003,2.228310e-003
1.675865e+003,2.258457e-003
1.677794e+003,1.841316e-003
1.679722e+003,2.240941e-003
1.681651e+003,2.501033e-003
1.683579e+003,3.575053e-003
1.685508e+003,2.656961e-003
1.687436e+003,1.983719e-003
1.689365e+003,1.680177e-003
1.691293e+003,1.304723e-003
1.693222e+003,1.128588e-003
1.695150e+003,2.026586e-003
1.697079e+003,2.292367e-003
1.699007e+003,2.184410e-003
1.700936e+003,2.061775e-003
1.702864e+003,1.719611e-003
1.704793e+003,1.667691e-003
1.706721e+003,1.466336e-003
1.708650e+003,8.935127e-004
1.710578e+003,8.152314e-004
1.712507e+003,1.085412e-003
1.714435e+003,1.962103e-003
1.716364e+003,2.633080e-003
1.718292e+003,2.397953e-003
1.720221e+003,1.256434e-003
1.722149e+003,1.063723e-003
1.724078e+003,9.834375e-004
1.726006e+003,7.654373e-004
1.727935e+003,8.784439e-004
1.729863e+003,1.687653e-003
1.731792e+003,2.112031e-003
1.733720e+003,2.950341e-003
1.735649e+003,1.896955e-003
1.737577e+003,1.466567e-003
1.739506e+003,1.615927e-003
1.741434e+003,1.593152e-003
1.743363e+003,1.378588e-003
1.745291e+003,1.327937e-003
1.747220e+003,1.647320e-003
1.749148e+003,1.907874e-003
1.751077e+003,1.419816e-003
1.753005e+003,4.783757e-004
1.754934e+003,6.299838e-005
1.756862e+003,3.590714e-004
1.758791e+003,1.260769e-004
1.760719e+003,1.199394e-004
1.762648e+003,-3.371388e-007
1.764576e+003,-3.657062e-004
1.766505e+003,-2.401937e-004
1.768433e+003,2.593268e-004
1.770362e+003,6.269477e-004
1.772290e+003,9.887125e-004
1.774219e+003,1.170151e-004
1.776147e+003,-3.289655e-004
1.778076e+003,-3.989432e-004
1.780004e+003,-9.136647e-005
1.781933e+003,-5.241018e-004
1.783861e+003,-5.563814e-004
1.785790e+003,-5.832743e-004
1.787718e+003,-6.008931e-004
1.789646e+003,-3.036801e-004
1.791575e+003,3.831238e-004
1.793504e+003,-1.516566e-004
1.795432e+003,-3.427863e-004
1.797361e+003,-3.819689e-004
1.799289e+003,-1.108982e-004
1.801218e+003,-9.635277e-005
1.803146e+003,-4.748851e-004
1.805074e+003,-7.813629e-004
1.807003e+003,-5.604066e-004
1.808932e+003,-5.743038e-004
1.810860e+003,-6.239600e-004
1.812789e+003,-9.895433e-004
1.814717e+003,-1.182240e-003
1.816646e+003,-1.250278e-003
1.818574e+003,-9.947680e-004
1.820502e+003,-8.082148e-004
1.822431e+003,-5.246252e-004
1.824360e+003,-3.367625e-004
1.826288e+003,-3.552027e-004
1.828217e+003,-2.885740e-004
1.830145e+003,1.336448e-005
1.832073e+003,-7.045157e-004
1.834002e+003,-9.078365e-004
1.835931e+003,-8.895304e-004
1.837859e+003,-8.123275e-004
1.839788e+003,-9.935796e-004
1.841716e+003,-6.316043e-004
1.843645e+003,-7.113628e-005
1.845573e+003,-7.744506e-005
1.847501e+003,-6.638467e-004
1.849430e+003,-8.975603e-004
1.851359e+003,-1.255512e-003
1.853287e+003,-1.333179e-003
1.855216e+003,-1.454830e-003
1.857144e+003,-1.206396e-003
1.859073e+003,-1.283050e-003
1.861001e+003,-1.228908e-003
1.862929e+003,-1.232825e-003
1.864858e+003,-9.212382e-004
1.866787e+003,-5.921461e-004
1.868715e+003,-2.296828e-005
1.870644e+003,-8.103717e-004
1.872572e+003,-1.253676e-003
1.874500e+003,-1.424007e-003
1.876429e+003,-1.334678e-003
1.878357e+003,-1.405792e-003
1.880286e+003,-1.319692e-003
1.882215e+003,-1.359791e-003
1.884143e+003,-1.164235e-003
1.886072e+003,-1.329685e-003
1.888000e+003,-9.553246e-004
1.889928e+003,-8.854326e-004
1.891857e+003,-7.819906e-004
1.893785e+003,-4.523713e-004
1.895714e+003,-9.145588e-006
1.897643e+003,-1.203232e-004
1.899571e+003,-4.363805e-005
1.901500e+003,-4.204735e-005
1.903428e+003,-4.046597e-005
1.905356e+003,-3.889203e-005
1.907285e+003,-3.732927e-005
1.909213e+003,-3.577210e-005
1.911142e+003,-3.422052e-005
1.913071e+003,-3.268011e-005
1.914999e+003,-3.114901e-005
1.916927e+003,-2.962537e-005
1.918856e+003,-2.810918e-005
1.920784e+003,-2.660044e-005
1.922713e+003,-2.510473e-005
1.924641e+003,-2.361089e-005
1.926570e+003,-2.212822e-005
1.928499e+003,-2.065301e-005
1.930427e+003,-1.918525e-005
1.932355e+003,-1.772493e-005
1.934284e+003,-1.627579e-005
1.936212e+003,-1.483411e-005
1.938141e+003,-1.339987e-005
1.940070e+003,-1.197308e-005
1.941998e+003,-1.055375e-005
1.943927e+003,-9.145588e-006
1.945855e+003,-7.741153e-006
1.947783e+003,-6.351620e-006
1.949712e+003,-4.965812e-006
1.951640e+003,-3.587455e-006
1.953569e+003,-2.220273e-006
1.955498e+003,-8.568168e-007
1.957426e+003,4.954636e-007
1.959354e+003,1.832843e-006
1.961283e+003,3.170222e-006
1.963211e+003,4.500151e-006
1.965140e+003,5.818903e-006
1.967068e+003,7.130206e-006
1.968997e+003,8.430332e-006
1.970926e+003,9.730458e-006
1.972854e+003,1.101568e-005
1.974782e+003,1.229346e-005
1.976711e+003,1.356378e-005
1.978639e+003,1.482666e-005
1.980568e+003,1.608208e-005
1.982496e+003,1.732633e-005
1.984425e+003,1.856312e-005
1.986354e+003,1.979619e-005
1.988282e+003,2.101436e-005
1.990210e+003,2.222508e-005
1.992139e+003,2.343208e-005
1.994067e+003,2.462417e-005
1.995996e+003,2.581626e-005
1.997924e+003,2.699718e-005
1.999853e+003,2.816692e-005
2.001781e+003,2.933294e-005
2.003710e+003,3.048778e-005
2.005638e+003,3.163517e-005
2.007567e+003,3.277510e-005
2.009495e+003,3.390759e-005
2.011424e+003,3.502890e-005
2.013352e+003,3.614649e-005
2.015281e+003,3.725290e-005
2.017209e+003,3.834814e-005
2.019138e+003,3.943965e-005
2.021066e+003,4.052371e-005
2.022995e+003,4.159659e-005
2.024923e+003,4.266202e-005
2.026852e+003,4.372001e-005
2.028781e+003,4.477054e-005
2.030709e+003,4.580989e-005
2.032637e+003,4.684180e-005
2.034566e+003,4.786626e-005
2.036494e+003,4.888698e-005
2.038423e+003,4.989281e-005
2.040351e+003,5.089492e-005
2.042280e+003,5.188584e-005
2.044208e+003,5.286932e-005
2.046137e+003,5.384535e-005
2.048065e+003,5.481392e-005
2.049994e+003,5.576760e-005
2.051922e+003,5.672127e-005
2.053851e+003,5.766749e-005
2.055779e+003,5.860254e-005
2.057708e+003,5.952641e-005
2.059636e+003,6.044656e-005
2.061565e+003,6.135181e-005
2.063493e+003,6.225333e-005
2.065422e+003,6.314740e-005
2.067350e+003,6.403029e-005
2.069279e+003,6.491318e-005
2.071207e+003,6.578118e-005
2.073136e+003,6.664172e-005
2.075064e+003,6.749481e-005
2.076993e+003,6.834045e-005
2.078921e+003,6.917492e-005
2.080850e+003,7.000193e-005
2.082778e+003,7.082149e-005
2.084707e+003,7.163361e-005
2.086635e+003,7.244200e-005
2.088564e+003,7.323548e-005
2.090492e+003,7.401779e-005
2.092421e+003,7.480010e-005
2.094349e+003,7.557124e-005
2.096278e+003,7.633120e-005
2.098206e+003,7.709116e-005
2.100135e+003,7.783249e-005
2.102063e+003,7.857010e-005
2.103992e+003,7.930025e-005
2.105920e+003,8.002296e-005
2.107849e+003,8.073449e-005
2.109777e+003,8.144230e-005
2.111706e+003,8.213893e-005
2.113634e+003,8.282810e-005
2.115563e+003,8.350983e-005
2.117491e+003,8.418411e-005
2.119420e+003,8.484721e-005
2.121348e+003,8.550286e-005
2.123277e+003,8.615106e-005
2.125205e+003,8.679181e-005
2.127134e+003,8.742139e-005
2.129062e+003,8.804724e-005
2.130991e+003,8.866191e-005
2.132919e+003,8.926913e-005
2.134848e+003,8.986890e-005
2.136776e+003,9.045377e-005
2.138705e+003,9.103864e-005
2.140633e+003,9.161234e-005
2.142562e+003,9.218231e-005
2.144490e+003,9.274110e-005
2.146419e+003,9.328872e-005
2.148347e+003,9.382889e-005
2.150276e+003,9.436160e-005
2.152204e+003,9.488687e-005
2.154133e+003,9.540468e-005
2.156061e+003,9.591505e-005
2.157990e+003,9.641796e-005
2.159918e+003,9.690598e-005
2.161847e+003,9.739026e-005
2.163775e+003,9.786338e-005
2.165704e+003,9.832904e-005
2.167632e+003,9.879097e-005
2.169561e+003,9.924173e-005
2.171489e+003,9.968504e-005
2.173418e+003,1.001209e-004
2.175346e+003,1.005493e-004
2.177275e+003,1.009665e-004
2.179203e+003,1.013763e-004
2.181132e+003,1.017787e-004
2.183060e+003,1.021735e-004
2.184989e+003,1.025610e-004
2.186917e+003,1.029372e-004
2.188846e+003,1.033060e-004
2.190774e+003,1.036674e-004
2.192703e+003,1.040213e-004
2.194631e+003,1.043640e-004
2.196560e+003,1.047030e-004
2.198488e+003,1.050346e-004
2.200417e+003,1.053549e-004
2.202345e+003,1.056641e-004
2.204274e+003,1.059696e-004
2.206202e+003,1.062639e-004
2.208131e+003,1.065545e-004
2.210059e+003,1.068339e-004
2.211988e+003,1.070984e-004
2.213916e+003,1.073629e-004
2.215845e+003,1.076162e-004
2.217773e+003,1.078695e-004
2.219702e+003,1.081079e-004
2.221630e+003,1.083352e-004
2.223559e+003,1.085587e-004
2.225487e+003,1.087710e-004
2.227416e+003,1.089759e-004
2.229344e+003,1.091734e-004
2.231273e+003,1.093671e-004
2.233201e+003,1.095496e-004
2.235130e+003,1.097172e-004
2.237058e+003,1.098812e-004
2.238987e+003,1.100414e-004
2.240915e+003,1.101829e-004
2.242844e+003,1.103245e-004
2.244772e+003,1.104586e-004
2.246701e+003,1.105815e-004
2.248629e+003,1.107007e-004
2.250558e+003,1.108088e-004
2.252486e+003,1.109056e-004
2.254415e+003,1.109950e-004
2.256343e+003,1.110770e-004
2.258272e+003,1.111515e-004
2.260200e+003,1.112185e-004
2.262129e+003,1.112819e-004
2.264057e+003,1.113266e-004
2.265986e+003,1.113713e-004
2.267914e+003,1.114048e-004
2.269843e+003,1.114272e-004
2.271771e+003,1.114458e-004
2.273700e+003,1.114570e-004
2.275628e+003,1.114570e-004
2.277557e+003,1.114495e-004
2.279485e+003,1.114346e-004
2.281414e+003,1.114123e-004
2.283342e+003,1.113787e-004
2.285271e+003,1.113340e-004
2.287199e+003,1.112856e-004
2.289128e+003,1.112372e-004
2.291056e+003,1.111701e-004
2.292985e+003,1.110993e-004
2.294913e+003,1.110174e-004
2.296842e+003,1.109280e-004
2.298770e+003,1.108274e-004
2.300699e+003,1.107231e-004
2.302627e+003,1.106113e-004
2.304556e+003,1.104921e-004
2.306484e+003,1.103617e-004
2.308413e+003,1.102202e-004
2.310341e+003,1.100712e-004
2.312270e+003,1.099184e-004
2.314198e+003,1.097508e-004
2.316127e+003,1.095831e-004
2.318055e+003,1.094043e-004
2.319984e+003,1.092181e-004
2.321912e+003,1.090243e-004
2.323841e+003,1.088195e-004
2.325769e+003,1.086071e-004
2.327698e+003,1.083873e-004
2.329626e+003,1.081601e-004
2.331555e+003,1.079179e-004
2.333483e+003,1.076758e-004
2.335412e+003,1.074187e-004
2.337340e+003,1.071580e-004
2.339269e+003,1.068898e-004
2.341197e+003,1.066178e-004
2.343126e+003,1.063272e-004
2.345054e+003,1.060367e-004
2.346983e+003,1.057349e-004
2.348911e+003,1.054257e-004
2.350840e+003,1.051091e-004
2.352768e+003,1.047775e-004
2.354697e+003,1.044422e-004
2.356625e+003,1.040958e-004
2.358554e+003,1.037456e-004
2.360482e+003,1.033880e-004
2.362411e+003,1.030192e-004
2.364339e+003,1.026466e-004
2.366268e+003,1.022667e-004
2.368196e+003,1.018681e-004
2.370125e+003,1.014732e-004
2.372053e+003,1.010634e-004
2.373982e+003,1.006424e-004
2.375910e+003,1.002178e-004
2.377839e+003,9.978563e-005
2.379767e+003,9.934604e-005
2.381696e+003,9.889156e-005
2.383624e+003,9.843707e-005
2.385553e+003,9.797141e-005
2.387481e+003,9.750202e-005
2.389410e+003,9.701401e-005
2.391338e+003,9.652600e-005
2.393267e+003,9.602681e-005
2.395195e+003,9.552017e-005
2.397124e+003,9.500235e-005
2.399052e+003,9.448081e-005
2.400981e+003,1.214631e-004
2.402909e+003,6.430224e-005
2.404838e+003,4.801899e-005
2.406766e+003,1.738332e-004
2.408695e+003,3.978051e-004
2.410623e+003,4.528500e-004
2.412552e+003,6.185435e-004
2.414480e+003,7.165894e-004
2.416409e+003,7.285848e-004
2.418337e+003,6.830432e-004
2.420266e+003,5.559325e-004
2.422194e+003,3.108047e-004
2.424123e+003,2.902709e-004
2.426051e+003,4.207939e-004
2.427979e+003,5.480237e-004
2.429908e+003,5.261898e-004
2.431837e+003,5.667880e-004
2.433765e+003,5.638711e-004
2.435694e+003,5.744472e-004
2.437622e+003,5.951896e-004
2.439551e+003,5.265810e-004
2.441479e+003,5.743764e-004
2.443407e+003,6.270409e-004
2.445336e+003,5.957484e-004
2.447265e+003,7.881559e-004
2.449193e+003,7.927679e-004
2.451122e+003,7.664114e-004
2.453050e+003,9.173527e-004
2.454979e+003,1.093149e-003
2.456907e+003,9.880550e-004
2.458836e+003,8.120127e-004
2.460764e+003,6.623119e-004
2.462693e+003,6.832741e-004
2.464621e+003,5.010068e-004
2.466550e+003,5.062409e-004
2.468478e+003,6.515458e-004
2.470406e+003,8.291788e-004
2.472335e+003,9.450205e-004
2.474264e+003,1.114331e-003
2.476192e+003,1.184881e-003
2.478121e+003,1.017075e-003
2.480049e+003,8.774772e-004
2.481978e+003,9.789169e-004
2.483906e+003,1.010358e-003
2.485835e+003,9.469613e-004
2.487763e+003,1.009777e-003
2.489692e+003,1.215678e-003
2.491620e+003,1.133293e-003
2.493549e+003,1.177322e-003
2.495477e+003,1.115318e-003
2.497406e+003,9.751841e-004
2.499334e+003,9.899773e-004
2.501263e+003,1.044523e-003
2.503191e+003,1.156490e-003
2.505120e+003,1.402274e-003
2.507048e+003,1.317997e-003
2.508977e+003,1.193035e-003
2.510905e+003,1.230199e-003
2.512833e+003,1.475837e-003
2.514762e+003,1.686018e-003
2.516691e+003,1.859672e-003
2.518619e+003,1.908049e-003
2.520548e+003,1.898963e-003
2.522476e+003,1.931429e-003
2.524405e+003,2.133328e-003
2.526333e+003,2.289664e-003
2.528261e+003,2.325367e-003
2.530190e+003,2.403714e-003
2.532119e+003,2.453540e-003
2.534047e+003,2.426326e-003
2.535976e+003,2.450153e-003
2.537904e+003,2.414484e-003
2.539833e+003,2.389878e-003
2.541761e+003,2.397407e-003
2.543689e+003,2.633624e-003
2.545618e+003,2.885435e-003
2.547547e+003,3.074802e-003
2.549475e+003,3.070008e-003
2.551404e+003,3.006987e-003
2.553332e+003,2.955932e-003
2.555260e+003,3.020503e-003
2.557189e+003,3.154367e-003
2.559117e+003,3.396317e-003
2.561046e+003,3.494792e-003
2.562975e+003,3.587753e-003
2.564903e+003,3.646571e-003
2.566832e+003,3.794834e-003
2.568760e+003,3.894977e-003
2.570688e+003,3.994826e-003
2.572617e+003,4.246458e-003
2.574546e+003,4.372455e-003
2.576474e+003,4.482158e-003
2.578403e+003,4.718490e-003
2.580331e+003,4.857007e-003
2.582260e+003,5.122069e-003
2.584188e+003,5.414315e-003
2.586116e+003,5.575635e-003
2.588045e+003,5.725212e-003
2.589974e+003,5.987581e-003
2.591902e+003,6.217200e-003
2.593831e+003,6.423675e-003
2.595759e+003,6.682150e-003
2.597688e+003,6.910753e-003
2.599616e+003,7.027257e-003
2.601544e+003,7.343739e-003
2.603473e+003,7.579301e-003
2.605402e+003,7.778678e-003
2.607330e+003,8.039296e-003
2.609259e+003,8.308198e-003
2.611187e+003,8.501489e-003
2.613115e+003,8.757986e-003
2.615044e+003,9.148836e-003
2.616972e+003,9.517673e-003
2.618901e+003,9.843878e-003
2.620830e+003,1.016654e-002
2.622758e+003,1.051080e-002
2.624687e+003,1.092479e-002
2.626615e+003,1.138372e-002
2.628543e+003,1.178370e-002
2.630472e+003,1.211520e-002
2.632400e+003,1.251910e-002
2.634329e+003,1.279356e-002
2.636258e+003,1.287574e-002
2.638186e+003,1.286884e-002
2.640115e+003,1.277470e-002
2.642043e+003,1.275463e-002
2.643971e+003,1.279856e-002
2.645900e+003,1.284945e-002
2.647828e+003,1.293304e-002
2.649757e+003,1.308084e-002
2.651686e+003,1.323071e-002
2.653614e+003,1.343468e-002
2.655542e+003,1.369233e-002
2.657471e+003,1.384345e-002
2.659399e+003,1.390483e-002
2.661328e+003,1.387150e-002
2.663256e+003,1.372353e-002
2.665185e+003,1.354657e-002
2.667114e+003,1.338229e-002
2.669042e+003,1.325921e-002
2.670970e+003,1.317260e-002
2.672899e+003,1.309478e-002
2.674827e+003,1.289812e-002
2.676756e+003,1.274982e-002
2.678685e+003,1.263918e-002
2.680613e+003,1.248433e-002
2.682542e+003,1.234447e-002
2.684470e+003,1.222431e-002
2.686398e+003,1.209809e-002
2.688327e+003,1.194886e-002
2.690255e+003,1.182602e-002
2.692184e+003,1.167743e-002
2.694113e+003,1.159700e-002
2.696041e+003,1.162482e-002
2.697969e+003,1.169224e-002
2.699898e+003,1.176866e-002
2.701826e+003,1.189987e-002
2.703755e+003,1.207915e-002
2.705683e+003,1.226827e-002
2.707612e+003,1.247380e-002
2.709541e+003,1.269491e-002
2.711469e+003,1.288171e-002
2.713397e+003,1.303206e-002
2.715326e+003,1.315284e-002
2.717254e+003,1.328466e-002
2.719183e+003,1.353759e-002
2.721111e+003,1.377366e-002
2.723040e+003,1.403771e-002
2.724969e+003,1.444907e-002
2.726897e+003,1.475495e-002
2.728825e+003,1.495333e-002
2.730754e+003,1.521417e-002
2.732682e+003,1.543321e-002
2.734611e+003,1.557769e-002
2.736539e+003,1.571760e-002
2.738468e+003,1.591426e-002
2.740396e+003,1.611026e-002
2.742325e+003,1.618144e-002
2.744253e+003,1.614114e-002
2.746182e+003,1.610967e-002
2.748110e+003,1.612389e-002
2.750039e+003,1.620164e-002
2.751967e+003,1.639321e-002
2.753896e+003,1.665437e-002
2.755824e+003,1.693143e-002
2.757753e+003,1.728001e-002
2.759681e+003,1.771419e-002
2.761610e+003,1.817739e-002
2.763538e+003,1.854255e-002
2.765467e+003,1.890142e-002
2.767395e+003,1.935915e-002
2.769324e+003,1.989086e-002
2.771252e+003,2.053386e-002
2.773181e+003,2.126163e-002
2.775109e+003,2.208384e-002
2.777038e+003,2.304377e-002
2.778966e+003,2.406704e-002
2.780895e+003,2.511574e-002
2.782823e+003,2.621668e-002
2.784752e+003,2.739758e-002
2.786680e+003,2.881023e-002
2.788609e+003,3.048221e-002
2.790537e+003,3.225463e-002
2.792466e+003,3.392987e-002
2.794394e+003,3.559213e-002
2.796323e+003,3.734714e-002
2.798251e+003,3.910910e-002
2.800180e+003,4.107100e-002
2.802108e+003,4.328715e-002
2.804037e+003,4.559598e-002
2.805965e+003,4.805423e-002
2.807894e+003,5.086815e-002
2.809822e+003,5.402517e-002
2.811751e+003,5.751370e-002
2.813679e+003,6.139458e-002
2.815608e+003,6.582004e-002
2.817536e+003,7.103303e-002
2.819465e+003,7.722588e-002
2.821393e+003,8.466645e-002
2.823322e+003,9.372635e-002
2.825250e+003,1.047809e-001
2.827179e+003,1.187608e-001
2.829107e+003,1.369946e-001
2.831036e+003,1.610830e-001
2.832964e+003,1.937933e-001
2.834893e+003,2.396032e-001
2.836821e+003,3.044999e-001
2.838750e+003,3.984576e-001
2.840678e+003,5.378339e-001
2.842607e+003,7.428172e-001
2.844535e+003,1.020663e+000
2.846464e+003,1.292925e+000
2.848392e+003,1.320141e+000
2.850321e+003,1.063707e+000
2.852249e+003,7.842563e-001
2.854178e+003,5.870484e-001
2.856106e+003,4.513102e-001
2.858035e+003,3.539051e-001
2.859963e+003,2.841572e-001
2.861892e+003,2.354736e-001
2.863820e+003,2.030666e-001
2.865749e+003,1.834210e-001
2.867677e+003,1.733712e-001
2.869606e+003,1.700600e-001
2.871534e+003,1.713229e-001
2.873463e+003,1.766272e-001
2.875391e+003,1.872341e-001
2.877320e+003,2.040010e-001
2.879248e+003,2.264000e-001
2.881177e+003,2.531882e-001
2.883105e+003,2.832310e-001
2.885034e+003,3.160209e-001
2.886962e+003,3.511351e-001
2.888891e+003,3.876574e-001
2.890819e+003,4.245226e-001
2.892748e+003,4.610054e-001
2.894676e+003,4.969790e-001
2.896605e+003,5.332652e-001
2.898533e+003,5.714523e-001
2.900462e+003,6.143214e-001
2.902390e+003,6.663627e-001
2.904319e+003,7.340853e-001
2.906247e+003,8.266796e-001
2.908176e+003,9.549811e-001
2.910104e+003,1.128340e+000
2.912033e+003,1.337437e+000
2.913961e+003,1.512282e+000
2.915890e+003,1.531200e+000
2.917818e+003,1.376920e+000
2.919747e+003,1.162479e+000
2.921675e+003,9.669775e-001
2.923604e+003,8.069143e-001
2.925532e+003,6.783999e-001
2.927461e+003,5.734268e-001
2.929389e+003,4.852512e-001
2.931318e+003,4.098689e-001
2.933246e+003,3.452117e-001
2.935175e+003,2.900320e-001
2.937103e+003,2.431323e-001
2.939032e+003,2.035426e-001
2.940960e+003,1.707300e-001
2.942889e+003,1.441523e-001
2.944817e+003,1.233030e-001
2.946746e+003,1.077903e-001
2.948674e+003,9.700756e-002
2.950603e+003,8.974925e-002
2.952531e+003,8.426911e-002
2.954460e+003,7.915926e-002
2.956388e+003,7.388261e-002
2.958317e+003,6.814874e-002
2.960245e+003,6.210212e-002
2.962174e+003,5.592805e-002
2.964102e+003,4.992906e-002
2.966031e+003,4.416432e-002
2.967959e+003,3.893348e-002
2.969888e+003,3.446936e-002
2.971816e+003,3.070351e-002
2.973745e+003,2.750290e-002
2.975673e+003,2.484988e-002
2.977602e+003,2.263122e-002
2.979530e+003,2.081583e-002
2.981459e+003,1.932634e-002
2.983387e+003,1.810139e-002
2.985316e+003,1.700640e-002
2.987244e+003,1.601176e-002
2.989173e+003,1.513221e-002
2.991101e+003,1.436086e-002
2.993030e+003,1.366603e-002
2.994958e+003,1.310758e-002
2.996887e+003,1.262411e-002
2.998815e+003,1.215248e-002
3.000744e+003,1.165861e-002
3.002672e+003,1.122354e-002
3.004601e+003,1.078480e-002
3.006529e+003,1.039407e-002
3.008458e+003,1.005923e-002
3.010386e+003,9.794965e-003
3.012315e+003,9.543676e-003
3.014243e+003,9.320647e-003
3.016172e+003,9.145066e-003
3.018100e+003,8.950233e-003
3.020029e+003,8.761764e-003
3.021957e+003,8.623563e-003
3.023886e+003,8.441161e-003
3.025814e+003,8.245341e-003
3.027743e+003,8.044146e-003
3.029671e+003,7.943388e-003
3.031600e+003,7.747125e-003
3.033528e+003,7.382404e-003
3.035457e+003,7.117793e-003
3.037385e+003,6.894864e-003
3.039314e+003,6.567713e-003
3.041242e+003,6.216027e-003
3.043171e+003,5.865026e-003
3.045099e+003,5.566332e-003
3.047028e+003,5.457856e-003
3.048956e+003,5.279213e-003
3.050885e+003,5.050268e-003
3.052813e+003,4.912563e-003
3.054742e+003,4.736144e-003
3.056670e+003,4.477642e-003
3.058599e+003,4.293375e-003
3.060527e+003,4.208613e-003
3.062456e+003,4.079428e-003
3.064384e+003,3.916506e-003
3.066313e+003,3.768016e-003
3.068241e+003,3.722467e-003
3.070170e+003,3.542293e-003
3.072098e+003,3.351711e-003
3.074027e+003,3.230236e-003
3.075955e+003,3.193263e-003
3.077884e+003,3.210120e-003
3.079812e+003,3.137760e-003
3.081741e+003,3.013935e-003
3.083669e+003,2.908584e-003
3.085598e+003,2.854750e-003
3.087526e+003,2.737019e-003
3.089455e+003,2.536729e-003
3.091383e+003,2.265573e-003
3.093312e+003,1.966938e-003
3.095240e+003,1.718797e-003
3.097169e+003,1.467507e-003
3.099097e+003,1.243088e-003
3.101026e+003,1.123294e-003
3.102954e+003,9.211116e-004
3.104883e+003,7.066987e-004
3.106811e+003,5.943216e-004
3.108740e+003,4.510507e-004
3.110668e+003,3.159754e-004
3.112597e+003,1.405291e-004
3.114525e+003,1.479313e-004
3.116454e+003,1.437366e-004
3.118382e+003,1.213327e-005
3.120311e+003,-2.225488e-005
3.122239e+003,2.754852e-005
3.124168e+003,-7.402524e-005
3.126096e+003,-2.171732e-004
3.128025e+003,-3.447644e-004
3.129953e+003,-3.930591e-004
3.131882e+003,-2.715178e-004
3.133810e+003,-2.649017e-004
3.135739e+003,-3.766343e-004
3.137667e+003,-4.290752e-004
3.139596e+003,-4.309714e-004
3.141524e+003,-4.414320e-004
3.143453e+003,-4.153028e-004
3.145381e+003,-3.729090e-004
3.147310e+003,-3.831312e-004
3.149238e+003,-4.624613e-004
3.151167e+003,-5.239844e-004
3.153095e+003,-4.743934e-004
3.155024e+003,-3.964864e-004
3.156952e+003,-3.519580e-004
3.158881e+003,-3.970414e-004
3.160809e+003,-4.320629e-004
3.162738e+003,-5.917251e-004
3.164666e+003,-5.885437e-004
3.166594e+003,-4.144609e-004
3.168523e+003,-3.665276e-004
3.170452e+003,-5.013384e-004
3.172380e+003,-5.014837e-004
3.174309e+003,-4.084893e-004
3.176237e+003,-3.994033e-004
3.178166e+003,-4.496239e-004
3.180094e+003,-5.466715e-004
3.182022e+003,-5.179234e-004
3.183951e+003,-3.452711e-004
3.185880e+003,-3.610328e-004
3.187808e+003,-4.068911e-004
3.189737e+003,-3.765635e-004
3.191665e+003,-3.984272e-004
3.193594e+003,-3.926009e-004
3.195522e+003,-4.378334e-004
3.197450e+003,-4.169270e-004
3.199379e+003,-3.273524e-004
3.201308e+003,-3.734119e-004
3.203236e+003,-4.129112e-004
3.205165e+003,-3.648996e-004
3.207093e+003,-3.211536e-004
3.209021e+003,-2.602041e-004
3.210950e+003,-2.176687e-004
3.212878e+003,-2.493486e-004
3.214807e+003,-2.492815e-004
3.216736e+003,-2.732612e-004
3.218664e+003,-2.530329e-004
3.220593e+003,-2.478659e-004
3.222521e+003,-2.325997e-004
3.224449e+003,-1.793206e-004
3.226378e+003,-1.704469e-004
3.228307e+003,-1.895875e-004
3.230235e+003,-2.064183e-004
3.232164e+003,-1.920983e-004
3.234092e+003,-2.341270e-004
3.236021e+003,-2.240501e-004
3.237949e+003,-2.654865e-004
3.239877e+003,-2.501644e-004
3.241806e+003,-1.480505e-004
3.243735e+003,-7.765740e-005
3.245663e+003,-4.430488e-005
3.247592e+003,-4.348159e-005
3.249520e+003,1.623854e-005
3.251448e+003,1.155697e-004
3.253377e+003,2.136938e-004
3.255305e+003,2.041198e-004
3.257234e+003,1.470409e-004
3.259163e+003,9.147823e-005
3.261091e+003,1.292266e-004
3.263020e+003,1.200177e-004
3.264948e+003,1.275614e-004
3.266876e+003,1.726002e-004
3.268805e+003,3.705733e-004
3.270733e+003,4.695915e-004
3.272662e+003,4.755482e-004
3.274591e+003,4.838780e-004
3.276519e+003,3.920421e-004
3.278448e+003,3.964826e-004
3.280376e+003,5.258732e-004
3.282304e+003,5.526803e-004
3.284233e+003,4.088059e-004
3.286161e+003,3.339648e-004
3.288090e+003,4.203096e-004
3.290019e+003,4.885122e-004
3.291947e+003,6.005876e-004
3.293875e+003,5.439557e-004
3.295804e+003,4.079528e-004
3.297732e+003,3.795475e-004
3.299661e+003,3.662407e-004
3.301589e+003,4.019700e-004
3.303518e+003,4.852116e-004
3.305447e+003,5.417839e-004
3.307375e+003,6.614737e-004
3.309303e+003,6.633438e-004
3.311232e+003,5.388372e-004
3.313160e+003,5.035065e-004
3.315089e+003,4.919022e-004
3.317018e+003,5.409941e-004
3.318946e+003,5.617738e-004
3.320875e+003,5.317442e-004
3.322803e+003,5.784184e-004
3.324731e+003,6.307699e-004
3.326660e+003,6.105788e-004
3.328588e+003,5.999990e-004
3.330517e+003,5.651899e-004
3.332446e+003,5.373247e-004
3.334374e+003,5.835816e-004
3.336302e+003,5.918182e-004
3.338231e+003,4.933737e-004
3.340159e+003,4.629865e-004
3.342088e+003,5.268045e-004
3.344016e+003,5.975105e-004
3.345945e+003,5.683899e-004
3.347874e+003,5.297624e-004
3.349802e+003,5.979277e-004
3.351730e+003,6.588846e-004
3.353659e+003,6.565377e-004
3.355587e+003,6.942339e-004
3.357516e+003,6.700233e-004
3.359444e+003,6.039627e-004
3.361373e+003,7.063523e-004
3.363302e+003,7.497184e-004
3.365230e+003,8.027554e-004
3.367158e+003,8.333214e-004
3.369087e+003,7.787831e-004
3.371015e+003,6.887168e-004
3.372944e+003,6.471500e-004
3.374872e+003,6.045066e-004
3.376801e+003,5.790368e-004
3.378729e+003,5.516633e-004
3.380658e+003,5.342886e-004
3.382586e+003,5.994625e-004
3.384515e+003,6.273612e-004
3.386443e+003,5.886219e-004
3.388372e+003,5.244873e-004
3.390300e+003,4.452020e-004
3.392229e+003,5.768128e-004
3.394157e+003,5.127788e-004
3.396086e+003,4.670583e-004
3.398014e+003,3.470108e-004
3.399943e+003,2.560318e-004
3.401871e+003,2.357699e-004
3.403800e+003,1.475513e-004
3.405728e+003,1.628920e-004
3.407657e+003,2.560169e-004
3.409585e+003,9.606406e-005
3.411514e+003,3.531948e-005
3.413442e+003,1.052096e-004
3.415371e+003,1.337416e-004
3.417299e+003,1.280345e-004
3.419228e+003,3.712624e-004
3.421156e+003,4.937686e-004
3.423085e+003,3.399998e-004
3.425013e+003,1.915060e-004
3.426942e+003,1.561530e-004
3.428870e+003,1.738146e-004
3.430799e+003,1.922175e-004
3.432727e+003,1.610443e-004
3.434656e+003,2.470613e-005
3.436584e+003,-5.906075e-005
3.438513e+003,-2.134591e-006
3.440441e+003,2.101101e-004
3.442370e+003,5.289763e-004
3.444298e+003,5.439483e-004
3.446227e+003,6.215721e-004
3.448155e+003,3.928728e-004
3.450084e+003,5.951896e-005
3.452012e+003,-1.067258e-004
3.453941e+003,-1.374446e-004
3.455869e+003,-1.662932e-004
3.457798e+003,-1.952834e-004
3.459726e+003,-9.124354e-005
3.461655e+003,1.453869e-004
3.463583e+003,7.173419e-005
3.465512e+003,-2.614036e-005
3.467440e+003,-1.964197e-004
3.469369e+003,-2.261512e-004
3.471297e+003,-2.402291e-004
3.473226e+003,-3.149062e-004
3.475154e+003,-3.338493e-004
3.477083e+003,-3.266856e-004
3.479011e+003,-2.059713e-004
3.480940e+003,8.660182e-005
3.482868e+003,-3.279001e-005
3.484797e+003,-2.957135e-004
3.486725e+003,-2.986118e-004
3.488654e+003,-3.396384e-004
3.490582e+003,-5.461127e-004
3.492511e+003,-5.510896e-004
3.494439e+003,-3.310032e-004
3.496368e+003,-2.881475e-004
3.498296e+003,-4.516691e-004
3.500225e+003,-3.354996e-004
3.502153e+003,9.976700e-005
3.504082e+003,5.838647e-005
3.506010e+003,-4.010461e-004
3.507939e+003,-3.304183e-004
3.509867e+003,-1.593009e-004
3.511796e+003,-5.231090e-004
3.513724e+003,-8.688346e-004
3.515653e+003,-1.056213e-003
3.517581e+003,-9.974204e-004
3.519510e+003,-1.097895e-003
3.521438e+003,-7.919297e-004
3.523367e+003,-9.492040e-006
3.525295e+003,1.424178e-004
3.527224e+003,1.794510e-004
3.529152e+003,-1.804940e-004
3.531081e+003,-7.191375e-004
3.533009e+003,-9.855330e-004
3.534938e+003,-6.365329e-004
3.536866e+003,-6.267875e-004
3.538795e+003,-1.026142e-003
3.540723e+003,-9.714849e-004
3.542652e+003,-2.120398e-004
3.544580e+003,6.437115e-004
3.546509e+003,5.184077e-004
3.548437e+003,-5.268417e-004
3.550366e+003,-7.527918e-004
3.552294e+003,-4.564896e-004
3.554223e+003,-7.347241e-004
3.556151e+003,-1.058418e-003
3.558080e+003,-9.435564e-004
3.560008e+003,-7.766858e-004
3.561937e+003,-4.834160e-004
3.563865e+003,3.566854e-004
3.565794e+003,2.068117e-003
3.567722e+003,1.864612e-003
3.569651e+003,-2.315976e-004
3.571579e+003,-1.101285e-003
3.573508e+003,-9.189807e-004
3.575436e+003,-7.749088e-004
3.577365e+003,-8.386411e-004
3.579293e+003,-9.055324e-004
3.581222e+003,-1.002718e-003
3.583150e+003,-6.211735e-004
3.585079e+003,3.836416e-004
3.587007e+003,1.806296e-003
3.588936e+003,1.024678e-003
3.590864e+003,2.028458e-004
3.592793e+003,6.023534e-004
3.594721e+003,1.261994e-003
3.596650e+003,1.455590e-003
3.598578e+003,1.773871e-003
3.600507e+003,2.078760e-003
3.602435e+003,1.808301e-003
3.604364e+003,1.701668e-003
3.606292e+003,2.421275e-003
3.608221e+003,3.001615e-003
3.610149e+003,1.883447e-003
3.612078e+003,1.599822e-003
3.614006e+003,2.100855e-003
3.615935e+003,2.104990e-003
3.617863e+003,2.718203e-003
3.619792e+003,2.338752e-003
3.621720e+003,3.673285e-004
3.623649e+003,1.858249e-004
3.625577e+003,1.183480e-003
3.627506e+003,2.558894e-003
3.629434e+003,2.440311e-003
3.631363e+003,4.110187e-004
3.633291e+003,8.132309e-005
3.635220e+003,2.819374e-004
3.637148e+003,3.160685e-004
3.639077e+003,-2.666414e-004
3.641005e+003,-4.273430e-004
3.642934e+003,-4.953146e-005
3.644862e+003,1.188867e-003
3.646791e+003,3.796764e-003
3.648719e+003,4.724517e-003
3.650648e+003,2.890714e-003
3.652576e+003,1.052544e-003
3.654505e+003,8.582622e-004
3.656433e+003,9.840876e-004
3.658362e+003,1.877695e-004
3.660290e+003,-3.503561e-004
3.662219e+003,-3.518313e-004
3.664147e+003,-3.051832e-004
3.666076e+003,-2.637506e-006
3.668004e+003,4.326403e-004
3.669933e+003,1.639806e-003
3.671861e+003,6.986260e-004
3.673790e+003,1.108393e-003
3.675718e+003,2.884850e-003
3.677647e+003,1.397960e-003
3.679575e+003,1.370236e-004
3.681504e+003,-3.759637e-004
3.683432e+003,-3.909469e-004
3.685361e+003,-1.309663e-004
3.687289e+003,8.090585e-004
3.689218e+003,1.885764e-003
3.691146e+003,1.274452e-003
3.693075e+003,6.018579e-005
3.695003e+003,-2.013147e-004
3.696932e+003,-1.539439e-004
3.698860e+003,-3.729463e-004
3.700789e+003,-2.131835e-004
3.702717e+003,-1.151934e-004
3.704646e+003,-4.562587e-004
3.706574e+003,-8.273870e-005
3.708503e+003,1.266539e-003
3.710431e+003,2.899848e-003
3.712360e+003,2.236277e-003
3.714288e+003,7.978678e-004
3.716217e+003,1.909137e-004
3.718145e+003,5.427375e-004
3.720074e+003,7.660016e-004
3.722002e+003,1.577772e-003
3.723931e+003,1.855299e-003
3.725859e+003,1.695506e-003
3.727788e+003,9.887367e-004
3.729716e+003,6.924942e-004
3.731645e+003,1.738451e-003
3.733573e+003,2.855688e-003
3.735502e+003,3.081776e-003
3.737430e+003,1.891695e-003
3.739359e+003,1.878500e-003
3.741287e+003,1.920842e-003
3.743216e+003,2.053447e-003
3.745144e+003,2.230547e-003
3.747073e+003,2.319202e-003
3.749001e+003,3.398098e-003
3.750930e+003,4.262082e-003
3.752858e+003,1.609042e-003
3.754787e+003,7.900521e-004
3.756715e+003,9.933561e-004
3.758644e+003,1.236983e-003
3.760572e+003,3.548115e-004
3.762501e+003,-4.064962e-004
3.764429e+003,4.024431e-004
3.766358e+003,9.302720e-004
3.768286e+003,8.849800e-004
3.770215e+003,6.927475e-004
3.772143e+003,-2.752766e-004
3.774072e+003,-2.819374e-004
3.776000e+003,3.971234e-004
3.777929e+003,8.552596e-004
3.779857e+003,1.103804e-003
3.781786e+003,5.726665e-004
3.783714e+003,7.854775e-004
3.785643e+003,1.025349e-003
3.787571e+003,8.346885e-005
3.789500e+003,-2.920106e-004
3.791428e+003,1.810640e-004
3.793357e+003,2.117530e-004
3.795285e+003,1.138277e-003
3.797214e+003,2.178118e-003
3.799142e+003,1.839913e-003
3.801071e+003,2.850100e-003
3.802999e+003,2.454333e-003
3.804927e+003,1.456246e-003
3.806856e+003,1.755051e-003
3.808785e+003,9.589568e-004
3.810713e+003,7.802844e-004
3.812642e+003,1.212783e-003
3.814570e+003,2.195299e-003
3.816499e+003,2.622731e-003
3.818427e+003,2.288036e-003
3.820355e+003,3.155187e-003
3.822284e+003,3.227010e-003
3.824213e+003,1.890630e-003
3.826141e+003,1.972929e-003
3.828070e+003,1.890041e-003
3.829998e+003,1.715437e-003
3.831927e+003,2.370700e-003
3.833855e+003,2.761386e-003
3.835783e+003,2.517141e-003
3.837712e+003,3.339648e-003
3.839641e+003,4.445449e-003
3.841569e+003,3.496520e-003
3.843498e+003,2.657533e-003
3.845426e+003,1.288198e-003
3.847354e+003,1.096852e-003
3.849283e+003,2.336182e-003
3.851211e+003,3.861815e-003
3.853140e+003,4.916236e-003
3.855069e+003,2.880909e-003
3.856997e+003,1.920640e-003
3.858926e+003,1.929104e-003
3.860854e+003,2.617389e-003
3.862782e+003,2.643980e-003
3.864711e+003,2.805054e-003
3.866640e+003,1.930892e-003
3.868568e+003,3.639385e-003
3.870497e+003,4.486494e-003
3.872425e+003,2.819262e-003
3.874354e+003,2.227716e-003
3.876282e+003,1.929753e-003
3.878210e+003,1.761444e-003
3.880139e+003,3.236599e-003
3.882068e+003,2.580203e-003
3.883996e+003,1.905009e-003
3.885925e+003,2.483197e-003
3.887853e+003,2.062470e-003
3.889781e+003,2.075873e-003
3.891710e+003,2.907082e-003
3.893638e+003,2.147257e-003
3.895567e+003,1.526617e-003
3.897496e+003,2.418026e-003
3.899424e+003,3.362574e-003
3.901353e+003,3.487401e-003
3.903281e+003,3.869303e-003
3.905209e+003,3.327258e-003
3.907138e+003,2.061822e-003
3.909066e+003,1.332492e-003
3.910995e+003,1.170978e-003
3.912924e+003,1.093209e-003
3.914852e+003,1.722597e-003
3.916781e+003,2.457447e-003
3.918709e+003,2.419949e-003
3.920637e+003,2.025634e-003
3.922566e+003,2.303749e-003
3.924494e+003,2.554230e-003
3.926423e+003,1.759678e-003
3.928352e+003,1.774639e-003
3.930280e+003,2.402768e-003
3.932208e+003,2.426356e-003
3.934137e+003,1.529530e-003
3.936065e+003,1.135178e-003
3.937994e+003,1.302145e-003
3.939922e+003,1.292698e-003
3.941851e+003,1.549348e-003
3.943780e+003,1.385570e-003
3.945708e+003,1.227356e-003
3.947636e+003,1.906313e-003
3.949565e+003,1.808181e-003
3.951493e+003,1.051985e-003
3.953422e+003,8.192137e-004
3.955351e+003,9.637848e-004
3.957279e+003,1.104675e-003
3.959208e+003,1.201406e-003
3.961136e+003,1.319714e-003
3.963064e+003,1.173481e-003
3.964993e+003,9.960532e-004
3.966921e+003,1.131818e-003
3.968850e+003,1.240030e-003
3.970779e+003,1.168467e-003
3.972707e+003,1.292169e-003
3.974635e+003,1.457177e-003
3.976564e+003,1.321197e-003
3.978492e+003,1.196079e-003
3.980421e+003,1.182184e-003
3.982349e+003,1.170181e-003
3.984278e+003,1.199439e-003
3.986207e+003,1.143962e-003
3.988135e+003,1.310393e-003
3.990063e+003,1.547277e-003
3.991992e+003,1.342960e-003
3.993920e+003,1.192950e-003
3.995849e+003,1.130395e-003
3.997777e+003,1.104638e-003
3.999706e+003,1.107030e-003
4.001635e+003,0.000000e+000
