3.991992e+002,0.000000e+000
4.011277e+002,0.000000e+000
4.030562e+002,0.000000e+000
4.049846e+002,0.000000e+000
4.069131e+002,0.000000e+000
4.088416e+002,0.000000e+000
4.107701e+002,0.000000e+000
4.126986e+002,0.000000e+000
4.146271e+002,0.000000e+000
4.165556e+002,0.000000e+000
4.184841e+002,0.000000e+000
4.204126e+002,0.000000e+000
4.223411e+002,0.000000e+000
4.242697e+002,0.000000e+000
4.261982e+002,0.000000e+000
4.281266e+002,0.000000e+000
4.300551e+002,0.000000e+000
4.319836e+002,0.000000e+000
4.339121e+002,0.000000e+000
4.358406e+002,0.000000e+000
4.377691e+002,0.000000e+000
4.396976e+002,0.000000e+000
4.416261e+002,0.000000e+000
4.435546e+002,0.000000e+000
4.454831e+002,0.000000e+000
4.474116e+002,0.000000e+000
4.493401e+002,0.000000e+000
4.512686e+002,0.000000e+000
4.531971e+002,0.000000e+000
4.551256e+002,0.000000e+000
4.570541e+002,0.000000e+000
4.589826e+002,0.000000e+000
4.609111e+002,0.000000e+000
4.628396e+002,0.000000e+000
4.647681e+002,0.000000e+000
4.666966e+002,0.000000e+000
4.686251e+002,0.000000e+000
4.705536e+002,0.000000e+000
4.724821e+002,0.000000e+000
4.744106e+002,0.000000e+000
4.763391e+002,0.000000e+000
4.782676e+002,0.000000e+000
4.801961e+002,0.000000e+000
4.821246e+002,0.000000e+000
4.840531e+002,0.000000e+000
4.859816e+002,0.000000e+000
4.879101e+002,0.000000e+000
4.898386e+002,0.000000e+000
4.917671e+002,0.000000e+000
4.936956e+002,0.000000e+000
4.956241e+002,0.000000e+000
4.975526e+002,0.000000e+000
4.994811e+002,0.000000e+000
5.014096e+002,0.000000e+000
5.033381e+002,0.000000e+000
5.052666e+002,0.000000e+000
5.071951e+002,0.000000e+000
5.091236e+002,0.000000e+000
5.110521e+002,0.000000e+000
5.129806e+002,0.000000e+000
5.149091e+002,0.000000e+000
5.168376e+002,0.000000e+000
5.187661e+002,0.000000e+000
5.206946e+002,0.000000e+000
5.226230e+002,0.000000e+000
5.245516e+002,-3.347360e-005
5.264800e+002,2.752291e-005
5.284086e+002,6.638747e-005
5.303370e+002,9.100977e-005
5.322656e+002,-7.008342e-005
5.341940e+002,-2.870900e-004
5.361226e+002,-4.203012e-004
5.380510e+002,-3.324896e-004
5.399796e+002,-3.827917e-004
5.419081e+002,-3.883247e-004
5.438365e+002,-4.687104e-004
5.457650e+002,-4.767422e-004
5.476935e+002,-5.510445e-004
5.496221e+002,-5.199499e-004
5.515505e+002,-3.698734e-004
5.534790e+002,-2.873782e-004
5.554075e+002,-3.818511e-004
5.573361e+002,-4.564105e-004
5.592645e+002,-5.176929e-004
5.611931e+002,-4.028114e-004
5.631215e+002,-3.610109e-004
5.650500e+002,-3.205170e-004
5.669785e+002,-3.422792e-004
5.689070e+002,-3.299229e-004
5.708355e+002,-3.609271e-004
5.727640e+002,-1.889537e-004
5.746925e+002,-1.930241e-004
5.766210e+002,-2.691299e-004
5.785495e+002,-3.142180e-004
5.804780e+002,-3.400384e-004
5.824065e+002,-2.838024e-004
5.843350e+002,-1.706579e-004
5.862635e+002,-2.125977e-004
5.881920e+002,-1.185280e-004
5.901205e+002,-9.461120e-005
5.920490e+002,-1.289025e-004
5.939775e+002,-2.091080e-004
5.959060e+002,-1.760637e-004
5.978345e+002,-1.780665e-004
5.997630e+002,-1.256480e-004
6.016915e+002,-1.420588e-004
6.036200e+002,-5.746214e-005
6.055485e+002,5.012471e-005
6.074770e+002,6.778724e-005
6.094055e+002,1.414865e-005
6.113340e+002,2.012402e-005
6.132625e+002,1.784321e-005
6.151910e+002,-9.053387e-006
6.171195e+002,-9.739585e-005
6.190480e+002,-7.790746e-005
6.209765e+002,-5.712686e-005
6.229050e+002,1.902925e-005
6.248335e+002,1.283274e-004
6.267620e+002,2.431511e-004
6.286905e+002,1.770994e-004
6.306190e+002,2.292073e-004
6.325475e+002,2.911449e-004
6.344760e+002,3.090156e-004
6.364045e+002,3.340091e-004
6.383330e+002,4.542042e-004
6.402615e+002,5.142093e-004
6.421899e+002,5.388232e-004
6.441185e+002,4.459484e-004
6.460470e+002,3.785938e-004
6.479755e+002,2.922453e-004
6.499039e+002,2.885922e-004
6.518325e+002,2.799197e-004
6.537610e+002,3.289822e-004
6.556895e+002,3.442769e-004
6.576179e+002,4.617954e-004
6.595464e+002,4.430083e-004
6.614750e+002,4.441384e-004
6.634034e+002,3.660372e-004
6.653319e+002,3.290577e-004
6.672604e+002,3.752881e-004
6.691890e+002,5.116127e-004
6.711174e+002,5.204096e-004
6.730460e+002,5.004546e-004
6.749745e+002,4.544728e-004
6.769030e+002,4.601711e-004
6.788314e+002,4.397756e-004
6.807599e+002,5.504191e-004
6.826885e+002,6.297487e-004
6.846169e+002,6.751288e-004
6.865454e+002,6.917366e-004
6.884739e+002,7.359250e-004
6.904025e+002,7.631979e-004
6.923309e+002,8.249260e-004
6.942594e+002,8.227723e-004
6.961879e+002,8.644126e-004
6.981165e+002,9.088204e-004
7.000449e+002,9.726388e-004
7.019734e+002,9.960420e-004
7.039019e+002,1.053313e-003
7.058304e+002,1.052976e-003
7.077589e+002,1.073285e-003
7.096874e+002,1.028107e-003
7.116159e+002,1.058692e-003
7.135444e+002,1.086326e-003
7.154729e+002,1.178458e-003
7.174014e+002,1.237355e-003
7.193299e+002,1.372228e-003
7.212584e+002,1.426869e-003
7.231869e+002,1.460112e-003
7.251154e+002,1.384578e-003
7.270439e+002,1.284136e-003
7.289724e+002,1.217968e-003
7.309009e+002,1.178108e-003
7.328294e+002,1.123966e-003
7.347579e+002,1.109263e-003
7.366864e+002,1.009361e-003
7.386149e+002,9.441637e-004
7.405434e+002,9.932499e-004
7.424719e+002,1.027307e-003
7.444004e+002,9.610960e-004
7.463289e+002,9.221411e-004
7.482574e+002,8.185385e-004
7.501859e+002,8.176160e-004
7.521144e+002,8.501243e-004
7.540428e+002,8.696495e-004
7.559714e+002,8.350569e-004
7.578999e+002,8.573001e-004
7.598284e+002,8.980460e-004
7.617568e+002,9.449474e-004
7.636854e+002,9.363079e-004
7.656139e+002,9.716256e-004
7.675424e+002,1.003913e-003
7.694709e+002,1.051520e-003
7.713994e+002,1.069108e-003
7.733279e+002,1.080666e-003
7.752563e+002,1.083679e-003
7.771849e+002,1.136963e-003
7.791134e+002,1.149133e-003
7.810419e+002,1.236760e-003
7.829703e+002,1.382705e-003
7.848989e+002,1.562281e-003
7.868274e+002,1.759299e-003
7.887559e+002,2.089172e-003
7.906843e+002,2.322150e-003
7.926129e+002,2.531575e-003
7.945414e+002,2.760321e-003
7.964698e+002,3.076755e-003
7.983983e+002,3.347527e-003
8.003268e+002,3.825185e-003
8.022554e+002,4.553443e-003
8.041838e+002,5.777085e-003
8.061123e+002,7.513177e-003
8.080408e+002,8.956352e-003
8.099694e+002,8.732054e-003
8.118978e+002,7.088711e-003
8.138263e+002,5.255074e-003
8.157548e+002,4.109821e-003
8.176833e+002,3.487100e-003
8.196118e+002,3.311475e-003
8.215403e+002,3.312504e-003
8.234689e+002,3.402840e-003
8.253973e+002,3.483336e-003
8.273258e+002,3.677696e-003
8.292543e+002,3.939625e-003
8.311829e+002,4.421120e-003
8.331113e+002,5.090624e-003
8.350398e+002,6.389250e-003
8.369683e+002,9.638576e-003
8.388969e+002,1.663283e-002
8.408253e+002,2.058455e-002
8.427538e+002,1.488095e-002
8.446823e+002,8.156307e-003
8.466108e+002,5.221172e-003
8.485393e+002,4.090311e-003
8.504678e+002,3.561031e-003
8.523963e+002,3.251559e-003
8.543248e+002,3.079145e-003
8.562533e+002,2.873723e-003
8.581818e+002,2.740513e-003
8.601103e+002,2.632951e-003
8.620388e+002,2.605357e-003
8.639673e+002,2.561415e-003
8.658958e+002,2.586118e-003
8.678243e+002,2.605429e-003
8.697528e+002,2.610028e-003
8.716813e+002,2.539558e-003
8.736098e+002,2.520442e-003
8.755383e+002,2.507048e-003
8.774668e+002,2.497835e-003
8.793953e+002,2.484393e-003
8.813238e+002,2.547457e-003
8.832523e+002,2.546012e-003
8.851808e+002,2.735087e-003
8.871093e+002,2.918158e-003
8.890378e+002,3.205177e-003
8.909663e+002,3.570057e-003
8.928948e+002,4.216600e-003
8.948232e+002,5.438923e-003
8.967518e+002,7.278791e-003
8.986803e+002,8.467529e-003
9.006088e+002,7.764454e-003
9.025372e+002,5.798571e-003
9.044658e+002,4.152223e-003
9.063943e+002,3.234379e-003
9.083228e+002,2.868441e-003
9.102512e+002,2.751827e-003
9.121797e+002,2.722479e-003
9.141083e+002,2.674551e-003
9.160367e+002,2.683281e-003
9.179653e+002,2.668965e-003
9.198937e+002,2.693574e-003
9.218223e+002,2.689955e-003
9.237507e+002,2.690794e-003
9.256793e+002,2.671286e-003
9.276077e+002,2.727518e-003
9.295363e+002,2.887192e-003
9.314647e+002,3.067000e-003
9.333932e+002,3.259008e-003
9.353217e+002,3.648554e-003
9.372502e+002,4.138162e-003
9.391787e+002,4.665977e-003
9.411072e+002,4.733372e-003
9.430358e+002,4.497809e-003
9.449642e+002,4.206010e-003
9.468928e+002,4.165632e-003
9.488212e+002,4.214324e-003
9.507498e+002,4.332676e-003
9.526782e+002,4.558282e-003
9.546068e+002,4.879284e-003
9.565352e+002,5.266051e-003
9.584637e+002,5.793993e-003
9.603922e+002,6.452676e-003
9.623207e+002,7.344955e-003
9.642492e+002,8.643575e-003
9.661777e+002,1.090947e-002
9.681062e+002,1.521161e-002
9.700347e+002,2.217262e-002
9.719632e+002,2.735474e-002
9.738917e+002,2.544045e-002
9.758202e+002,1.924851e-002
9.777487e+002,1.363618e-002
9.796772e+002,9.870001e-003
9.816057e+002,7.863791e-003
9.835342e+002,6.942762e-003
9.854627e+002,6.786361e-003
9.873912e+002,7.186520e-003
9.893197e+002,8.279881e-003
9.912482e+002,1.040467e-002
9.931767e+002,1.435225e-002
9.951052e+002,2.010133e-002
9.970337e+002,2.438758e-002
9.989622e+002,2.231662e-002
1.000891e+003,1.607973e-002
1.002819e+003,1.103653e-002
1.004748e+003,8.424422e-003
1.006676e+003,7.126731e-003
1.008605e+003,6.489442e-003
1.010533e+003,6.094799e-003
1.012462e+003,5.852415e-003
1.014390e+003,5.688765e-003
1.016319e+003,5.678277e-003
1.018247e+003,5.701878e-003
1.020176e+003,5.788594e-003
1.022104e+003,5.798275e-003
1.024033e+003,5.805731e-003
1.025961e+003,5.813497e-003
1.027890e+003,5.891996e-003
1.029818e+003,6.001896e-003
1.031747e+003,6.204969e-003
1.033675e+003,6.413532e-003
1.035604e+003,6.617657e-003
1.037532e+003,6.705928e-003
1.039461e+003,6.884345e-003
1.041389e+003,7.271109e-003
1.043318e+003,7.748294e-003
1.045246e+003,7.703825e-003
1.047175e+003,7.295067e-003
1.049103e+003,6.849604e-003
1.051032e+003,6.671190e-003
1.052960e+003,6.534070e-003
1.054889e+003,6.480921e-003
1.056817e+003,6.461096e-003
1.058746e+003,6.530869e-003
1.060674e+003,6.556340e-003
1.062603e+003,6.662425e-003
1.064531e+003,6.713300e-003
1.066460e+003,6.718997e-003
1.068388e+003,6.675172e-003
1.070317e+003,6.810799e-003
1.072245e+003,7.000767e-003
1.074174e+003,7.166774e-003
1.076102e+003,7.305396e-003
1.078031e+003,7.554344e-003
1.079959e+003,7.751929e-003
1.081888e+003,7.958672e-003
1.083816e+003,8.104352e-003
1.085745e+003,8.258934e-003
1.087673e+003,8.369296e-003
1.089602e+003,8.604980e-003
1.091530e+003,8.884816e-003
1.093459e+003,9.267312e-003
1.095387e+003,9.609492e-003
1.097316e+003,1.013396e-002
1.099244e+003,1.077049e-002
1.101173e+003,1.141323e-002
1.103101e+003,1.146979e-002
1.105030e+003,1.085813e-002
1.106958e+003,1.003403e-002
1.108887e+003,9.475169e-003
1.110815e+003,9.177536e-003
1.112744e+003,9.086056e-003
1.114672e+003,8.934986e-003
1.116601e+003,8.827144e-003
1.118529e+003,8.695643e-003
1.120458e+003,8.569790e-003
1.122386e+003,8.350340e-003
1.124315e+003,8.233817e-003
1.126243e+003,8.136198e-003
1.128172e+003,8.151583e-003
1.130100e+003,8.214565e-003
1.132029e+003,8.461723e-003
1.133957e+003,8.817238e-003
1.135885e+003,9.328695e-003
1.137814e+003,9.866083e-003
1.139743e+003,1.058293e-002
1.141671e+003,1.143417e-002
1.143600e+003,1.242483e-002
1.145528e+003,1.352257e-002
1.147457e+003,1.489811e-002
1.149385e+003,1.637910e-002
1.151314e+003,1.776347e-002
1.153242e+003,1.861216e-002
1.155171e+003,1.921531e-002
1.157099e+003,1.985981e-002
1.159028e+003,2.092792e-002
1.160956e+003,2.252459e-002
1.162885e+003,2.490123e-002
1.164813e+003,2.770805e-002
1.166742e+003,2.934405e-002
1.168670e+003,2.726431e-002
1.170599e+003,2.189036e-002
1.172527e+003,1.636976e-002
1.174456e+003,1.267669e-002
1.176384e+003,1.052590e-002
1.178313e+003,9.302337e-003
1.180241e+003,8.527332e-003
1.182170e+003,8.125335e-003
1.184098e+003,7.860140e-003
1.186027e+003,7.743893e-003
1.187955e+003,7.672522e-003
1.189884e+003,7.676336e-003
1.191812e+003,7.626607e-003
1.193740e+003,7.609206e-003
1.195669e+003,7.585318e-003
1.197598e+003,7.646360e-003
1.199526e+003,7.721464e-003
1.201455e+003,7.880934e-003
1.203383e+003,8.007453e-003
1.205312e+003,8.212918e-003
1.207240e+003,8.404593e-003
1.209168e+003,8.674035e-003
1.211097e+003,8.900784e-003
1.213026e+003,9.247904e-003
1.214954e+003,9.640096e-003
1.216883e+003,1.003844e-002
1.218811e+003,1.022359e-002
1.220740e+003,1.018342e-002
1.222668e+003,9.902531e-003
1.224596e+003,9.743357e-003
1.226525e+003,9.602229e-003
1.228453e+003,9.583883e-003
1.230382e+003,9.613529e-003
1.232311e+003,9.642091e-003
1.234239e+003,9.646020e-003
1.236167e+003,9.701908e-003
1.238096e+003,9.649942e-003
1.240025e+003,9.615874e-003
1.241953e+003,9.553718e-003
1.243882e+003,9.557789e-003
1.245810e+003,9.521223e-003
1.247739e+003,9.603954e-003
1.249667e+003,9.803246e-003
1.251595e+003,1.048283e-002
1.253524e+003,1.152467e-002
1.255453e+003,1.192985e-002
1.257381e+003,1.085100e-002
1.259310e+003,9.447465e-003
1.261238e+003,8.434654e-003
1.263167e+003,7.890424e-003
1.265095e+003,7.466182e-003
1.267023e+003,7.224229e-003
1.268952e+003,7.023946e-003
1.270880e+003,6.951665e-003
1.272809e+003,6.859859e-003
1.274738e+003,6.865570e-003
1.276666e+003,6.875256e-003
1.278594e+003,7.004689e-003
1.280523e+003,7.067886e-003
1.282451e+003,7.205855e-003
1.284380e+003,7.317606e-003
1.286308e+003,7.561952e-003
1.288237e+003,7.846287e-003
1.290166e+003,8.344012e-003
1.292094e+003,8.908561e-003
1.294022e+003,9.511380e-003
1.295951e+003,9.814518e-003
1.297879e+003,9.881528e-003
1.299808e+003,1.003934e-002
1.301736e+003,1.106790e-002
1.303665e+003,1.218843e-002
1.305594e+003,1.154275e-002
1.307522e+003,9.401454e-003
1.309450e+003,8.059922e-003
1.311379e+003,7.570945e-003
1.313307e+003,7.573902e-003
1.315236e+003,7.611375e-003
1.317164e+003,7.884300e-003
1.319093e+003,8.090753e-003
1.321021e+003,8.482311e-003
1.322950e+003,8.991539e-003
1.324878e+003,9.795414e-003
1.326807e+003,1.035518e-002
1.328735e+003,1.073456e-002
1.330664e+003,1.047787e-002
1.332592e+003,1.000402e-002
1.334521e+003,9.556446e-003
1.336449e+003,9.575270e-003
1.338378e+003,9.723560e-003
1.340306e+003,1.026972e-002
1.342235e+003,1.065202e-002
1.344163e+003,1.143074e-002
1.346092e+003,1.240413e-002
1.348021e+003,1.393217e-002
1.349949e+003,1.580573e-002
1.351877e+003,1.872470e-002
1.353806e+003,2.284624e-002
1.355734e+003,2.868924e-002
1.357663e+003,3.285706e-002
1.359591e+003,3.315050e-002
1.361520e+003,2.981346e-002
1.363448e+003,2.726816e-002
1.365377e+003,2.734312e-002
1.367305e+003,3.210557e-002
1.369234e+003,4.489265e-002
1.371162e+003,6.788167e-002
1.373091e+003,1.004797e-001
1.375019e+003,1.288878e-001
1.376948e+003,1.144556e-001
1.378876e+003,7.836907e-002
1.380805e+003,4.868035e-002
1.382733e+003,2.981939e-002
1.384662e+003,1.896159e-002
1.386590e+003,1.312661e-002
1.388519e+003,1.020561e-002
1.390447e+003,8.834485e-003
1.392376e+003,8.315881e-003
1.394304e+003,7.899130e-003
1.396233e+003,7.791450e-003
1.398161e+003,7.610016e-003
1.400090e+003,7.715719e-003
1.402018e+003,7.550359e-003
1.403947e+003,7.635970e-003
1.405875e+003,7.685140e-003
1.407804e+003,7.816945e-003
1.409732e+003,7.941477e-003
1.411661e+003,8.256859e-003
1.413589e+003,8.495274e-003
1.415518e+003,8.807364e-003
1.417446e+003,9.116668e-003
1.419375e+003,9.700631e-003
1.421303e+003,1.010065e-002
1.423232e+003,1.066884e-002
1.425160e+003,1.162084e-002
1.427089e+003,1.275656e-002
1.429017e+003,1.499278e-002
1.430946e+003,1.951994e-002
1.432874e+003,2.583191e-002
1.434803e+003,3.090273e-002
1.436731e+003,3.197440e-002
1.438660e+003,3.168906e-002
1.440588e+003,3.398318e-002
1.442517e+003,3.966673e-002
1.444445e+003,4.889842e-002
1.446374e+003,6.020422e-002
1.448302e+003,7.259187e-002
1.450231e+003,7.830207e-002
1.452159e+003,8.011908e-002
1.454088e+003,8.010303e-002
1.456016e+003,8.002343e-002
1.457945e+003,7.725693e-002
1.459873e+003,7.435045e-002
1.461802e+003,7.011430e-002
1.463730e+003,6.373060e-002
1.465659e+003,5.140386e-002
1.467587e+003,4.123555e-002
1.469516e+003,3.269770e-002
1.471444e+003,2.526643e-002
1.473373e+003,1.679450e-002
1.475301e+003,1.299320e-002
1.477230e+003,1.017107e-002
1.479158e+003,8.528225e-003
1.481087e+003,7.251891e-003
1.483015e+003,6.313590e-003
1.484944e+003,5.633845e-003
1.486872e+003,5.324901e-003
1.488801e+003,5.026608e-003
1.490729e+003,4.761387e-003
1.492658e+003,4.462442e-003
1.494586e+003,4.361806e-003
1.496515e+003,4.323287e-003
1.498443e+003,4.311307e-003
1.500372e+003,4.166677e-003
1.502300e+003,4.066396e-003
1.504229e+003,3.956021e-003
1.506157e+003,4.118241e-003
1.508086e+003,4.490898e-003
1.510014e+003,4.452099e-003
1.511943e+003,4.412351e-003
1.513871e+003,4.435996e-003
1.515800e+003,4.509348e-003
1.517728e+003,4.557666e-003
1.519657e+003,4.501563e-003
1.521585e+003,4.705672e-003
1.523514e+003,4.730300e-003
1.525442e+003,4.721208e-003
1.527371e+003,4.749535e-003
1.529299e+003,4.738815e-003
1.531228e+003,4.754421e-003
1.533156e+003,4.994739e-003
1.535085e+003,5.078970e-003
1.537013e+003,5.003367e-003
1.538942e+003,5.140550e-003
1.540870e+003,5.645266e-003
1.542799e+003,5.573163e-003
1.544727e+003,5.493091e-003
1.546656e+003,5.257774e-003
1.548584e+003,5.194073e-003
1.550513e+003,5.160523e-003
1.552441e+003,5.053865e-003
1.554370e+003,4.926879e-003
1.556298e+003,4.869503e-003
1.558227e+003,5.014693e-003
1.560155e+003,4.853731e-003
1.562084e+003,4.465583e-003
1.564012e+003,4.291829e-003
1.565941e+003,4.170045e-003
1.567869e+003,4.125226e-003
1.569798e+003,4.073138e-003
1.571726e+003,3.908678e-003
1.573655e+003,3.809182e-003
1.575583e+003,3.925023e-003
1.577512e+003,3.964771e-003
1.579440e+003,3.800111e-003
1.581369e+003,3.714589e-003
1.583297e+003,3.686654e-003
1.585226e+003,3.709421e-003
1.587154e+003,3.737543e-003
1.589083e+003,3.749308e-003
1.591011e+003,3.782392e-003
1.592940e+003,3.825262e-003
1.594868e+003,3.898964e-003
1.596797e+003,3.948718e-003
1.598725e+003,3.962995e-003
1.600654e+003,4.002173e-003
1.602582e+003,4.081699e-003
1.604511e+003,4.173361e-003
1.606439e+003,4.283629e-003
1.608368e+003,4.419346e-003
1.610296e+003,4.529323e-003
1.612225e+003,4.626417e-003
1.614153e+003,4.718830e-003
1.616082e+003,4.934586e-003
1.618010e+003,5.136124e-003
1.619939e+003,5.169005e-003
1.621867e+003,5.341522e-003
1.623796e+003,5.709510e-003
1.625724e+003,5.854369e-003
1.627653e+003,6.062627e-003
1.629581e+003,6.266396e-003
1.631510e+003,6.356194e-003
1.633438e+003,6.460820e-003
1.635367e+003,6.891576e-003
1.637295e+003,7.307800e-003
1.639224e+003,7.258438e-003
1.641152e+003,7.300307e-003
1.643081e+003,7.439290e-003
1.645009e+003,7.595133e-003
1.646938e+003,7.891048e-003
1.648866e+003,7.876508e-003
1.650795e+003,7.792589e-003
1.652723e+003,8.043362e-003
1.654652e+003,8.193160e-003
1.656580e+003,7.956324e-003
1.658509e+003,7.749271e-003
1.660437e+003,7.578868e-003
1.662366e+003,7.415199e-003
1.664294e+003,7.198310e-003
1.666223e+003,6.929029e-003
1.668151e+003,6.766162e-003
1.670080e+003,6.593349e-003
1.672008e+003,6.367688e-003
1.673937e+003,6.185811e-003
1.675865e+003,6.037340e-003
1.677794e+003,5.747013e-003
1.679722e+003,5.575049e-003
1.681651e+003,5.380121e-003
1.683579e+003,5.158550e-003
1.685508e+003,5.033319e-003
1.687436e+003,4.922091e-003
1.689365e+003,4.721201e-003
1.691293e+003,4.504932e-003
1.693222e+003,4.277739e-003
1.695150e+003,4.227886e-003
1.697079e+003,4.166947e-003
1.699007e+003,3.981401e-003
1.700936e+003,3.842677e-003
1.702864e+003,3.659227e-003
1.704793e+003,3.526238e-003
1.706721e+003,3.467389e-003
1.708650e+003,3.372955e-003
1.710578e+003,3.295966e-003
1.712507e+003,3.205402e-003
1.714435e+003,3.300239e-003
1.716364e+003,3.484011e-003
1.718292e+003,3.720917e-003
1.720221e+003,3.674240e-003
1.722149e+003,3.663031e-003
1.724078e+003,3.793768e-003
1.726006e+003,3.930116e-003
1.727935e+003,4.060438e-003
1.729863e+003,4.339071e-003
1.731792e+003,4.593833e-003
1.733720e+003,5.182598e-003
1.735649e+003,5.797498e-003
1.737577e+003,6.113129e-003
1.739506e+003,7.000678e-003
1.741434e+003,7.909633e-003
1.743363e+003,8.693822e-003
1.745291e+003,9.340580e-003
1.747220e+003,9.636755e-003
1.749148e+003,9.377697e-003
1.751077e+003,8.351031e-003
1.753005e+003,7.014266e-003
1.754934e+003,5.871474e-003
1.756862e+003,4.617805e-003
1.758791e+003,3.562788e-003
1.760719e+003,2.818659e-003
1.762648e+003,2.233684e-003
1.764576e+003,1.896727e-003
1.766505e+003,1.632517e-003
1.768433e+003,1.461150e-003
1.770362e+003,1.375823e-003
1.772290e+003,1.353728e-003
1.774219e+003,1.203508e-003
1.776147e+003,1.106478e-003
1.778076e+003,1.064100e-003
1.780004e+003,1.099812e-003
1.781933e+003,1.051692e-003
1.783861e+003,1.040008e-003
1.785790e+003,1.007739e-003
1.787718e+003,8.959575e-004
1.789646e+003,8.132393e-004
1.791575e+003,8.987137e-004
1.793504e+003,8.238703e-004
1.795432e+003,7.834150e-004
1.797361e+003,7.464588e-004
1.799289e+003,7.264796e-004
1.801218e+003,6.927755e-004
1.803146e+003,6.586788e-004
1.805074e+003,5.430109e-004
1.807003e+003,4.633116e-004
1.808932e+003,4.218612e-004
1.810860e+003,3.565946e-004
1.812789e+003,1.259102e-004
1.814717e+003,-2.777199e-004
1.816646e+003,-4.725643e-004
1.818574e+003,-3.744708e-005
1.820502e+003,1.726984e-004
1.822431e+003,2.399869e-004
1.824360e+003,2.727355e-004
1.826288e+003,2.961424e-004
1.828217e+003,2.339212e-004
1.830145e+003,1.427731e-004
1.832073e+003,3.044493e-005
1.834002e+003,5.854294e-006
1.835931e+003,5.547889e-005
1.837859e+003,1.444020e-004
1.839788e+003,2.815248e-005
1.841716e+003,-8.969568e-005
1.843645e+003,-1.109373e-004
1.845573e+003,8.024322e-005
1.847501e+003,-2.133008e-005
1.849430e+003,-6.966153e-005
1.851359e+003,-1.380066e-004
1.853287e+003,-1.198500e-004
1.855216e+003,-1.986362e-004
1.857144e+003,-1.940536e-004
1.859073e+003,-2.232282e-004
1.861001e+003,-1.442293e-004
1.862929e+003,-1.850780e-004
1.864858e+003,-2.445080e-004
1.866787e+003,-2.768524e-004
1.868715e+003,-1.258142e-004
1.870644e+003,-1.485916e-004
1.872572e+003,-2.700402e-004
1.874500e+003,-5.159923e-004
1.876429e+003,-5.983654e-004
1.878357e+003,-5.712803e-004
1.880286e+003,-4.253536e-004
1.882215e+003,-4.385016e-004
1.884143e+003,-3.470331e-004
1.886072e+003,-2.348055e-004
1.888000e+003,-1.139068e-004
1.889928e+003,-2.266383e-004
1.891857e+003,-2.693445e-004
1.893785e+003,-3.143637e-004
1.895714e+003,-3.844723e-004
1.897643e+003,-5.563898e-004
1.899571e+003,-4.479671e-004
1.901500e+003,-4.362753e-004
1.903428e+003,-4.245914e-004
1.905356e+003,-4.129172e-004
1.907285e+003,-4.012519e-004
1.909213e+003,-3.895951e-004
1.911142e+003,-3.779465e-004
1.913071e+003,-3.663073e-004
1.914999e+003,-3.546765e-004
1.916927e+003,-3.430555e-004
1.918856e+003,-3.314423e-004
1.920784e+003,-3.198390e-004
1.922713e+003,-3.082431e-004
1.924641e+003,-2.966565e-004
1.926570e+003,-2.850783e-004
1.928499e+003,-2.735094e-004
1.930427e+003,-2.619498e-004
1.932355e+003,-2.503991e-004
1.934284e+003,-2.388554e-004
1.936212e+003,-2.273214e-004
1.938141e+003,-2.157968e-004
1.940070e+003,-2.042800e-004
1.941998e+003,-1.927726e-004
1.943927e+003,-1.812745e-004
1.945855e+003,-1.697852e-004
1.947783e+003,-1.583034e-004
1.949712e+003,-1.468314e-004
1.951640e+003,-1.353682e-004
1.953569e+003,-1.239134e-004
1.955498e+003,-1.124670e-004
1.957426e+003,-1.010299e-004
1.959354e+003,-8.960161e-005
1.961283e+003,-7.818267e-005
1.963211e+003,-6.677164e-005
1.965140e+003,-5.536992e-005
1.967068e+003,-4.397659e-005
1.968997e+003,-3.259256e-005
1.970926e+003,-2.121646e-005
1.972854e+003,-9.849668e-006
1.974782e+003,1.507346e-006
1.976711e+003,1.285691e-005
1.978639e+003,2.419762e-005
1.980568e+003,3.552949e-005
1.982496e+003,4.685204e-005
1.984425e+003,5.816622e-005
1.986354e+003,6.947154e-005
1.988282e+003,8.076802e-005
1.990210e+003,9.205565e-005
1.992139e+003,1.033349e-004
1.994067e+003,1.146044e-004
1.995996e+003,1.258655e-004
1.997924e+003,1.371177e-004
1.999853e+003,1.483629e-004
2.001781e+003,1.595970e-004
2.003710e+003,1.708232e-004
2.005638e+003,1.820396e-004
2.007567e+003,1.932494e-004
2.009495e+003,2.044486e-004
2.011424e+003,2.156398e-004
2.013352e+003,2.268227e-004
2.015281e+003,2.379953e-004
2.017209e+003,2.491605e-004
2.019138e+003,2.603154e-004
2.021066e+003,2.714628e-004
2.022995e+003,2.826005e-004
2.024923e+003,2.937303e-004
2.026852e+003,3.048503e-004
2.028781e+003,3.159628e-004
2.030709e+003,3.270665e-004
2.032637e+003,3.381600e-004
2.034566e+003,3.492460e-004
2.036494e+003,3.603227e-004
2.038423e+003,3.713900e-004
2.040351e+003,3.824490e-004
2.042280e+003,3.935006e-004
2.044208e+003,4.045414e-004
2.046137e+003,4.155734e-004
2.048065e+003,4.265974e-004
2.049994e+003,4.376117e-004
2.051922e+003,4.486185e-004
2.053851e+003,4.596179e-004
2.055779e+003,4.706061e-004
2.057708e+003,4.815860e-004
2.059636e+003,4.925570e-004
2.061565e+003,5.035191e-004
2.063493e+003,5.144728e-004
2.065422e+003,5.254173e-004
2.067350e+003,5.363529e-004
2.069279e+003,5.472819e-004
2.071207e+003,5.581994e-004
2.073136e+003,5.691093e-004
2.075064e+003,5.800100e-004
2.076993e+003,5.909023e-004
2.078921e+003,6.017853e-004
2.080850e+003,6.126594e-004
2.082778e+003,6.235242e-004
2.084707e+003,6.343829e-004
2.086635e+003,6.452315e-004
2.088564e+003,6.560702e-004
2.090492e+003,6.669005e-004
2.092421e+003,6.777216e-004
2.094349e+003,6.885347e-004
2.096278e+003,6.993390e-004
2.098206e+003,7.101353e-004
2.100135e+003,7.209224e-004
2.102063e+003,7.316996e-004
2.103992e+003,7.424685e-004
2.105920e+003,7.532286e-004
2.107849e+003,7.639797e-004
2.109777e+003,7.747216e-004
2.111706e+003,7.854560e-004
2.113634e+003,7.961821e-004
2.115563e+003,8.068979e-004
2.117491e+003,8.176062e-004
2.119420e+003,8.283043e-004
2.121348e+003,8.389936e-004
2.123277e+003,8.496745e-004
2.125205e+003,8.603465e-004
2.127134e+003,8.710101e-004
2.129062e+003,8.816663e-004
2.130991e+003,8.923118e-004
2.132919e+003,9.029484e-004
2.134848e+003,9.135767e-004
2.136776e+003,9.241966e-004
2.138705e+003,9.348076e-004
2.140633e+003,9.454088e-004
2.142562e+003,9.560040e-004
2.144490e+003,9.665876e-004
2.146419e+003,9.771632e-004
2.148347e+003,9.877291e-004
2.150276e+003,9.982879e-004
2.152204e+003,1.008837e-003
2.154133e+003,1.019377e-003
2.156061e+003,1.029910e-003
2.157990e+003,1.040433e-003
2.159918e+003,1.050946e-003
2.161847e+003,1.061451e-003
2.163775e+003,1.071948e-003
2.165704e+003,1.082435e-003
2.167632e+003,1.092914e-003
2.169561e+003,1.103383e-003
2.171489e+003,1.113845e-003
2.173418e+003,1.124299e-003
2.175346e+003,1.134743e-003
2.177275e+003,1.145177e-003
2.179203e+003,1.155604e-003
2.181132e+003,1.166021e-003
2.183060e+003,1.176429e-003
2.184989e+003,1.186828e-003
2.186917e+003,1.197221e-003
2.188846e+003,1.207603e-003
2.190774e+003,1.217976e-003
2.192703e+003,1.228340e-003
2.194631e+003,1.238696e-003
2.196560e+003,1.249043e-003
2.198488e+003,1.259381e-003
2.200417e+003,1.269712e-003
2.202345e+003,1.280033e-003
2.204274e+003,1.290344e-003
2.206202e+003,1.300647e-003
2.208131e+003,1.310942e-003
2.210059e+003,1.321227e-003
2.211988e+003,1.331503e-003
2.213916e+003,1.341771e-003
2.215845e+003,1.352029e-003
2.217773e+003,1.362281e-003
2.219702e+003,1.372523e-003
2.221630e+003,1.382755e-003
2.223559e+003,1.392979e-003
2.225487e+003,1.403194e-003
2.227416e+003,1.413401e-003
2.229344e+003,1.423598e-003
2.231273e+003,1.433789e-003
2.233201e+003,1.443968e-003
2.235130e+003,1.454139e-003
2.237058e+003,1.464302e-003
2.238987e+003,1.474455e-003
2.240915e+003,1.484599e-003
2.242844e+003,1.494735e-003
2.244772e+003,1.504864e-003
2.246701e+003,1.514982e-003
2.248629e+003,1.525091e-003
2.250558e+003,1.535193e-003
2.252486e+003,1.545285e-003
2.254415e+003,1.555368e-003
2.256343e+003,1.565442e-003
2.258272e+003,1.575507e-003
2.260200e+003,1.585565e-003
2.262129e+003,1.595614e-003
2.264057e+003,1.605653e-003
2.265986e+003,1.615684e-003
2.267914e+003,1.625706e-003
2.269843e+003,1.635718e-003
2.271771e+003,1.645722e-003
2.273700e+003,1.655718e-003
2.275628e+003,1.665705e-003
2.277557e+003,1.675684e-003
2.279485e+003,1.685653e-003
2.281414e+003,1.695612e-003
2.283342e+003,1.705564e-003
2.285271e+003,1.715505e-003
2.287199e+003,1.725439e-003
2.289128e+003,1.735366e-003
2.291056e+003,1.745282e-003
2.292985e+003,1.755189e-003
2.294913e+003,1.765088e-003
2.296842e+003,1.774977e-003
2.298770e+003,1.784859e-003
2.300699e+003,1.794731e-003
2.302627e+003,1.804596e-003
2.304556e+003,1.814451e-003
2.306484e+003,1.824296e-003
2.308413e+003,1.834133e-003
2.310341e+003,1.843962e-003
2.312270e+003,1.853781e-003
2.314198e+003,1.863592e-003
2.316127e+003,1.873393e-003
2.318055e+003,1.883186e-003
2.319984e+003,1.892972e-003
2.321912e+003,1.902748e-003
2.323841e+003,1.912515e-003
2.325769e+003,1.922273e-003
2.327698e+003,1.932021e-003
2.329626e+003,1.941762e-003
2.331555e+003,1.951494e-003
2.333483e+003,1.961218e-003
2.335412e+003,1.970932e-003
2.337340e+003,1.980636e-003
2.339269e+003,1.990333e-003
2.341197e+003,2.000021e-003
2.343126e+003,2.009700e-003
2.345054e+003,2.019370e-003
2.346983e+003,2.029032e-003
2.348911e+003,2.038685e-003
2.350840e+003,2.048329e-003
2.352768e+003,2.057963e-003
2.354697e+003,2.067590e-003
2.356625e+003,2.077206e-003
2.358554e+003,2.086815e-003
2.360482e+003,2.096415e-003
2.362411e+003,2.106006e-003
2.364339e+003,2.115590e-003
2.366268e+003,2.125163e-003
2.368196e+003,2.134727e-003
2.370125e+003,2.144282e-003
2.372053e+003,2.153829e-003
2.373982e+003,2.163368e-003
2.375910e+003,2.172898e-003
2.377839e+003,2.182420e-003
2.379767e+003,2.191931e-003
2.381696e+003,2.201433e-003
2.383624e+003,2.210928e-003
2.385553e+003,2.220414e-003
2.387481e+003,2.229890e-003
2.389410e+003,2.239359e-003
2.391338e+003,2.248819e-003
2.393267e+003,2.258269e-003
2.395195e+003,2.267710e-003
2.397124e+003,2.277142e-003
2.399052e+003,2.286567e-003
2.400981e+003,2.369250e-003
2.402909e+003,2.319526e-003
2.404838e+003,2.227752e-003
2.406766e+003,2.350604e-003
2.408695e+003,2.698418e-003
2.410623e+003,2.862177e-003
2.412552e+003,2.870562e-003
2.414480e+003,2.739989e-003
2.416409e+003,2.575926e-003
2.418337e+003,2.593922e-003
2.420266e+003,2.791184e-003
2.422194e+003,2.924461e-003
2.424123e+003,2.985304e-003
2.426051e+003,2.916651e-003
2.427979e+003,2.976501e-003
2.429908e+003,3.094870e-003
2.431837e+003,3.228799e-003
2.433765e+003,3.063095e-003
2.435694e+003,2.901537e-003
2.437622e+003,2.931130e-003
2.439551e+003,3.095631e-003
2.441479e+003,3.004869e-003
2.443407e+003,3.092516e-003
2.445336e+003,3.271583e-003
2.447265e+003,3.285476e-003
2.449193e+003,3.238747e-003
2.451122e+003,3.265480e-003
2.453050e+003,3.258434e-003
2.454979e+003,3.323960e-003
2.456907e+003,3.348150e-003
2.458836e+003,3.297016e-003
2.460764e+003,3.160101e-003
2.462693e+003,3.117864e-003
2.464621e+003,3.075383e-003
2.466550e+003,3.028370e-003
2.468478e+003,3.060275e-003
2.470406e+003,3.105273e-003
2.472335e+003,2.961223e-003
2.474264e+003,2.853358e-003
2.476192e+003,2.973521e-003
2.478121e+003,3.037511e-003
2.480049e+003,3.064846e-003
2.481978e+003,3.145587e-003
2.483906e+003,3.179004e-003
2.485835e+003,3.318729e-003
2.487763e+003,3.341323e-003
2.489692e+003,3.318882e-003
2.491620e+003,3.399164e-003
2.493549e+003,3.390132e-003
2.495477e+003,3.218959e-003
2.497406e+003,3.226038e-003
2.499334e+003,3.188470e-003
2.501263e+003,3.276413e-003
2.503191e+003,3.367245e-003
2.505120e+003,3.363426e-003
2.507048e+003,3.353380e-003
2.508977e+003,3.458379e-003
2.510905e+003,3.512207e-003
2.512833e+003,3.441093e-003
2.514762e+003,3.586418e-003
2.516691e+003,3.764310e-003
2.518619e+003,3.661391e-003
2.520548e+003,3.659769e-003
2.522476e+003,3.839360e-003
2.524405e+003,3.859301e-003
2.526333e+003,3.871480e-003
2.528261e+003,4.131103e-003
2.530190e+003,4.207090e-003
2.532119e+003,4.183410e-003
2.534047e+003,4.275732e-003
2.535976e+003,4.463543e-003
2.537904e+003,4.400269e-003
2.539833e+003,4.492769e-003
2.541761e+003,4.581995e-003
2.543689e+003,4.600647e-003
2.545618e+003,4.642840e-003
2.547547e+003,4.886623e-003
2.549475e+003,5.122272e-003
2.551404e+003,5.217501e-003
2.553332e+003,5.299434e-003
2.555260e+003,5.342519e-003
2.557189e+003,5.255238e-003
2.559117e+003,5.350973e-003
2.561046e+003,5.490361e-003
2.562975e+003,5.680733e-003
2.564903e+003,5.947333e-003
2.566832e+003,6.066681e-003
2.568760e+003,6.161480e-003
2.570688e+003,6.402724e-003
2.572617e+003,6.571174e-003
2.574546e+003,6.781698e-003
2.576474e+003,7.066653e-003
2.578403e+003,7.404626e-003
2.580331e+003,7.629253e-003
2.582260e+003,7.517207e-003
2.584188e+003,7.370115e-003
2.586116e+003,7.258831e-003
2.588045e+003,7.147810e-003
2.589974e+003,7.058780e-003
2.591902e+003,6.919689e-003
2.593831e+003,6.851229e-003
2.595759e+003,6.848757e-003
2.597688e+003,6.906579e-003
2.599616e+003,7.032166e-003
2.601544e+003,7.239307e-003
2.603473e+003,7.378523e-003
2.605402e+003,7.499926e-003
2.607330e+003,7.823910e-003
2.609259e+003,8.086918e-003
2.611187e+003,8.224746e-003
2.613115e+003,8.430548e-003
2.615044e+003,8.547217e-003
2.616972e+003,8.541910e-003
2.618901e+003,8.592721e-003
2.620830e+003,8.724436e-003
2.622758e+003,8.768462e-003
2.624687e+003,8.771958e-003
2.626615e+003,8.844025e-003
2.628543e+003,8.858676e-003
2.630472e+003,8.896492e-003
2.632400e+003,8.983277e-003
2.634329e+003,9.003585e-003
2.636258e+003,9.097368e-003
2.638186e+003,9.216638e-003
2.640115e+003,9.411791e-003
2.642043e+003,9.596851e-003
2.643971e+003,9.705977e-003
2.645900e+003,9.794430e-003
2.647828e+003,9.902058e-003
2.649757e+003,1.008034e-002
2.651686e+003,1.026772e-002
2.653614e+003,1.038583e-002
2.655542e+003,1.046745e-002
2.657471e+003,1.053307e-002
2.659399e+003,1.049872e-002
2.661328e+003,1.026513e-002
2.663256e+003,9.970502e-003
2.665185e+003,9.703735e-003
2.667114e+003,9.571412e-003
2.669042e+003,9.576198e-003
2.670970e+003,9.638992e-003
2.672899e+003,9.722176e-003
2.674827e+003,9.783786e-003
2.676756e+003,9.800727e-003
2.678685e+003,9.793534e-003
2.680613e+003,9.782162e-003
2.682542e+003,9.748019e-003
2.684470e+003,9.760756e-003
2.686398e+003,9.801224e-003
2.688327e+003,9.849327e-003
2.690255e+003,9.893054e-003
2.692184e+003,9.905585e-003
2.694113e+003,9.962692e-003
2.696041e+003,1.007147e-002
2.697969e+003,1.017930e-002
2.699898e+003,1.027765e-002
2.701826e+003,1.044257e-002
2.703755e+003,1.067916e-002
2.705683e+003,1.099526e-002
2.707612e+003,1.128278e-002
2.709541e+003,1.157314e-002
2.711469e+003,1.197786e-002
2.713397e+003,1.259279e-002
2.715326e+003,1.328260e-002
2.717254e+003,1.394708e-002
2.719183e+003,1.463066e-002
2.721111e+003,1.515314e-002
2.723040e+003,1.518555e-002
2.724969e+003,1.476242e-002
2.726897e+003,1.409567e-002
2.728825e+003,1.350326e-002
2.730754e+003,1.308827e-002
2.732682e+003,1.280122e-002
2.734611e+003,1.256231e-002
2.736539e+003,1.228076e-002
2.738468e+003,1.193070e-002
2.740396e+003,1.167095e-002
2.742325e+003,1.146821e-002
2.744253e+003,1.135344e-002
2.746182e+003,1.128296e-002
2.748110e+003,1.126742e-002
2.750039e+003,1.129554e-002
2.751967e+003,1.136889e-002
2.753896e+003,1.145744e-002
2.755824e+003,1.161226e-002
2.757753e+003,1.181430e-002
2.759681e+003,1.204712e-002
2.761610e+003,1.226624e-002
2.763538e+003,1.249202e-002
2.765467e+003,1.270358e-002
2.767395e+003,1.284681e-002
2.769324e+003,1.303121e-002
2.771252e+003,1.330707e-002
2.773181e+003,1.363152e-002
2.775109e+003,1.396950e-002
2.777038e+003,1.430680e-002
2.778966e+003,1.471771e-002
2.780895e+003,1.524163e-002
2.782823e+003,1.586858e-002
2.784752e+003,1.663265e-002
2.786680e+003,1.747005e-002
2.788609e+003,1.828793e-002
2.790537e+003,1.914828e-002
2.792466e+003,1.999212e-002
2.794394e+003,2.066884e-002
2.796323e+003,2.122829e-002
2.798251e+003,2.184488e-002
2.800180e+003,2.268093e-002
2.802108e+003,2.389731e-002
2.804037e+003,2.537936e-002
2.805965e+003,2.697023e-002
2.807894e+003,2.842065e-002
2.809822e+003,2.972655e-002
2.811751e+003,3.101661e-002
2.813679e+003,3.240099e-002
2.815608e+003,3.402932e-002
2.817536e+003,3.612360e-002
2.819465e+003,3.872664e-002
2.821393e+003,4.197458e-002
2.823322e+003,4.612976e-002
2.825250e+003,5.170905e-002
2.827179e+003,5.957491e-002
2.829107e+003,7.116377e-002
2.831036e+003,8.808997e-002
2.832964e+003,1.101058e-001
2.834893e+003,1.323415e-001
2.836821e+003,1.463271e-001
2.838750e+003,1.468754e-001
2.840678e+003,1.353772e-001
2.842607e+003,1.174395e-001
2.844535e+003,9.923632e-002
2.846464e+003,8.462931e-002
2.848392e+003,7.461207e-002
2.850321e+003,6.855401e-002
2.852249e+003,6.568272e-002
2.854178e+003,6.586425e-002
2.856106e+003,6.969307e-002
2.858035e+003,7.847167e-002
2.859963e+003,9.384742e-002
2.861892e+003,1.153468e-001
2.863820e+003,1.362385e-001
2.865749e+003,1.468387e-001
2.867677e+003,1.455673e-001
2.869606e+003,1.392854e-001
2.871534e+003,1.341104e-001
2.873463e+003,1.327152e-001
2.875391e+003,1.346649e-001
2.877320e+003,1.361834e-001
2.879248e+003,1.343146e-001
2.881177e+003,1.303555e-001
2.883105e+003,1.267658e-001
2.885034e+003,1.243419e-001
2.886962e+003,1.230756e-001
2.888891e+003,1.230298e-001
2.890819e+003,1.248699e-001
2.892748e+003,1.293214e-001
2.894676e+003,1.369095e-001
2.896605e+003,1.476146e-001
2.898533e+003,1.607486e-001
2.900462e+003,1.752101e-001
2.902390e+003,1.901771e-001
2.904319e+003,2.045677e-001
2.906247e+003,2.171582e-001
2.908176e+003,2.283081e-001
2.910104e+003,2.413252e-001
2.912033e+003,2.601029e-001
2.913961e+003,2.827881e-001
2.915890e+003,2.989711e-001
2.917818e+003,2.977650e-001
2.919747e+003,2.806066e-001
2.921675e+003,2.581114e-001
2.923604e+003,2.366619e-001
2.925532e+003,2.152650e-001
2.927461e+003,1.917211e-001
2.929389e+003,1.670829e-001
2.931318e+003,1.445411e-001
2.933246e+003,1.268357e-001
2.935175e+003,1.152903e-001
2.937103e+003,1.106509e-001
2.939032e+003,1.140394e-001
2.940960e+003,1.272970e-001
2.942889e+003,1.513003e-001
2.944817e+003,1.834893e-001
2.946746e+003,2.157790e-001
2.948674e+003,2.355808e-001
2.950603e+003,2.338240e-001
2.952531e+003,2.152387e-001
2.954460e+003,1.949873e-001
2.956388e+003,1.842114e-001
2.958317e+003,1.821379e-001
2.960245e+003,1.789836e-001
2.962174e+003,1.651631e-001
2.964102e+003,1.421825e-001
2.966031e+003,1.179032e-001
2.967959e+003,9.590131e-002
2.969888e+003,7.644580e-002
2.971816e+003,5.994128e-002
2.973745e+003,4.663128e-002
2.975673e+003,3.632487e-002
2.977602e+003,2.847383e-002
2.979530e+003,2.244947e-002
2.981459e+003,1.785322e-002
2.983387e+003,1.438991e-002
2.985316e+003,1.172263e-002
2.987244e+003,9.585727e-003
2.989173e+003,7.914312e-003
2.991101e+003,6.589255e-003
2.993030e+003,5.539989e-003
2.994958e+003,4.720264e-003
2.996887e+003,4.024911e-003
2.998815e+003,3.573108e-003
3.000744e+003,3.192603e-003
3.002672e+003,2.871325e-003
3.004601e+003,2.566172e-003
3.006529e+003,2.247429e-003
3.008458e+003,1.972160e-003
3.010386e+003,1.791894e-003
3.012315e+003,1.589284e-003
3.014243e+003,1.297075e-003
3.016172e+003,1.033643e-003
3.018100e+003,8.971347e-004
3.020029e+003,7.937169e-004
3.021957e+003,6.599138e-004
3.023886e+003,6.594341e-004
3.025814e+003,6.882297e-004
3.027743e+003,6.040996e-004
3.029671e+003,5.566562e-004
3.031600e+003,4.987270e-004
3.033528e+003,4.828256e-004
3.035457e+003,5.490324e-004
3.037385e+003,5.349508e-004
3.039314e+003,5.129352e-004
3.041242e+003,5.039731e-004
3.043171e+003,5.389573e-004
3.045099e+003,6.694943e-004
3.047028e+003,7.158043e-004
3.048956e+003,7.632868e-004
3.050885e+003,8.666208e-004
3.052813e+003,9.377860e-004
3.054742e+003,9.055492e-004
3.056670e+003,9.678379e-004
3.058599e+003,1.006924e-003
3.060527e+003,1.033794e-003
3.062456e+003,1.051289e-003
3.064384e+003,1.140398e-003
3.066313e+003,1.181408e-003
3.068241e+003,1.084087e-003
3.070170e+003,1.046695e-003
3.072098e+003,1.099695e-003
3.074027e+003,1.159837e-003
3.075955e+003,1.246441e-003
3.077884e+003,1.244782e-003
3.079812e+003,1.233138e-003
3.081741e+003,1.253057e-003
3.083669e+003,1.281436e-003
3.085598e+003,1.363000e-003
3.087526e+003,1.351473e-003
3.089455e+003,1.328166e-003
3.091383e+003,1.402666e-003
3.093312e+003,1.438010e-003
3.095240e+003,1.520623e-003
3.097169e+003,1.580583e-003
3.099097e+003,1.562167e-003
3.101026e+003,1.584933e-003
3.102954e+003,1.667512e-003
3.104883e+003,1.694816e-003
3.106811e+003,1.702748e-003
3.108740e+003,1.796749e-003
3.110668e+003,1.966403e-003
3.112597e+003,1.928333e-003
3.114525e+003,1.876373e-003
3.116454e+003,1.943423e-003
3.118382e+003,2.045552e-003
3.120311e+003,2.075779e-003
3.122239e+003,2.130757e-003
3.124168e+003,2.245917e-003
3.126096e+003,2.313696e-003
3.128025e+003,2.381657e-003
3.129953e+003,2.473544e-003
3.131882e+003,2.575486e-003
3.133810e+003,2.637126e-003
3.135739e+003,2.624955e-003
3.137667e+003,2.714580e-003
3.139596e+003,2.781647e-003
3.141524e+003,2.823906e-003
3.143453e+003,2.898781e-003
3.145381e+003,2.944515e-003
3.147310e+003,2.946007e-003
3.149238e+003,3.034973e-003
3.151167e+003,3.166184e-003
3.153095e+003,3.220286e-003
3.155024e+003,3.153352e-003
3.156952e+003,3.036942e-003
3.158881e+003,3.028622e-003
3.160809e+003,3.176039e-003
3.162738e+003,3.247189e-003
3.164666e+003,3.253451e-003
3.166594e+003,3.311592e-003
3.168523e+003,3.357614e-003
3.170452e+003,3.357251e-003
3.172380e+003,3.484918e-003
3.174309e+003,3.643209e-003
3.176237e+003,3.674861e-003
3.178166e+003,3.708031e-003
3.180094e+003,3.769103e-003
3.182022e+003,3.838436e-003
3.183951e+003,3.970579e-003
3.185880e+003,4.052792e-003
3.187808e+003,4.039441e-003
3.189737e+003,4.128612e-003
3.191665e+003,4.194822e-003
3.193594e+003,4.111304e-003
3.195522e+003,4.072688e-003
3.197450e+003,4.186236e-003
3.199379e+003,4.329255e-003
3.201308e+003,4.317338e-003
3.203236e+003,4.235731e-003
3.205165e+003,4.292253e-003
3.207093e+003,4.295609e-003
3.209021e+003,4.320434e-003
3.210950e+003,4.326590e-003
3.212878e+003,4.222337e-003
3.214807e+003,4.169369e-003
3.216736e+003,4.172940e-003
3.218664e+003,4.197395e-003
3.220593e+003,4.114337e-003
3.222521e+003,3.979432e-003
3.224449e+003,3.949101e-003
3.226378e+003,3.968799e-003
3.228307e+003,3.946180e-003
3.230235e+003,3.876741e-003
3.232164e+003,3.825806e-003
3.234092e+003,3.918679e-003
3.236021e+003,3.895509e-003
3.237949e+003,3.867215e-003
3.239877e+003,3.978030e-003
3.241806e+003,4.106222e-003
3.243735e+003,4.116494e-003
3.245663e+003,4.184322e-003
3.247592e+003,4.150521e-003
3.249520e+003,4.141243e-003
3.251448e+003,4.200040e-003
3.253377e+003,4.371463e-003
3.255305e+003,4.501811e-003
3.257234e+003,4.521675e-003
3.259163e+003,4.581803e-003
3.261091e+003,4.734983e-003
3.263020e+003,4.729550e-003
3.264948e+003,4.745630e-003
3.266876e+003,4.892826e-003
3.268805e+003,4.997967e-003
3.270733e+003,5.073991e-003
3.272662e+003,5.247181e-003
3.274591e+003,5.381110e-003
3.276519e+003,5.411077e-003
3.278448e+003,5.394963e-003
3.280376e+003,5.381894e-003
3.282304e+003,5.410017e-003
3.284233e+003,5.413090e-003
3.286161e+003,5.449280e-003
3.288090e+003,5.533730e-003
3.290019e+003,5.644389e-003
3.291947e+003,5.607436e-003
3.293875e+003,5.510096e-003
3.295804e+003,5.494858e-003
3.297732e+003,5.453753e-003
3.299661e+003,5.554139e-003
3.301589e+003,5.548052e-003
3.303518e+003,5.572147e-003
3.305447e+003,5.605891e-003
3.307375e+003,5.583621e-003
3.309303e+003,5.527071e-003
3.311232e+003,5.474883e-003
3.313160e+003,5.522925e-003
3.315089e+003,5.497297e-003
3.317018e+003,5.382549e-003
3.318946e+003,5.390357e-003
3.320875e+003,5.373702e-003
3.322803e+003,5.292377e-003
3.324731e+003,5.251803e-003
3.326660e+003,5.271656e-003
3.328588e+003,5.335434e-003
3.330517e+003,5.303040e-003
3.332446e+003,5.216151e-003
3.334374e+003,5.301525e-003
3.336302e+003,5.431904e-003
3.338231e+003,5.464731e-003
3.340159e+003,5.398602e-003
3.342088e+003,5.364171e-003
3.344016e+003,5.384228e-003
3.345945e+003,5.428717e-003
3.347874e+003,5.374262e-003
3.349802e+003,5.244816e-003
3.351730e+003,5.220704e-003
3.353659e+003,5.143671e-003
3.355587e+003,5.132826e-003
3.357516e+003,5.171532e-003
3.359444e+003,5.099712e-003
3.361373e+003,5.006200e-003
3.363302e+003,4.886235e-003
3.365230e+003,4.813327e-003
3.367158e+003,4.714186e-003
3.369087e+003,4.685177e-003
3.371015e+003,4.753039e-003
3.372944e+003,4.649720e-003
3.374872e+003,4.522565e-003
3.376801e+003,4.517417e-003
3.378729e+003,4.513045e-003
3.380658e+003,4.490561e-003
3.382586e+003,4.416767e-003
3.384515e+003,4.391127e-003
3.386443e+003,4.337350e-003
3.388372e+003,4.320581e-003
3.390300e+003,4.332935e-003
3.392229e+003,4.316919e-003
3.394157e+003,4.228878e-003
3.396086e+003,4.125961e-003
3.398014e+003,4.105912e-003
3.399943e+003,4.067407e-003
3.401871e+003,4.061742e-003
3.403800e+003,4.153312e-003
3.405728e+003,4.180145e-003
3.407657e+003,4.128108e-003
3.409585e+003,4.050456e-003
3.411514e+003,3.968830e-003
3.413442e+003,4.002207e-003
3.415371e+003,4.012078e-003
3.417299e+003,3.917470e-003
3.419228e+003,3.877648e-003
3.421156e+003,3.870275e-003
3.423085e+003,3.896551e-003
3.425013e+003,3.726142e-003
3.426942e+003,3.536297e-003
3.428870e+003,3.492222e-003
3.430799e+003,3.506605e-003
3.432727e+003,3.537525e-003
3.434656e+003,3.538840e-003
3.436584e+003,3.495096e-003
3.438513e+003,3.457161e-003
3.440441e+003,3.414458e-003
3.442370e+003,3.307703e-003
3.444298e+003,3.226392e-003
3.446227e+003,3.356437e-003
3.448155e+003,3.322897e-003
3.450084e+003,3.165185e-003
3.452012e+003,3.065242e-003
3.453941e+003,3.032852e-003
3.455869e+003,3.021099e-003
3.457798e+003,2.870150e-003
3.459726e+003,2.895174e-003
3.461655e+003,2.974493e-003
3.463583e+003,2.873846e-003
3.465512e+003,2.758143e-003
3.467440e+003,2.735378e-003
3.469369e+003,2.635351e-003
3.471297e+003,2.573265e-003
3.473226e+003,2.549415e-003
3.475154e+003,2.429829e-003
3.477083e+003,2.331843e-003
3.479011e+003,2.344653e-003
3.480940e+003,2.400279e-003
3.482868e+003,2.359937e-003
3.484797e+003,2.272038e-003
3.486725e+003,2.165510e-003
3.488654e+003,2.171819e-003
3.490582e+003,2.105467e-003
3.492511e+003,1.999713e-003
3.494439e+003,1.931323e-003
3.496368e+003,1.940759e-003
3.498296e+003,1.927992e-003
3.500225e+003,1.837562e-003
3.502153e+003,1.882509e-003
3.504082e+003,1.927620e-003
3.506010e+003,1.817579e-003
3.507939e+003,1.693943e-003
3.509867e+003,1.568884e-003
3.511796e+003,1.512424e-003
3.513724e+003,1.529598e-003
3.515653e+003,1.583894e-003
3.517581e+003,1.528152e-003
3.519510e+003,1.331882e-003
3.521438e+003,1.257828e-003
3.523367e+003,1.291349e-003
3.525295e+003,1.301004e-003
3.527224e+003,1.410910e-003
3.529152e+003,1.437011e-003
3.531081e+003,1.368791e-003
3.533009e+003,1.120930e-003
3.534938e+003,9.247577e-004
3.536866e+003,8.828370e-004
3.538795e+003,7.514348e-004
3.540723e+003,7.278062e-004
3.542652e+003,7.045027e-004
3.544580e+003,6.965511e-004
3.546509e+003,7.636482e-004
3.548437e+003,6.512273e-004
3.550366e+003,5.908348e-004
3.552294e+003,7.321993e-004
3.554223e+003,5.646320e-004
3.556151e+003,3.706645e-004
3.558080e+003,3.355080e-004
3.560008e+003,2.873577e-004
3.561937e+003,8.509587e-005
3.563865e+003,-4.153699e-006
3.565794e+003,3.607078e-004
3.567722e+003,7.615415e-004
3.569651e+003,3.639655e-004
3.571579e+003,-7.708836e-005
3.573508e+003,-2.990263e-004
3.575436e+003,-2.776114e-004
3.577365e+003,-2.166713e-004
3.579293e+003,-1.683282e-004
3.581222e+003,-1.569754e-004
3.583150e+003,-3.010314e-004
3.585079e+003,-3.771838e-004
3.587007e+003,-7.607788e-005
3.588936e+003,-1.495760e-004
3.590864e+003,-5.281596e-004
3.592793e+003,-5.608620e-004
3.594721e+003,-4.776455e-004
3.596650e+003,-3.865417e-004
3.598578e+003,-2.133353e-004
3.600507e+003,-5.494338e-005
3.602435e+003,-1.435261e-004
3.604364e+003,-4.196810e-004
3.606292e+003,-5.445164e-004
3.608221e+003,-2.720132e-004
3.610149e+003,-3.821086e-004
3.612078e+003,-3.537405e-004
3.614006e+003,-1.675012e-004
3.615935e+003,-5.173236e-004
3.617863e+003,-3.879750e-004
3.619792e+003,1.319172e-004
3.621720e+003,-1.377827e-004
3.623649e+003,-5.724989e-004
3.625577e+003,-9.348961e-004
3.627506e+003,-6.467290e-004
3.629434e+003,2.798326e-004
3.631363e+003,-2.349680e-004
3.633291e+003,-5.192719e-004
3.635220e+003,-5.854433e-004
3.637148e+003,-6.032763e-004
3.639077e+003,-6.034076e-004
3.641005e+003,-6.130189e-004
3.642934e+003,-8.194996e-004
3.644862e+003,-1.174106e-003
3.646791e+003,-8.874098e-004
3.648719e+003,4.422665e-004
3.650648e+003,9.165425e-004
3.652576e+003,-9.943824e-005
3.654505e+003,-7.478679e-004
3.656433e+003,-7.018913e-004
3.658362e+003,-7.932773e-004
3.660290e+003,-9.011198e-004
3.662219e+003,-8.295150e-004
3.664147e+003,-7.793484e-004
3.666076e+003,-1.023091e-003
3.668004e+003,-1.122964e-003
3.669933e+003,-4.005618e-004
3.671861e+003,-4.926659e-004
3.673790e+003,-6.620772e-004
3.675718e+003,4.129484e-006
3.677647e+003,-2.618395e-004
3.679575e+003,-2.734251e-004
3.681504e+003,-3.893198e-004
3.683432e+003,-6.046239e-004
3.685361e+003,-8.472977e-004
3.687289e+003,-8.142125e-004
3.689218e+003,-6.803311e-005
3.691146e+003,1.351377e-004
3.693075e+003,-1.261504e-004
3.695003e+003,-3.743619e-004
3.696932e+003,-3.465042e-004
3.698860e+003,-4.991787e-004
3.700789e+003,-5.585421e-004
3.702717e+003,-4.048664e-004
3.704646e+003,-6.155400e-004
3.706574e+003,-7.347874e-004
3.708503e+003,-5.832175e-004
3.710431e+003,-1.190994e-004
3.712360e+003,1.845369e-004
3.714288e+003,-2.272828e-004
3.716217e+003,-6.250516e-004
3.718145e+003,-5.740216e-004
3.720074e+003,-4.226500e-004
3.722002e+003,-1.362208e-004
3.723931e+003,-6.521586e-005
3.725859e+003,6.231759e-005
3.727788e+003,-1.427038e-004
3.729716e+003,-4.738625e-004
3.731645e+003,-4.273206e-004
3.733573e+003,2.345722e-005
3.735502e+003,8.467603e-004
3.737430e+003,9.186715e-004
3.739359e+003,4.775980e-004
3.741287e+003,7.988978e-005
3.743216e+003,3.430210e-004
3.745144e+003,1.058691e-003
3.747073e+003,4.119240e-004
3.749001e+003,2.288399e-004
3.750930e+003,1.030931e-003
3.752858e+003,1.013588e-003
3.754787e+003,4.879311e-004
3.756715e+003,3.039809e-004
3.758644e+003,4.778374e-004
3.760572e+003,6.707208e-004
3.762501e+003,2.619540e-004
3.764429e+003,2.916390e-004
3.766358e+003,3.490131e-004
3.768286e+003,1.505744e-004
3.770215e+003,5.562007e-004
3.772143e+003,4.619043e-004
3.774072e+003,8.442067e-005
3.776000e+003,-9.060558e-005
3.777929e+003,5.535688e-005
3.779857e+003,3.361171e-004
3.781786e+003,1.322525e-004
3.783714e+003,1.315381e-004
3.785643e+003,3.122920e-004
3.787571e+003,3.527012e-005
3.789500e+003,-1.228526e-004
3.791428e+003,9.483472e-005
3.793357e+003,-1.658965e-005
3.795285e+003,-6.275903e-005
3.797214e+003,1.116842e-004
3.799142e+003,-1.662830e-004
3.801071e+003,3.221873e-004
3.802999e+003,3.677383e-004
3.804927e+003,-6.853603e-006
3.806856e+003,6.219223e-004
3.808785e+003,6.033350e-004
3.810713e+003,2.396721e-004
3.812642e+003,1.290347e-005
3.814570e+003,-7.440429e-005
3.816499e+003,3.827168e-004
3.818427e+003,1.551304e-004
3.820355e+003,4.159296e-004
3.822284e+003,9.477753e-004
3.824213e+003,4.448500e-004
3.826141e+003,3.739269e-004
3.828070e+003,3.205659e-004
3.829998e+003,-7.741153e-006
3.831927e+003,1.219548e-004
3.833855e+003,3.024759e-004
3.835783e+003,2.070814e-004
3.837712e+003,2.985206e-004
3.839641e+003,5.764645e-004
3.841569e+003,5.749315e-004
3.843498e+003,6.461656e-004
3.845426e+003,4.530754e-004
3.847354e+003,-1.350790e-005
3.849283e+003,-3.109938e-004
3.851211e+003,-3.277790e-004
3.853140e+003,8.731494e-004
3.855069e+003,1.218114e-003
3.856997e+003,7.712441e-004
3.858926e+003,3.366647e-004
3.860854e+003,1.303954e-004
3.862782e+003,1.356751e-004
3.864711e+003,6.022714e-004
3.866640e+003,2.425350e-004
3.868568e+003,1.569400e-004
3.870497e+003,9.351252e-004
3.872425e+003,7.275296e-004
3.874354e+003,7.550949e-004
3.876282e+003,3.864560e-004
3.878210e+003,5.118456e-005
3.880139e+003,4.666913e-004
3.882068e+003,4.935125e-004
3.883996e+003,3.913110e-004
3.885925e+003,8.795829e-004
3.887853e+003,4.644059e-004
3.889781e+003,2.356553e-004
3.891710e+003,6.552497e-004
3.893638e+003,5.438710e-004
3.895567e+003,8.809566e-005
3.897496e+003,-9.104516e-005
3.899424e+003,6.040931e-005
3.901353e+003,2.409415e-004
3.903281e+003,6.130170e-004
3.905209e+003,1.024021e-003
3.907138e+003,7.497789e-004
3.909066e+003,2.964772e-004
3.910995e+003,1.208140e-004
3.912924e+003,2.741534e-005
3.914852e+003,7.285457e-005
3.916781e+003,3.212998e-004
3.918709e+003,3.737342e-004
3.920637e+003,4.526637e-004
3.922566e+003,5.142465e-004
3.924494e+003,4.993556e-004
3.926423e+003,2.590604e-004
3.928352e+003,1.011835e-004
3.930280e+003,1.391973e-004
3.932208e+003,3.330950e-004
3.934137e+003,3.233077e-004
3.936065e+003,1.736721e-004
3.937994e+003,1.889039e-004
3.939922e+003,7.720198e-005
3.941851e+003,3.760317e-004
3.943780e+003,5.087173e-004
3.945708e+003,2.512569e-004
3.947636e+003,3.422070e-004
3.949565e+003,3.956603e-004
3.951493e+003,1.595356e-004
3.953422e+003,6.403867e-005
3.955351e+003,7.898360e-005
3.957279e+003,1.162384e-005
3.959208e+003,-2.929009e-006
3.961136e+003,5.867425e-005
3.963064e+003,6.145798e-006
3.964993e+003,1.194235e-005
3.966921e+003,6.860215e-005
3.968850e+003,1.180246e-004
3.970779e+003,8.250587e-005
3.972707e+003,5.038455e-006
3.974635e+003,-1.911074e-006
3.976564e+003,1.010625e-004
3.978492e+003,1.606978e-004
3.980421e+003,1.284173e-004
3.982349e+003,8.373428e-005
3.984278e+003,1.374492e-004
3.986207e+003,1.713838e-004
3.988135e+003,1.460873e-004
3.990063e+003,2.108272e-004
3.991992e+003,2.656300e-004
3.993920e+003,3.004782e-004
3.995849e+003,2.051238e-004
3.997777e+003,1.625409e-004
3.999706e+003,1.651868e-004
4.001635e+003,0.000000e+000
