3.991992e+002,0.000000e+000
4.011277e+002,0.000000e+000
4.030562e+002,0.000000e+000
4.049846e+002,0.000000e+000
4.069131e+002,0.000000e+000
4.088416e+002,0.000000e+000
4.107701e+002,0.000000e+000
4.126986e+002,0.000000e+000
4.146271e+002,0.000000e+000
4.165556e+002,0.000000e+000
4.184841e+002,0.000000e+000
4.204126e+002,0.000000e+000
4.223411e+002,0.000000e+000
4.242697e+002,0.000000e+000
4.261982e+002,0.000000e+000
4.281266e+002,0.000000e+000
4.300551e+002,0.000000e+000
4.319836e+002,0.000000e+000
4.339121e+002,0.000000e+000
4.358406e+002,0.000000e+000
4.377691e+002,0.000000e+000
4.396976e+002,0.000000e+000
4.416261e+002,0.000000e+000
4.435546e+002,0.000000e+000
4.454831e+002,0.000000e+000
4.474116e+002,0.000000e+000
4.493401e+002,0.000000e+000
4.512686e+002,0.000000e+000
4.531971e+002,0.000000e+000
4.551256e+002,0.000000e+000
4.570541e+002,0.000000e+000
4.589826e+002,0.000000e+000
4.609111e+002,0.000000e+000
4.628396e+002,0.000000e+000
4.647681e+002,0.000000e+000
4.666966e+002,0.000000e+000
4.686251e+002,0.000000e+000
4.705536e+002,0.000000e+000
4.724821e+002,0.000000e+000
4.744106e+002,0.000000e+000
4.763391e+002,0.000000e+000
4.782676e+002,0.000000e+000
4.801961e+002,0.000000e+000
4.821246e+002,0.000000e+000
4.840531e+002,0.000000e+000
4.859816e+002,0.000000e+000
4.879101e+002,0.000000e+000
4.898386e+002,0.000000e+000
4.917671e+002,0.000000e+000
4.936956e+002,0.000000e+000
4.956241e+002,0.000000e+000
4.975526e+002,0.000000e+000
4.994811e+002,0.000000e+000
5.014096e+002,0.000000e+000
5.033381e+002,0.000000e+000
5.052666e+002,0.000000e+000
5.071951e+002,0.000000e+000
5.091236e+002,0.000000e+000
5.110521e+002,0.000000e+000
5.129806e+002,0.000000e+000
5.149091e+002,0.000000e+000
5.168376e+002,0.000000e+000
5.187661e+002,0.000000e+000
5.206946e+002,0.000000e+000
5.226230e+002,0.000000e+000
5.245516e+002,-2.355601e-004
5.264800e+002,-1.979021e-004
5.284086e+002,-1.921412e-004
5.303370e+002,-2.335203e-004
5.322656e+002,-2.746889e-004
5.341940e+002,-2.880746e-004
5.361226e+002,-1.558710e-004
5.380510e+002,-2.930590e-004
5.399796e+002,-5.112255e-004
5.419081e+002,-3.688673e-004
5.438365e+002,-9.747129e-005
5.457650e+002,-7.318659e-005
5.476935e+002,-1.926895e-004
5.496221e+002,-2.580583e-004
5.515505e+002,-9.783055e-005
5.534790e+002,5.843421e-005
5.554075e+002,2.046712e-004
5.573361e+002,2.278038e-005
5.592645e+002,-1.485457e-004
5.611931e+002,-1.813751e-004
5.631215e+002,-1.024692e-004
5.650500e+002,-6.587850e-005
5.669785e+002,3.010361e-005
5.689070e+002,-4.231441e-005
5.708355e+002,-2.078412e-004
5.727640e+002,-2.919375e-004
5.746925e+002,-1.880736e-004
5.766210e+002,-2.139325e-004
5.785495e+002,-3.069814e-004
5.804780e+002,-4.374287e-004
5.824065e+002,-4.481804e-004
5.843350e+002,-3.868374e-004
5.862635e+002,-2.085157e-004
5.881920e+002,-9.763800e-005
5.901205e+002,-1.678001e-004
5.920490e+002,-1.809869e-004
5.939775e+002,-1.136800e-004
5.959060e+002,-1.752570e-004
5.978345e+002,-8.089375e-005
5.997630e+002,2.846983e-005
6.016915e+002,1.005696e-004
6.036200e+002,8.302461e-005
6.055485e+002,6.849505e-005
6.074770e+002,9.820401e-005
6.094055e+002,1.513953e-004
6.113340e+002,3.914442e-005
6.132625e+002,1.185155e-005
6.151910e+002,1.200708e-005
6.171195e+002,-5.616061e-005
6.190480e+002,-6.675255e-005
6.209765e+002,1.776759e-004
6.229050e+002,3.166739e-004
6.248335e+002,4.127810e-004
6.267620e+002,4.610885e-004
6.286905e+002,4.001048e-004
6.306190e+002,4.126595e-004
6.325475e+002,5.631980e-004
6.344760e+002,5.925982e-004
6.364045e+002,6.982593e-004
6.383330e+002,8.380127e-004
6.402615e+002,8.923998e-004
6.421899e+002,7.264439e-004
6.441185e+002,7.530879e-004
6.460470e+002,7.650091e-004
6.479755e+002,7.501591e-004
6.499039e+002,6.902805e-004
6.518325e+002,7.373472e-004
6.537610e+002,7.527722e-004
6.556895e+002,9.311291e-004
6.576179e+002,9.930339e-004
6.595464e+002,9.776941e-004
6.614750e+002,9.224096e-004
6.634034e+002,9.923931e-004
6.653319e+002,1.007152e-003
6.672604e+002,1.080664e-003
6.691890e+002,1.203769e-003
6.711174e+002,1.467025e-003
6.730460e+002,1.542860e-003
6.749745e+002,1.601893e-003
6.769030e+002,1.564841e-003
6.788314e+002,1.730843e-003
6.807599e+002,1.923310e-003
6.826885e+002,2.102742e-003
6.846169e+002,2.214093e-003
6.865454e+002,2.436453e-003
6.884739e+002,2.589593e-003
6.904025e+002,2.925270e-003
6.923309e+002,3.333504e-003
6.942594e+002,3.867646e-003
6.961879e+002,4.383189e-003
6.981165e+002,5.117054e-003
7.000449e+002,6.029116e-003
7.019734e+002,7.342990e-003
7.039019e+002,8.976325e-003
7.058304e+002,1.136046e-002
7.077589e+002,1.460606e-002
7.096874e+002,1.957490e-002
7.116159e+002,2.766699e-002
7.135444e+002,4.324945e-002
7.154729e+002,7.036576e-002
7.174014e+002,1.049933e-001
7.193299e+002,1.177874e-001
7.212584e+002,8.787458e-002
7.231869e+002,5.868053e-002
7.251154e+002,4.816015e-002
7.270439e+002,5.237987e-002
7.289724e+002,6.843229e-002
7.309009e+002,6.563126e-002
7.328294e+002,3.774978e-002
7.347579e+002,1.920748e-002
7.366864e+002,1.267829e-002
7.386149e+002,9.988211e-003
7.405434e+002,8.380231e-003
7.424719e+002,7.400633e-003
7.444004e+002,6.665380e-003
7.463289e+002,6.151543e-003
7.482574e+002,5.669879e-003
7.501859e+002,5.267104e-003
7.521144e+002,4.904811e-003
7.540428e+002,4.641575e-003
7.559714e+002,4.334147e-003
7.578999e+002,4.194334e-003
7.598284e+002,4.012541e-003
7.617568e+002,3.836991e-003
7.636854e+002,3.605417e-003
7.656139e+002,3.343057e-003
7.675424e+002,3.134024e-003
7.694709e+002,3.100331e-003
7.713994e+002,2.977017e-003
7.733279e+002,2.872521e-003
7.752563e+002,2.812264e-003
7.771849e+002,2.821670e-003
7.791134e+002,2.805412e-003
7.810419e+002,2.778898e-003
7.829703e+002,2.715471e-003
7.848989e+002,2.631708e-003
7.868274e+002,2.648973e-003
7.887559e+002,2.626994e-003
7.906843e+002,2.558754e-003
7.926129e+002,2.561804e-003
7.945414e+002,2.575273e-003
7.964698e+002,2.572236e-003
7.983983e+002,2.576458e-003
8.003268e+002,2.565211e-003
8.022554e+002,2.504463e-003
8.041838e+002,2.413440e-003
8.061123e+002,2.382692e-003
8.080408e+002,2.297599e-003
8.099694e+002,2.219106e-003
8.118978e+002,2.222589e-003
8.138263e+002,2.198914e-003
8.157548e+002,2.117477e-003
8.176833e+002,2.083044e-003
8.196118e+002,2.076114e-003
8.215403e+002,2.041174e-003
8.234689e+002,1.974582e-003
8.253973e+002,1.958817e-003
8.273258e+002,1.911130e-003
8.292543e+002,1.854721e-003
8.311829e+002,1.888409e-003
8.331113e+002,1.903314e-003
8.350398e+002,1.859315e-003
8.369683e+002,1.930132e-003
8.388969e+002,1.981659e-003
8.408253e+002,1.963714e-003
8.427538e+002,1.967667e-003
8.446823e+002,1.985853e-003
8.466108e+002,1.972899e-003
8.485393e+002,1.982745e-003
8.504678e+002,2.051226e-003
8.523963e+002,2.080666e-003
8.543248e+002,2.029507e-003
8.562533e+002,2.062239e-003
8.581818e+002,2.068205e-003
8.601103e+002,2.077436e-003
8.620388e+002,2.053929e-003
8.639673e+002,2.143843e-003
8.658958e+002,2.167263e-003
8.678243e+002,2.222724e-003
8.697528e+002,2.250007e-003
8.716813e+002,2.197949e-003
8.736098e+002,2.197344e-003
8.755383e+002,2.265661e-003
8.774668e+002,2.312727e-003
8.793953e+002,2.370799e-003
8.813238e+002,2.349782e-003
8.832523e+002,2.398427e-003
8.851808e+002,2.517795e-003
8.871093e+002,2.688518e-003
8.890378e+002,2.724699e-003
8.909663e+002,2.643113e-003
8.928948e+002,2.468566e-003
8.948232e+002,2.316702e-003
8.967518e+002,2.239941e-003
8.986803e+002,2.292794e-003
9.006088e+002,2.408707e-003
9.025372e+002,2.604502e-003
9.044658e+002,2.894803e-003
9.063943e+002,3.302539e-003
9.083228e+002,3.549524e-003
9.102512e+002,3.464446e-003
9.121797e+002,3.083417e-003
9.141083e+002,2.692000e-003
9.160367e+002,2.440894e-003
9.179653e+002,2.306253e-003
9.198937e+002,2.259436e-003
9.218223e+002,2.201879e-003
9.237507e+002,2.117069e-003
9.256793e+002,2.071147e-003
9.276077e+002,2.070215e-003
9.295363e+002,2.122022e-003
9.314647e+002,2.105438e-003
9.333932e+002,2.117104e-003
9.353217e+002,2.170327e-003
9.372502e+002,2.222305e-003
9.391787e+002,2.199153e-003
9.411072e+002,2.166038e-003
9.430358e+002,2.140839e-003
9.449642e+002,2.182600e-003
9.468928e+002,2.170136e-003
9.488212e+002,2.172378e-003
9.507498e+002,2.200420e-003
9.526782e+002,2.265889e-003
9.546068e+002,2.272303e-003
9.565352e+002,2.370022e-003
9.584637e+002,2.421745e-003
9.603922e+002,2.533564e-003
9.623207e+002,2.604865e-003
9.642492e+002,2.684982e-003
9.661777e+002,2.756684e-003
9.681062e+002,2.748782e-003
9.700347e+002,2.645368e-003
9.719632e+002,2.656241e-003
9.738917e+002,2.691652e-003
9.758202e+002,2.799506e-003
9.777487e+002,2.842456e-003
9.796772e+002,2.871562e-003
9.816057e+002,2.910074e-003
9.835342e+002,3.025614e-003
9.854627e+002,3.165243e-003
9.873912e+002,3.319158e-003
9.893197e+002,3.398605e-003
9.912482e+002,3.511193e-003
9.931767e+002,3.536830e-003
9.951052e+002,3.557172e-003
9.970337e+002,3.545936e-003
9.989622e+002,3.548125e-003
1.000891e+003,3.564151e-003
1.002819e+003,3.696437e-003
1.004748e+003,3.784229e-003
1.006676e+003,3.816647e-003
1.008605e+003,3.847670e-003
1.010533e+003,3.972765e-003
1.012462e+003,4.032439e-003
1.014390e+003,4.226195e-003
1.016319e+003,4.418760e-003
1.018247e+003,4.514492e-003
1.020176e+003,4.558952e-003
1.022104e+003,4.687365e-003
1.024033e+003,4.753863e-003
1.025961e+003,4.792965e-003
1.027890e+003,4.873005e-003
1.029818e+003,5.011711e-003
1.031747e+003,5.024767e-003
1.033675e+003,5.068578e-003
1.035604e+003,5.099580e-003
1.037532e+003,5.187013e-003
1.039461e+003,5.223947e-003
1.041389e+003,5.221869e-003
1.043318e+003,5.233824e-003
1.045246e+003,5.371204e-003
1.047175e+003,5.511267e-003
1.049103e+003,5.684743e-003
1.051032e+003,5.719745e-003
1.052960e+003,5.697880e-003
1.054889e+003,5.677436e-003
1.056817e+003,5.750115e-003
1.058746e+003,5.852566e-003
1.060674e+003,6.015929e-003
1.062603e+003,6.059136e-003
1.064531e+003,6.032190e-003
1.066460e+003,5.912270e-003
1.068388e+003,5.850350e-003
1.070317e+003,5.900099e-003
1.072245e+003,6.153358e-003
1.074174e+003,6.407579e-003
1.076102e+003,6.714498e-003
1.078031e+003,6.922597e-003
1.079959e+003,7.021251e-003
1.081888e+003,7.040700e-003
1.083816e+003,7.091232e-003
1.085745e+003,7.001684e-003
1.087673e+003,7.002850e-003
1.089602e+003,6.937139e-003
1.091530e+003,6.875359e-003
1.093459e+003,6.860915e-003
1.095387e+003,6.923455e-003
1.097316e+003,6.839499e-003
1.099244e+003,6.766210e-003
1.101173e+003,6.648326e-003
1.103101e+003,6.542790e-003
1.105030e+003,6.406446e-003
1.106958e+003,6.346798e-003
1.108887e+003,6.278613e-003
1.110815e+003,6.302618e-003
1.112744e+003,6.311803e-003
1.114672e+003,6.389366e-003
1.116601e+003,6.405570e-003
1.118529e+003,6.433397e-003
1.120458e+003,6.369106e-003
1.122386e+003,6.314915e-003
1.124315e+003,6.163126e-003
1.126243e+003,6.103025e-003
1.128172e+003,6.072775e-003
1.130100e+003,6.198655e-003
1.132029e+003,6.384300e-003
1.133957e+003,6.631199e-003
1.135885e+003,6.874215e-003
1.137814e+003,7.166089e-003
1.139743e+003,7.417351e-003
1.141671e+003,7.738455e-003
1.143600e+003,8.056937e-003
1.145528e+003,8.476212e-003
1.147457e+003,9.007794e-003
1.149385e+003,9.831179e-003
1.151314e+003,1.072446e-002
1.153242e+003,1.152317e-002
1.155171e+003,1.201085e-002
1.157099e+003,1.230174e-002
1.159028e+003,1.248016e-002
1.160956e+003,1.261821e-002
1.162885e+003,1.249298e-002
1.164813e+003,1.225889e-002
1.166742e+003,1.189902e-002
1.168670e+003,1.145097e-002
1.170599e+003,1.091548e-002
1.172527e+003,1.040823e-002
1.174456e+003,9.886434e-003
1.176384e+003,9.437508e-003
1.178313e+003,8.866926e-003
1.180241e+003,8.390704e-003
1.182170e+003,8.026054e-003
1.184098e+003,7.837850e-003
1.186027e+003,7.718655e-003
1.187955e+003,7.716437e-003
1.189884e+003,7.710569e-003
1.191812e+003,7.782603e-003
1.193740e+003,7.836971e-003
1.195669e+003,7.989488e-003
1.197598e+003,8.177142e-003
1.199526e+003,8.430035e-003
1.201455e+003,8.676381e-003
1.203383e+003,9.073532e-003
1.205312e+003,9.509583e-003
1.207240e+003,9.935473e-003
1.209168e+003,1.029665e-002
1.211097e+003,1.068610e-002
1.213026e+003,1.093086e-002
1.214954e+003,1.118490e-002
1.216883e+003,1.139254e-002
1.218811e+003,1.165870e-002
1.220740e+003,1.192874e-002
1.222668e+003,1.227474e-002
1.224596e+003,1.254169e-002
1.226525e+003,1.282563e-002
1.228453e+003,1.308730e-002
1.230382e+003,1.342152e-002
1.232311e+003,1.368560e-002
1.234239e+003,1.394961e-002
1.236167e+003,1.412754e-002
1.238096e+003,1.427252e-002
1.240025e+003,1.433236e-002
1.241953e+003,1.436397e-002
1.243882e+003,1.420736e-002
1.245810e+003,1.395484e-002
1.247739e+003,1.355204e-002
1.249667e+003,1.309254e-002
1.251595e+003,1.257370e-002
1.253524e+003,1.218106e-002
1.255453e+003,1.170566e-002
1.257381e+003,1.122600e-002
1.259310e+003,1.067030e-002
1.261238e+003,1.016088e-002
1.263167e+003,9.675594e-003
1.265095e+003,9.292454e-003
1.267023e+003,8.944562e-003
1.268952e+003,8.828325e-003
1.270880e+003,8.706453e-003
1.272809e+003,8.657859e-003
1.274738e+003,8.601307e-003
1.276666e+003,8.627458e-003
1.278594e+003,8.625969e-003
1.280523e+003,8.701333e-003
1.282451e+003,8.745391e-003
1.284380e+003,8.849905e-003
1.286308e+003,8.944215e-003
1.288237e+003,9.202318e-003
1.290166e+003,9.445218e-003
1.292094e+003,9.858200e-003
1.294022e+003,1.024736e-002
1.295951e+003,1.071321e-002
1.297879e+003,1.103961e-002
1.299808e+003,1.134576e-002
1.301736e+003,1.145622e-002
1.303665e+003,1.151873e-002
1.305594e+003,1.139677e-002
1.307522e+003,1.127863e-002
1.309450e+003,1.099072e-002
1.311379e+003,1.066847e-002
1.313307e+003,1.018462e-002
1.315236e+003,9.788247e-003
1.317164e+003,9.322724e-003
1.319093e+003,8.915769e-003
1.321021e+003,8.400236e-003
1.322950e+003,8.064412e-003
1.324878e+003,7.757719e-003
1.326807e+003,7.626433e-003
1.328735e+003,7.511229e-003
1.330664e+003,7.589841e-003
1.332592e+003,7.743522e-003
1.334521e+003,8.158799e-003
1.336449e+003,8.731855e-003
1.338378e+003,9.667153e-003
1.340306e+003,1.043011e-002
1.342235e+003,1.084067e-002
1.344163e+003,1.120583e-002
1.346092e+003,1.187059e-002
1.348021e+003,1.258715e-002
1.349949e+003,1.335737e-002
1.351877e+003,1.369599e-002
1.353806e+003,1.377671e-002
1.355734e+003,1.352734e-002
1.357663e+003,1.355451e-002
1.359591e+003,1.388767e-002
1.361520e+003,1.481096e-002
1.363448e+003,1.606578e-002
1.365377e+003,1.717104e-002
1.367305e+003,1.793336e-002
1.369234e+003,1.797048e-002
1.371162e+003,1.680662e-002
1.373091e+003,1.570877e-002
1.375019e+003,1.542254e-002
1.376948e+003,1.546552e-002
1.378876e+003,1.381264e-002
1.380805e+003,1.098125e-002
1.382733e+003,8.737215e-003
1.384662e+003,7.768966e-003
1.386590e+003,7.250071e-003
1.388519e+003,6.981985e-003
1.390447e+003,6.554842e-003
1.392376e+003,6.515124e-003
1.394304e+003,6.503844e-003
1.396233e+003,6.686449e-003
1.398161e+003,6.563559e-003
1.400090e+003,6.743406e-003
1.402018e+003,6.550123e-003
1.403947e+003,6.734974e-003
1.405875e+003,6.742154e-003
1.407804e+003,6.950779e-003
1.409732e+003,7.009529e-003
1.411661e+003,7.417298e-003
1.413589e+003,7.565862e-003
1.415518e+003,8.036920e-003
1.417446e+003,8.389240e-003
1.419375e+003,9.397719e-003
1.421303e+003,9.608358e-003
1.423232e+003,1.052268e-002
1.425160e+003,1.191337e-002
1.427089e+003,1.386603e-002
1.429017e+003,1.642128e-002
1.430946e+003,2.023953e-002
1.432874e+003,2.317220e-002
1.434803e+003,2.599097e-002
1.436731e+003,2.916535e-002
1.438660e+003,3.192590e-002
1.440588e+003,3.324302e-002
1.442517e+003,3.524461e-002
1.444445e+003,3.675858e-002
1.446374e+003,3.923765e-002
1.448302e+003,4.280247e-002
1.450231e+003,4.828896e-002
1.452159e+003,5.637527e-002
1.454088e+003,6.709957e-002
1.456016e+003,7.800610e-002
1.457945e+003,1.044809e-001
1.459873e+003,1.506938e-001
1.461802e+003,1.969234e-001
1.463730e+003,1.970688e-001
1.465659e+003,1.550831e-001
1.467587e+003,1.429617e-001
1.469516e+003,1.418114e-001
1.471444e+003,1.615088e-001
1.473373e+003,1.427625e-001
1.475301e+003,7.767941e-002
1.477230e+003,3.486153e-002
1.479158e+003,2.241531e-002
1.481087e+003,1.659681e-002
1.483015e+003,1.380170e-002
1.484944e+003,1.156614e-002
1.486872e+003,1.103085e-002
1.488801e+003,9.795775e-003
1.490729e+003,9.621999e-003
1.492658e+003,8.287084e-003
1.494586e+003,8.141752e-003
1.496515e+003,7.433757e-003
1.498443e+003,7.517805e-003
1.500372e+003,6.824498e-003
1.502300e+003,6.693084e-003
1.504229e+003,5.840408e-003
1.506157e+003,6.233898e-003
1.508086e+003,6.399483e-003
1.510014e+003,6.524440e-003
1.511943e+003,5.819420e-003
1.513871e+003,5.850259e-003
1.515800e+003,5.481579e-003
1.517728e+003,5.672514e-003
1.519657e+003,5.235602e-003
1.521585e+003,5.862641e-003
1.523514e+003,5.457179e-003
1.525442e+003,5.527884e-003
1.527371e+003,5.248242e-003
1.529299e+003,5.360326e-003
1.531228e+003,5.042869e-003
1.533156e+003,5.372820e-003
1.535085e+003,5.038711e-003
1.537013e+003,4.810066e-003
1.538942e+003,4.339771e-003
1.540870e+003,5.469623e-003
1.542799e+003,5.292504e-003
1.544727e+003,5.459505e-003
1.546656e+003,4.899318e-003
1.548584e+003,4.934622e-003
1.550513e+003,4.752169e-003
1.552441e+003,4.606376e-003
1.554370e+003,4.328240e-003
1.556298e+003,4.309695e-003
1.558227e+003,3.903397e-003
1.560155e+003,5.098883e-003
1.562084e+003,4.466703e-003
1.564012e+003,4.352419e-003
1.565941e+003,4.123489e-003
1.567869e+003,4.109020e-003
1.569798e+003,4.208716e-003
1.571726e+003,4.264835e-003
1.573655e+003,3.875110e-003
1.575583e+003,4.174313e-003
1.577512e+003,4.508974e-003
1.579440e+003,4.403019e-003
1.581369e+003,4.131191e-003
1.583297e+003,4.170612e-003
1.585226e+003,4.066642e-003
1.587154e+003,4.147184e-003
1.589083e+003,4.179410e-003
1.591011e+003,4.256859e-003
1.592940e+003,4.086086e-003
1.594868e+003,4.156343e-003
1.596797e+003,4.131486e-003
1.598725e+003,4.166584e-003
1.600654e+003,3.977774e-003
1.602582e+003,3.993778e-003
1.604511e+003,3.994931e-003
1.606439e+003,4.214797e-003
1.608368e+003,4.227228e-003
1.610296e+003,4.246044e-003
1.612225e+003,4.122145e-003
1.614153e+003,4.101195e-003
1.616082e+003,4.165776e-003
1.618010e+003,4.502003e-003
1.619939e+003,4.229778e-003
1.621867e+003,4.255065e-003
1.623796e+003,4.438953e-003
1.625724e+003,4.585967e-003
1.627653e+003,4.612712e-003
1.629581e+003,4.696727e-003
1.631510e+003,4.415467e-003
1.633438e+003,4.237593e-003
1.635367e+003,4.587962e-003
1.637295e+003,5.451280e-003
1.639224e+003,5.154134e-003
1.641152e+003,5.088373e-003
1.643081e+003,4.953296e-003
1.645009e+003,4.790683e-003
1.646938e+003,4.883411e-003
1.648866e+003,4.965318e-003
1.650795e+003,4.308424e-003
1.652723e+003,4.039999e-003
1.654652e+003,5.015044e-003
1.656580e+003,4.863736e-003
1.658509e+003,4.505926e-003
1.660437e+003,4.334331e-003
1.662366e+003,4.134496e-003
1.664294e+003,4.242981e-003
1.666223e+003,3.976412e-003
1.668151e+003,3.914405e-003
1.670080e+003,3.992523e-003
1.672008e+003,3.919296e-003
1.673937e+003,3.672401e-003
1.675865e+003,3.792138e-003
1.677794e+003,3.499541e-003
1.679722e+003,3.356777e-003
1.681651e+003,3.010604e-003
1.683579e+003,3.052021e-003
1.685508e+003,3.401360e-003
1.687436e+003,3.375715e-003
1.689365e+003,3.229872e-003
1.691293e+003,3.030038e-003
1.693222e+003,2.596261e-003
1.695150e+003,2.580715e-003
1.697079e+003,2.767609e-003
1.699007e+003,2.642522e-003
1.700936e+003,2.804105e-003
1.702864e+003,3.051765e-003
1.704793e+003,2.938500e-003
1.706721e+003,3.134331e-003
1.708650e+003,2.981211e-003
1.710578e+003,2.899352e-003
1.712507e+003,2.693833e-003
1.714435e+003,2.838709e-003
1.716364e+003,3.046741e-003
1.718292e+003,3.645453e-003
1.720221e+003,3.555042e-003
1.722149e+003,3.591180e-003
1.724078e+003,3.662510e-003
1.726006e+003,3.806925e-003
1.727935e+003,3.959073e-003
1.729863e+003,4.554767e-003
1.731792e+003,4.966632e-003
1.733720e+003,5.931451e-003
1.735649e+003,6.925497e-003
1.737577e+003,7.387981e-003
1.739506e+003,8.499619e-003
1.741434e+003,9.793554e-003
1.743363e+003,1.072556e-002
1.745291e+003,1.159912e-002
1.747220e+003,1.200579e-002
1.749148e+003,1.189605e-002
1.751077e+003,1.084760e-002
1.753005e+003,9.165335e-003
1.754934e+003,7.518860e-003
1.756862e+003,5.934039e-003
1.758791e+003,4.501603e-003
1.760719e+003,3.665904e-003
1.762648e+003,2.990569e-003
1.764576e+003,2.449368e-003
1.766505e+003,1.919402e-003
1.768433e+003,1.655690e-003
1.770362e+003,1.371685e-003
1.772290e+003,1.493775e-003
1.774219e+003,1.454082e-003
1.776147e+003,1.152694e-003
1.778076e+003,8.498868e-004
1.780004e+003,1.001797e-003
1.781933e+003,9.844769e-004
1.783861e+003,9.655375e-004
1.785790e+003,8.331416e-004
1.787718e+003,7.594647e-004
1.789646e+003,5.555786e-004
1.791575e+003,6.190855e-004
1.793504e+003,6.757164e-004
1.795432e+003,6.276006e-004
1.797361e+003,4.024860e-004
1.799289e+003,5.465597e-004
1.801218e+003,5.685110e-004
1.803146e+003,5.628420e-004
1.805074e+003,3.701085e-004
1.807003e+003,3.516022e-004
1.808932e+003,2.772156e-004
1.810860e+003,3.711600e-004
1.812789e+003,1.955153e-004
1.814717e+003,-7.886440e-005
1.816646e+003,-2.910392e-004
1.818574e+003,2.587307e-005
1.820502e+003,1.018979e-004
1.822431e+003,-5.036592e-006
1.824360e+003,-3.505694e-004
1.826288e+003,-3.464194e-004
1.828217e+003,-6.704461e-004
1.830145e+003,-5.707685e-004
1.832073e+003,-4.989421e-004
1.834002e+003,-5.624350e-004
1.835931e+003,-7.918458e-004
1.837859e+003,-7.326789e-004
1.839788e+003,-7.733563e-004
1.841716e+003,-7.691532e-004
1.843645e+003,-1.032024e-003
1.845573e+003,-6.620903e-004
1.847501e+003,-7.144967e-004
1.849430e+003,-7.658154e-004
1.851359e+003,-9.185988e-004
1.853287e+003,-8.066604e-004
1.855216e+003,-9.218222e-004
1.857144e+003,-9.181043e-004
1.859073e+003,-1.110365e-003
1.861001e+003,-1.008681e-003
1.862929e+003,-1.241077e-003
1.864858e+003,-1.288006e-003
1.866787e+003,-1.674578e-003
1.868715e+003,-1.507843e-003
1.870644e+003,-1.200922e-003
1.872572e+003,-9.811558e-004
1.874500e+003,-1.250053e-003
1.876429e+003,-1.300981e-003
1.878357e+003,-1.556942e-003
1.880286e+003,-1.438966e-003
1.882215e+003,-1.468735e-003
1.884143e+003,-1.303898e-003
1.886072e+003,-1.624469e-003
1.888000e+003,-1.555795e-003
1.889928e+003,-1.195896e-003
1.891857e+003,-8.381261e-004
1.893785e+003,-1.029190e-003
1.895714e+003,-6.056027e-004
1.897643e+003,-5.517118e-004
1.899571e+003,-5.972469e-004
1.901500e+003,-5.917652e-004
1.903428e+003,-5.862936e-004
1.905356e+003,-5.808352e-004
1.907285e+003,-5.753851e-004
1.909213e+003,-5.699443e-004
1.911142e+003,-5.645193e-004
1.913071e+003,-5.591027e-004
1.914999e+003,-5.536955e-004
1.916927e+003,-5.482994e-004
1.918856e+003,-5.429182e-004
1.920784e+003,-5.375426e-004
1.922713e+003,-5.321819e-004
1.924641e+003,-5.268296e-004
1.926570e+003,-5.214876e-004
1.928499e+003,-5.161595e-004
1.930427e+003,-5.108407e-004
1.932355e+003,-5.055321e-004
1.934284e+003,-5.002348e-004
1.936212e+003,-4.949477e-004
1.938141e+003,-4.896726e-004
1.940070e+003,-4.844107e-004
1.941998e+003,-4.791543e-004
1.943927e+003,-4.739109e-004
1.945855e+003,-4.686788e-004
1.947783e+003,-4.634578e-004
1.949712e+003,-4.582489e-004
1.951640e+003,-4.530465e-004
1.953569e+003,-4.478581e-004
1.955498e+003,-4.426828e-004
1.957426e+003,-4.375139e-004
1.959354e+003,-4.323591e-004
1.961283e+003,-4.272126e-004
1.963211e+003,-4.220773e-004
1.965140e+003,-4.169550e-004
1.967068e+003,-4.118420e-004
1.968997e+003,-4.067421e-004
1.970926e+003,-4.016496e-004
1.972854e+003,-3.965683e-004
1.974782e+003,-3.915001e-004
1.976711e+003,-3.864430e-004
1.978639e+003,-3.813952e-004
1.980568e+003,-3.763568e-004
1.982496e+003,-3.713313e-004
1.984425e+003,-3.663171e-004
1.986354e+003,-3.613140e-004
1.988282e+003,-3.563203e-004
1.990210e+003,-3.513377e-004
1.992139e+003,-3.463682e-004
1.994067e+003,-3.414061e-004
1.995996e+003,-3.364570e-004
1.997924e+003,-3.315173e-004
1.999853e+003,-3.265906e-004
2.001781e+003,-3.216732e-004
2.003710e+003,-3.167670e-004
2.005638e+003,-3.118701e-004
2.007567e+003,-3.069844e-004
2.009495e+003,-3.021117e-004
2.011424e+003,-2.972502e-004
2.013352e+003,-2.923980e-004
2.015281e+003,-2.875570e-004
2.017209e+003,-2.827253e-004
2.019138e+003,-2.779067e-004
2.021066e+003,-2.730992e-004
2.022995e+003,-2.683029e-004
2.024923e+003,-2.635159e-004
2.026852e+003,-2.587382e-004
2.028781e+003,-2.539735e-004
2.030709e+003,-2.492182e-004
2.032637e+003,-2.444759e-004
2.034566e+003,-2.397448e-004
2.036494e+003,-2.350211e-004
2.038423e+003,-2.303105e-004
2.040351e+003,-2.256110e-004
2.042280e+003,-2.209228e-004
2.044208e+003,-2.162438e-004
2.046137e+003,-2.115779e-004
2.048065e+003,-2.069194e-004
2.049994e+003,-2.022739e-004
2.051922e+003,-1.976397e-004
2.053851e+003,-1.930166e-004
2.055779e+003,-1.884047e-004
2.057708e+003,-1.838021e-004
2.059636e+003,-1.792107e-004
2.061565e+003,-1.746304e-004
2.063493e+003,-1.700595e-004
2.065422e+003,-1.655016e-004
2.067350e+003,-1.609530e-004
2.069279e+003,-1.564175e-004
2.071207e+003,-1.518894e-004
2.073136e+003,-1.473762e-004
2.075064e+003,-1.428723e-004
2.076993e+003,-1.383796e-004
2.078921e+003,-1.338944e-004
2.080850e+003,-1.294222e-004
2.082778e+003,-1.249611e-004
2.084707e+003,-1.205131e-004
2.086635e+003,-1.160745e-004
2.088564e+003,-1.116451e-004
2.090492e+003,-1.072250e-004
2.092421e+003,-1.028217e-004
2.094349e+003,-9.842403e-005
2.096278e+003,-9.404123e-005
2.098206e+003,-8.966587e-005
2.100135e+003,-8.530170e-005
2.102063e+003,-8.094870e-005
2.103992e+003,-7.661059e-005
2.105920e+003,-7.227808e-005
2.107849e+003,-6.795675e-005
2.109777e+003,-6.364845e-005
2.111706e+003,-5.935133e-005
2.113634e+003,-5.506538e-005
2.115563e+003,-5.078875e-005
2.117491e+003,-4.652329e-005
2.119420e+003,-4.226901e-005
2.121348e+003,-3.802404e-005
2.123277e+003,-3.379211e-005
2.125205e+003,-2.956949e-005
2.127134e+003,-2.535805e-005
2.129062e+003,-2.115965e-005
2.130991e+003,-1.697056e-005
2.132919e+003,-1.279078e-005
2.134848e+003,-8.622184e-006
2.136776e+003,-4.464760e-006
2.138705e+003,-3.203750e-007
2.140633e+003,3.814697e-006
2.142562e+003,7.938594e-006
2.144490e+003,1.205318e-005
2.146419e+003,1.615472e-005
2.148347e+003,2.024695e-005
2.150276e+003,2.432615e-005
2.152204e+003,2.839789e-005
2.154133e+003,3.245659e-005
2.156061e+003,3.650226e-005
2.157990e+003,4.054047e-005
2.159918e+003,4.456565e-005
2.161847e+003,4.858337e-005
2.163775e+003,5.258806e-005
2.165704e+003,5.658343e-005
2.167632e+003,6.056391e-005
2.169561e+003,6.453879e-005
2.171489e+003,6.849878e-005
2.173418e+003,7.244945e-005
2.175346e+003,7.638708e-005
2.177275e+003,8.031540e-005
2.179203e+003,8.423440e-005
2.181132e+003,8.814223e-005
2.183060e+003,9.203888e-005
2.184989e+003,9.592436e-005
2.186917e+003,9.979680e-005
2.188846e+003,1.036618e-004
2.190774e+003,1.075156e-004
2.192703e+003,1.113564e-004
2.194631e+003,1.151841e-004
2.196560e+003,1.190063e-004
2.198488e+003,1.228172e-004
2.200417e+003,1.266133e-004
2.202345e+003,1.304038e-004
2.204274e+003,1.341756e-004
2.206202e+003,1.379419e-004
2.208131e+003,1.416989e-004
2.210059e+003,1.454428e-004
2.211988e+003,1.491755e-004
2.213916e+003,1.528990e-004
2.215845e+003,1.566131e-004
2.217773e+003,1.603123e-004
2.219702e+003,1.640003e-004
2.221630e+003,1.676772e-004
2.223559e+003,1.713466e-004
2.225487e+003,1.750048e-004
2.227416e+003,1.786482e-004
2.229344e+003,1.822859e-004
2.231273e+003,1.859087e-004
2.233201e+003,1.895223e-004
2.235130e+003,1.931284e-004
2.237058e+003,1.967195e-004
2.238987e+003,2.002995e-004
2.240915e+003,2.038702e-004
2.242844e+003,2.074298e-004
2.244772e+003,2.109781e-004
2.246701e+003,2.145153e-004
2.248629e+003,2.180431e-004
2.250558e+003,2.215579e-004
2.252486e+003,2.250634e-004
2.254415e+003,2.285577e-004
2.256343e+003,2.320409e-004
2.258272e+003,2.355129e-004
2.260200e+003,2.389755e-004
2.262129e+003,2.424270e-004
2.264057e+003,2.458654e-004
2.265986e+003,2.492964e-004
2.267914e+003,2.527125e-004
2.269843e+003,2.561212e-004
2.271771e+003,2.595186e-004
2.273700e+003,2.629030e-004
2.275628e+003,2.662763e-004
2.277557e+003,2.696402e-004
2.279485e+003,2.729949e-004
2.281414e+003,2.763383e-004
2.283342e+003,2.796687e-004
2.285271e+003,2.829880e-004
2.287199e+003,2.862960e-004
2.289128e+003,2.895966e-004
2.291056e+003,2.928823e-004
2.292985e+003,2.961624e-004
2.294913e+003,2.994277e-004
2.296842e+003,3.026817e-004
2.298770e+003,3.059283e-004
2.300699e+003,3.091600e-004
2.302627e+003,3.123824e-004
2.304556e+003,3.155936e-004
2.306484e+003,3.187954e-004
2.308413e+003,3.219880e-004
2.310341e+003,3.251638e-004
2.312270e+003,3.283340e-004
2.314198e+003,3.314894e-004
2.316127e+003,3.346391e-004
2.318055e+003,3.377758e-004
2.319984e+003,3.408995e-004
2.321912e+003,3.440101e-004
2.323841e+003,3.471151e-004
2.325769e+003,3.502071e-004
2.327698e+003,3.532879e-004
2.329626e+003,3.563594e-004
2.331555e+003,3.594179e-004
2.333483e+003,3.624689e-004
2.335412e+003,3.655069e-004
2.337340e+003,3.685337e-004
2.339269e+003,3.715511e-004
2.341197e+003,3.745556e-004
2.343126e+003,3.775507e-004
2.345054e+003,3.805347e-004
2.346983e+003,3.835056e-004
2.348911e+003,3.864672e-004
2.350840e+003,3.894195e-004
2.352768e+003,3.923588e-004
2.354697e+003,3.952887e-004
2.356625e+003,3.982093e-004
2.358554e+003,4.011150e-004
2.360482e+003,4.040133e-004
2.362411e+003,4.069004e-004
2.364339e+003,4.097726e-004
2.366268e+003,4.126392e-004
2.368196e+003,4.154909e-004
2.370125e+003,4.183333e-004
2.372053e+003,4.211664e-004
2.373982e+003,4.239865e-004
2.375910e+003,4.267972e-004
2.377839e+003,4.295930e-004
2.379767e+003,4.323833e-004
2.381696e+003,4.351623e-004
2.383624e+003,4.379265e-004
2.385553e+003,4.406814e-004
2.387481e+003,4.434269e-004
2.389410e+003,4.461613e-004
2.391338e+003,4.488844e-004
2.393267e+003,4.515946e-004
2.395195e+003,4.542954e-004
2.397124e+003,4.569869e-004
2.399052e+003,4.596692e-004
2.400981e+003,4.542135e-004
2.402909e+003,3.844760e-004
2.404838e+003,4.018135e-004
2.406766e+003,6.570909e-004
2.408695e+003,8.961074e-004
2.410623e+003,1.001341e-003
2.412552e+003,1.144813e-003
2.414480e+003,1.112361e-003
2.416409e+003,1.168706e-003
2.418337e+003,1.147950e-003
2.420266e+003,1.044150e-003
2.422194e+003,9.337161e-004
2.424123e+003,9.778142e-004
2.426051e+003,9.795129e-004
2.427979e+003,8.336902e-004
2.429908e+003,7.327888e-004
2.431837e+003,9.691156e-004
2.433765e+003,1.013149e-003
2.435694e+003,9.270348e-004
2.437622e+003,8.303765e-004
2.439551e+003,8.362904e-004
2.441479e+003,7.483158e-004
2.443407e+003,7.298719e-004
2.445336e+003,7.949118e-004
2.447265e+003,7.573999e-004
2.449193e+003,8.658189e-004
2.451122e+003,1.054876e-003
2.453050e+003,9.821858e-004
2.454979e+003,9.520333e-004
2.456907e+003,9.486564e-004
2.458836e+003,8.217655e-004
2.460764e+003,6.403141e-004
2.462693e+003,7.896367e-004
2.464621e+003,9.533446e-004
2.466550e+003,9.531360e-004
2.468478e+003,1.009654e-003
2.470406e+003,1.175545e-003
2.472335e+003,1.278032e-003
2.474264e+003,1.339288e-003
2.476192e+003,1.332564e-003
2.478121e+003,1.299080e-003
2.480049e+003,1.215236e-003
2.481978e+003,1.322491e-003
2.483906e+003,1.514409e-003
2.485835e+003,1.617376e-003
2.487763e+003,1.532577e-003
2.489692e+003,1.505455e-003
2.491620e+003,1.432046e-003
2.493549e+003,1.497015e-003
2.495477e+003,1.539206e-003
2.497406e+003,1.701534e-003
2.499334e+003,1.685487e-003
2.501263e+003,1.611965e-003
2.503191e+003,1.791131e-003
2.505120e+003,1.874227e-003
2.507048e+003,1.892259e-003
2.508977e+003,2.062745e-003
2.510905e+003,2.070202e-003
2.512833e+003,2.050599e-003
2.514762e+003,2.261003e-003
2.516691e+003,2.356505e-003
2.518619e+003,2.176758e-003
2.520548e+003,2.180593e-003
2.522476e+003,2.317058e-003
2.524405e+003,2.638429e-003
2.526333e+003,2.798919e-003
2.528261e+003,2.680043e-003
2.530190e+003,2.663672e-003
2.532119e+003,2.821054e-003
2.534047e+003,2.890561e-003
2.535976e+003,2.669746e-003
2.537904e+003,2.505792e-003
2.539833e+003,2.720868e-003
2.541761e+003,2.784660e-003
2.543689e+003,2.999235e-003
2.545618e+003,3.359455e-003
2.547547e+003,3.659309e-003
2.549475e+003,3.712940e-003
2.551404e+003,3.838199e-003
2.553332e+003,3.937698e-003
2.555260e+003,3.949299e-003
2.557189e+003,3.983564e-003
2.559117e+003,4.054514e-003
2.561046e+003,4.045861e-003
2.562975e+003,4.243318e-003
2.564903e+003,4.597549e-003
2.566832e+003,4.878598e-003
2.568760e+003,4.852506e-003
2.570688e+003,5.036129e-003
2.572617e+003,5.188224e-003
2.574546e+003,5.244244e-003
2.576474e+003,5.332808e-003
2.578403e+003,5.661299e-003
2.580331e+003,5.847311e-003
2.582260e+003,5.996411e-003
2.584188e+003,6.181207e-003
2.586116e+003,6.485927e-003
2.588045e+003,6.850631e-003
2.589974e+003,7.085656e-003
2.591902e+003,7.259198e-003
2.593831e+003,7.485069e-003
2.595759e+003,7.612211e-003
2.597688e+003,7.901013e-003
2.599616e+003,8.187489e-003
2.601544e+003,8.308470e-003
2.603473e+003,8.449797e-003
2.605402e+003,8.741347e-003
2.607330e+003,8.869360e-003
2.609259e+003,9.176469e-003
2.611187e+003,9.653265e-003
2.613115e+003,1.006507e-002
2.615044e+003,1.050479e-002
2.616972e+003,1.104645e-002
2.618901e+003,1.126469e-002
2.620830e+003,1.156470e-002
2.622758e+003,1.201311e-002
2.624687e+003,1.243701e-002
2.626615e+003,1.285674e-002
2.628543e+003,1.338932e-002
2.630472e+003,1.387251e-002
2.632400e+003,1.434426e-002
2.634329e+003,1.462875e-002
2.636258e+003,1.477302e-002
2.638186e+003,1.478280e-002
2.640115e+003,1.469945e-002
2.642043e+003,1.464098e-002
2.643971e+003,1.462986e-002
2.645900e+003,1.461958e-002
2.647828e+003,1.471656e-002
2.649757e+003,1.484051e-002
2.651686e+003,1.498195e-002
2.653614e+003,1.519622e-002
2.655542e+003,1.534935e-002
2.657471e+003,1.538408e-002
2.659399e+003,1.541848e-002
2.661328e+003,1.538561e-002
2.663256e+003,1.523240e-002
2.665185e+003,1.498105e-002
2.667114e+003,1.478782e-002
2.669042e+003,1.462505e-002
2.670970e+003,1.444664e-002
2.672899e+003,1.430104e-002
2.674827e+003,1.419845e-002
2.676756e+003,1.404962e-002
2.678685e+003,1.387506e-002
2.680613e+003,1.376707e-002
2.682542e+003,1.365104e-002
2.684470e+003,1.346530e-002
2.686398e+003,1.331772e-002
2.688327e+003,1.317941e-002
2.690255e+003,1.304117e-002
2.692184e+003,1.284907e-002
2.694113e+003,1.274518e-002
2.696041e+003,1.277975e-002
2.697969e+003,1.283044e-002
2.699898e+003,1.290360e-002
2.701826e+003,1.302545e-002
2.703755e+003,1.315343e-002
2.705683e+003,1.333082e-002
2.707612e+003,1.349793e-002
2.709541e+003,1.361758e-002
2.711469e+003,1.374688e-002
2.713397e+003,1.395097e-002
2.715326e+003,1.412160e-002
2.717254e+003,1.424410e-002
2.719183e+003,1.442397e-002
2.721111e+003,1.465501e-002
2.723040e+003,1.492764e-002
2.724969e+003,1.525178e-002
2.726897e+003,1.559715e-002
2.728825e+003,1.586964e-002
2.730754e+003,1.603911e-002
2.732682e+003,1.621830e-002
2.734611e+003,1.641274e-002
2.736539e+003,1.666569e-002
2.738468e+003,1.680898e-002
2.740396e+003,1.690139e-002
2.742325e+003,1.696645e-002
2.744253e+003,1.703974e-002
2.746182e+003,1.699094e-002
2.748110e+003,1.690335e-002
2.750039e+003,1.692561e-002
2.751967e+003,1.706039e-002
2.753896e+003,1.725015e-002
2.755824e+003,1.751700e-002
2.757753e+003,1.792491e-002
2.759681e+003,1.832181e-002
2.761610e+003,1.873044e-002
2.763538e+003,1.914578e-002
2.765467e+003,1.949029e-002
2.767395e+003,1.990740e-002
2.769324e+003,2.042894e-002
2.771252e+003,2.107949e-002
2.773181e+003,2.181196e-002
2.775109e+003,2.258097e-002
2.777038e+003,2.351713e-002
2.778966e+003,2.453982e-002
2.780895e+003,2.567380e-002
2.782823e+003,2.681510e-002
2.784752e+003,2.801640e-002
2.786680e+003,2.947133e-002
2.788609e+003,3.107960e-002
2.790537e+003,3.272513e-002
2.792466e+003,3.445140e-002
2.794394e+003,3.626734e-002
2.796323e+003,3.807074e-002
2.798251e+003,4.001905e-002
2.800180e+003,4.211430e-002
2.802108e+003,4.425257e-002
2.804037e+003,4.657828e-002
2.805965e+003,4.917796e-002
2.807894e+003,5.206466e-002
2.809822e+003,5.518088e-002
2.811751e+003,5.862925e-002
2.813679e+003,6.252012e-002
2.815608e+003,6.704828e-002
2.817536e+003,7.232854e-002
2.819465e+003,7.869011e-002
2.821393e+003,8.630084e-002
2.823322e+003,9.555309e-002
2.825250e+003,1.070987e-001
2.827179e+003,1.217201e-001
2.829107e+003,1.405946e-001
2.831036e+003,1.655401e-001
2.832964e+003,1.994918e-001
2.834893e+003,2.472851e-001
2.836821e+003,3.156172e-001
2.838750e+003,4.153129e-001
2.840678e+003,5.643374e-001
2.842607e+003,7.847782e-001
2.844535e+003,1.085889e+000
2.846464e+003,1.387445e+000
2.848392e+003,1.427488e+000
2.850321e+003,1.154343e+000
2.852249e+003,8.513579e-001
2.854178e+003,6.359175e-001
2.856106e+003,4.883042e-001
2.858035e+003,3.833600e-001
2.859963e+003,3.084608e-001
2.861892e+003,2.560632e-001
2.863820e+003,2.210701e-001
2.865749e+003,1.996115e-001
2.867677e+003,1.885586e-001
2.869606e+003,1.849376e-001
2.871534e+003,1.860702e-001
2.873463e+003,1.912909e-001
2.875391e+003,2.022057e-001
2.877320e+003,2.197772e-001
2.879248e+003,2.433301e-001
2.881177e+003,2.717339e-001
2.883105e+003,3.038504e-001
2.885034e+003,3.390242e-001
2.886962e+003,3.768824e-001
2.888891e+003,4.163502e-001
2.890819e+003,4.565064e-001
2.892748e+003,4.966135e-001
2.894676e+003,5.361812e-001
2.896605e+003,5.759792e-001
2.898533e+003,6.179248e-001
2.900462e+003,6.650655e-001
2.902390e+003,7.221952e-001
2.904319e+003,7.965340e-001
2.906247e+003,8.980739e-001
2.908176e+003,1.038131e+000
2.910104e+003,1.224978e+000
2.912033e+003,1.445198e+000
2.913961e+003,1.621978e+000
2.915890e+003,1.630924e+000
2.917818e+003,1.461377e+000
2.919747e+003,1.232181e+000
2.921675e+003,1.023739e+000
2.923604e+003,8.534437e-001
2.925532e+003,7.176415e-001
2.927461e+003,6.076351e-001
2.929389e+003,5.157696e-001
2.931318e+003,4.374868e-001
2.933246e+003,3.702827e-001
2.935175e+003,3.127533e-001
2.937103e+003,2.638519e-001
2.939032e+003,2.225283e-001
2.940960e+003,1.881188e-001
2.942889e+003,1.601425e-001
2.944817e+003,1.382185e-001
2.946746e+003,1.220096e-001
2.948674e+003,1.108020e-001
2.950603e+003,1.032955e-001
2.952531e+003,9.767614e-002
2.954460e+003,9.244780e-002
2.956388e+003,8.671026e-002
2.958317e+003,8.034447e-002
2.960245e+003,7.364909e-002
2.962174e+003,6.666449e-002
2.964102e+003,5.976459e-002
2.966031e+003,5.317611e-002
2.967959e+003,4.727636e-002
2.969888e+003,4.220992e-002
2.971816e+003,3.792030e-002
2.973745e+003,3.429303e-002
2.975673e+003,3.133505e-002
2.977602e+003,2.888906e-002
2.979530e+003,2.676342e-002
2.981459e+003,2.495351e-002
2.983387e+003,2.344214e-002
2.985316e+003,2.220876e-002
2.987244e+003,2.110492e-002
2.989173e+003,2.007827e-002
2.991101e+003,1.926179e-002
2.993030e+003,1.862262e-002
2.994958e+003,1.804125e-002
2.996887e+003,1.757276e-002
2.998815e+003,1.721665e-002
3.000744e+003,1.686493e-002
3.002672e+003,1.650589e-002
3.004601e+003,1.613110e-002
3.006529e+003,1.573331e-002
3.008458e+003,1.522844e-002
3.010386e+003,1.477789e-002
3.012315e+003,1.432928e-002
3.014243e+003,1.386962e-002
3.016172e+003,1.345820e-002
3.018100e+003,1.303315e-002
3.020029e+003,1.267718e-002
3.021957e+003,1.244387e-002
3.023886e+003,1.219814e-002
3.025814e+003,1.193651e-002
3.027743e+003,1.160547e-002
3.029671e+003,1.133494e-002
3.031600e+003,1.117447e-002
3.033528e+003,1.090579e-002
3.035457e+003,1.054213e-002
3.037385e+003,1.022740e-002
3.039314e+003,9.905340e-003
3.041242e+003,9.568161e-003
3.043171e+003,9.175177e-003
3.045099e+003,8.900642e-003
3.047028e+003,8.683203e-003
3.048956e+003,8.495829e-003
3.050885e+003,8.243273e-003
3.052813e+003,8.028893e-003
3.054742e+003,7.854738e-003
3.056670e+003,7.653315e-003
3.058599e+003,7.495282e-003
3.060527e+003,7.289699e-003
3.062456e+003,7.127848e-003
3.064384e+003,7.012611e-003
3.066313e+003,6.776632e-003
3.068241e+003,6.724290e-003
3.070170e+003,6.675796e-003
3.072098e+003,6.502409e-003
3.074027e+003,6.376854e-003
3.075955e+003,6.239559e-003
3.077884e+003,6.088081e-003
3.079812e+003,6.016620e-003
3.081741e+003,5.868960e-003
3.083669e+003,5.674064e-003
3.085598e+003,5.517842e-003
3.087526e+003,5.388223e-003
3.089455e+003,5.157514e-003
3.091383e+003,4.884152e-003
3.093312e+003,4.608572e-003
3.095240e+003,4.316095e-003
3.097169e+003,4.058357e-003
3.099097e+003,3.813919e-003
3.101026e+003,3.692916e-003
3.102954e+003,3.605349e-003
3.104883e+003,3.356479e-003
3.106811e+003,3.100228e-003
3.108740e+003,2.958909e-003
3.110668e+003,2.912672e-003
3.112597e+003,2.792934e-003
3.114525e+003,2.694936e-003
3.116454e+003,2.654552e-003
3.118382e+003,2.560414e-003
3.120311e+003,2.436295e-003
3.122239e+003,2.425142e-003
3.124168e+003,2.381006e-003
3.126096e+003,2.325067e-003
3.128025e+003,2.316568e-003
3.129953e+003,2.246197e-003
3.131882e+003,2.203869e-003
3.133810e+003,2.308078e-003
3.135739e+003,2.279965e-003
3.137667e+003,2.167663e-003
3.139596e+003,2.078401e-003
3.141524e+003,2.025047e-003
3.143453e+003,2.079220e-003
3.145381e+003,2.140854e-003
3.147310e+003,2.095748e-003
3.149238e+003,2.020650e-003
3.151167e+003,2.069172e-003
3.153095e+003,2.094679e-003
3.155024e+003,2.060853e-003
3.156952e+003,2.034813e-003
3.158881e+003,1.994612e-003
3.160809e+003,2.023211e-003
3.162738e+003,2.067754e-003
3.164666e+003,2.103454e-003
3.166594e+003,2.144670e-003
3.168523e+003,2.151165e-003
3.170452e+003,2.131566e-003
3.172380e+003,2.135875e-003
3.174309e+003,2.145469e-003
3.176237e+003,2.175927e-003
3.178166e+003,2.229571e-003
3.180094e+003,2.262808e-003
3.182022e+003,2.213752e-003
3.183951e+003,2.224129e-003
3.185880e+003,2.253560e-003
3.187808e+003,2.142850e-003
3.189737e+003,2.066290e-003
3.191665e+003,2.169684e-003
3.193594e+003,2.275398e-003
3.195522e+003,2.368093e-003
3.197450e+003,2.399882e-003
3.199379e+003,2.344534e-003
3.201308e+003,2.304381e-003
3.203236e+003,2.330313e-003
3.205165e+003,2.310829e-003
3.207093e+003,2.265749e-003
3.209021e+003,2.221450e-003
3.210950e+003,2.212863e-003
3.212878e+003,2.226410e-003
3.214807e+003,2.340486e-003
3.216736e+003,2.351072e-003
3.218664e+003,2.346307e-003
3.220593e+003,2.327854e-003
3.222521e+003,2.268208e-003
3.224449e+003,2.226293e-003
3.226378e+003,2.209831e-003
3.228307e+003,2.328983e-003
3.230235e+003,2.429388e-003
3.232164e+003,2.420399e-003
3.234092e+003,2.397228e-003
3.236021e+003,2.358168e-003
3.237949e+003,2.341587e-003
3.239877e+003,2.426183e-003
3.241806e+003,2.539495e-003
3.243735e+003,2.585202e-003
3.245663e+003,2.627565e-003
3.247592e+003,2.624122e-003
3.249520e+003,2.639579e-003
3.251448e+003,2.624869e-003
3.253377e+003,2.703171e-003
3.255305e+003,2.795080e-003
3.257234e+003,2.797879e-003
3.259163e+003,2.866298e-003
3.261091e+003,2.946209e-003
3.263020e+003,2.944607e-003
3.264948e+003,3.008960e-003
3.266876e+003,3.021587e-003
3.268805e+003,2.898194e-003
3.270733e+003,2.879007e-003
3.272662e+003,2.964202e-003
3.274591e+003,3.088472e-003
3.276519e+003,3.193179e-003
3.278448e+003,3.129505e-003
3.280376e+003,3.089458e-003
3.282304e+003,3.156023e-003
3.284233e+003,3.206769e-003
3.286161e+003,3.148841e-003
3.288090e+003,3.093638e-003
3.290019e+003,3.139261e-003
3.291947e+003,3.188809e-003
3.293875e+003,3.140723e-003
3.295804e+003,3.142474e-003
3.297732e+003,3.160398e-003
3.299661e+003,3.188586e-003
3.301589e+003,3.231697e-003
3.303518e+003,3.236830e-003
3.305447e+003,3.187494e-003
3.307375e+003,3.202226e-003
3.309303e+003,3.293904e-003
3.311232e+003,3.275786e-003
3.313160e+003,3.240308e-003
3.315089e+003,3.292918e-003
3.317018e+003,3.348950e-003
3.318946e+003,3.237246e-003
3.320875e+003,3.135186e-003
3.322803e+003,3.223253e-003
3.324731e+003,3.325233e-003
3.326660e+003,3.369126e-003
3.328588e+003,3.352759e-003
3.330517e+003,3.368173e-003
3.332446e+003,3.370630e-003
3.334374e+003,3.386391e-003
3.336302e+003,3.414493e-003
3.338231e+003,3.396006e-003
3.340159e+003,3.392018e-003
3.342088e+003,3.409447e-003
3.344016e+003,3.391126e-003
3.345945e+003,3.378907e-003
3.347874e+003,3.358126e-003
3.349802e+003,3.372816e-003
3.351730e+003,3.254557e-003
3.353659e+003,3.199663e-003
3.355587e+003,3.282739e-003
3.357516e+003,3.293769e-003
3.359444e+003,3.227800e-003
3.361373e+003,3.267935e-003
3.363302e+003,3.312178e-003
3.365230e+003,3.265237e-003
3.367158e+003,3.241912e-003
3.369087e+003,3.304491e-003
3.371015e+003,3.293939e-003
3.372944e+003,3.245644e-003
3.374872e+003,3.221236e-003
3.376801e+003,3.092449e-003
3.378729e+003,3.042068e-003
3.380658e+003,3.070112e-003
3.382586e+003,3.047967e-003
3.384515e+003,3.036525e-003
3.386443e+003,2.943682e-003
3.388372e+003,2.925402e-003
3.390300e+003,2.965294e-003
3.392229e+003,2.982156e-003
3.394157e+003,2.864970e-003
3.396086e+003,2.824489e-003
3.398014e+003,2.856396e-003
3.399943e+003,2.762940e-003
3.401871e+003,2.657922e-003
3.403800e+003,2.704127e-003
3.405728e+003,2.725435e-003
3.407657e+003,2.640152e-003
3.409585e+003,2.573268e-003
3.411514e+003,2.593631e-003
3.413442e+003,2.608102e-003
3.415371e+003,2.531702e-003
3.417299e+003,2.384055e-003
3.419228e+003,2.421996e-003
3.421156e+003,2.584001e-003
3.423085e+003,2.521720e-003
3.425013e+003,2.465187e-003
3.426942e+003,2.484310e-003
3.428870e+003,2.309440e-003
3.430799e+003,2.332522e-003
3.432727e+003,2.354397e-003
3.434656e+003,2.334191e-003
3.436584e+003,2.475718e-003
3.438513e+003,2.473757e-003
3.440441e+003,2.296463e-003
3.442370e+003,2.329608e-003
3.444298e+003,2.289610e-003
3.446227e+003,2.442637e-003
3.448155e+003,2.495298e-003
3.450084e+003,2.122970e-003
3.452012e+003,1.886684e-003
3.453941e+003,1.960991e-003
3.455869e+003,1.911709e-003
3.457798e+003,1.829147e-003
3.459726e+003,1.754526e-003
3.461655e+003,1.808312e-003
3.463583e+003,1.834426e-003
3.465512e+003,1.612913e-003
3.467440e+003,1.578555e-003
3.469369e+003,1.644587e-003
3.471297e+003,1.602829e-003
3.473226e+003,1.584845e-003
3.475154e+003,1.531187e-003
3.477083e+003,1.355242e-003
3.479011e+003,1.211621e-003
3.480940e+003,1.391118e-003
3.482868e+003,1.630349e-003
3.484797e+003,1.512898e-003
3.486725e+003,1.251351e-003
3.488654e+003,1.201048e-003
3.490582e+003,1.167102e-003
3.492511e+003,1.129355e-003
3.494439e+003,1.073865e-003
3.496368e+003,1.072790e-003
3.498296e+003,1.057660e-003
3.500225e+003,9.950604e-004
3.502153e+003,1.180621e-003
3.504082e+003,1.252851e-003
3.506010e+003,9.899382e-004
3.507939e+003,1.007700e-003
3.509867e+003,1.074890e-003
3.511796e+003,8.776374e-004
3.513724e+003,7.360745e-004
3.515653e+003,7.705968e-004
3.517581e+003,7.701200e-004
3.519510e+003,6.784853e-004
3.521438e+003,5.807709e-004
3.523367e+003,7.877536e-004
3.525295e+003,8.978024e-004
3.527224e+003,1.045305e-003
3.529152e+003,1.012098e-003
3.531081e+003,6.982610e-004
3.533009e+003,2.422500e-004
3.534938e+003,2.691466e-004
3.536866e+003,5.713981e-004
3.538795e+003,4.131459e-004
3.540723e+003,1.560170e-004
3.542652e+003,2.412088e-004
3.544580e+003,4.788153e-004
3.546509e+003,6.672498e-004
3.548437e+003,4.537869e-004
3.550366e+003,1.531765e-004
3.552294e+003,1.846552e-004
3.554223e+003,1.857635e-004
3.556151e+003,1.450703e-004
3.558080e+003,1.602042e-004
3.560008e+003,7.272884e-005
3.561937e+003,-1.677424e-004
3.563865e+003,-4.862640e-004
3.565794e+003,-9.715185e-005
3.567722e+003,9.080563e-004
3.569651e+003,5.110353e-004
3.571579e+003,-1.361910e-004
3.573508e+003,-3.637895e-004
3.575436e+003,-2.468862e-004
3.577365e+003,-7.834285e-005
3.579293e+003,9.834580e-005
3.581222e+003,1.285411e-005
3.583150e+003,-3.789440e-004
3.585079e+003,-4.892237e-004
3.587007e+003,6.593280e-004
3.588936e+003,1.231752e-003
3.590864e+003,5.157329e-004
3.592793e+003,2.915859e-004
3.594721e+003,6.984435e-004
3.596650e+003,1.042157e-003
3.598578e+003,1.449464e-003
3.600507e+003,2.197836e-003
3.602435e+003,2.443690e-003
3.604364e+003,1.846740e-003
3.606292e+003,1.587363e-003
3.608221e+003,2.249351e-003
3.610149e+003,1.995029e-003
3.612078e+003,1.358692e-003
3.614006e+003,1.321279e-003
3.615935e+003,7.744022e-004
3.617863e+003,1.140397e-003
3.619792e+003,1.999678e-003
3.621720e+003,1.263974e-003
3.623649e+003,1.994129e-004
3.625577e+003,-8.326806e-004
3.627506e+003,-1.213338e-003
3.629434e+003,1.495659e-003
3.631363e+003,1.560524e-003
3.633291e+003,7.211585e-004
3.635220e+003,6.132163e-004
3.637148e+003,4.028827e-004
3.639077e+003,5.162153e-004
3.641005e+003,6.949771e-004
3.642934e+003,4.970599e-004
3.644862e+003,-3.582332e-004
3.646791e+003,-7.372480e-004
3.648719e+003,1.276521e-003
3.650648e+003,2.565544e-003
3.652576e+003,6.640069e-004
3.654505e+003,-7.207710e-004
3.656433e+003,-4.030112e-004
3.658362e+003,1.705606e-004
3.660290e+003,1.524221e-004
3.662219e+003,-1.098216e-004
3.664147e+003,-4.731379e-004
3.666076e+003,-1.081431e-003
3.668004e+003,-1.434669e-003
3.669933e+003,-6.323680e-005
3.671861e+003,-4.086234e-004
3.673790e+003,-1.574412e-003
3.675718e+003,7.641166e-004
3.677647e+003,1.398131e-003
3.679575e+003,7.926449e-004
3.681504e+003,9.127893e-005
3.683432e+003,-8.738302e-004
3.685361e+003,-1.688385e-003
3.687289e+003,-2.062822e-003
3.689218e+003,-3.918540e-004
3.691146e+003,1.235574e-003
3.693075e+003,7.751212e-004
3.695003e+003,-8.597039e-005
3.696932e+003,-5.411915e-004
3.698860e+003,-8.826870e-004
3.700789e+003,-5.920045e-004
3.702717e+003,-6.930716e-005
3.704646e+003,-4.078094e-004
3.706574e+003,-1.036959e-003
3.708503e+003,-1.418965e-003
3.710431e+003,-3.918596e-004
3.712360e+003,8.140672e-004
3.714288e+003,1.844801e-004
3.716217e+003,-7.336717e-004
3.718145e+003,-1.218408e-003
3.720074e+003,-1.252448e-003
3.722002e+003,-8.993763e-004
3.723931e+003,-5.739368e-005
3.725859e+003,4.295949e-004
3.727788e+003,-1.120456e-004
3.729716e+003,-1.482708e-003
3.731645e+003,-1.757095e-003
3.733573e+003,-5.503502e-004
3.735502e+003,6.147325e-004
3.737430e+003,9.122677e-004
3.739359e+003,4.573278e-004
3.741287e+003,-6.835721e-004
3.743216e+003,-1.741087e-003
3.745144e+003,-2.740882e-005
3.747073e+003,-2.196003e-004
3.749001e+003,-7.624198e-004
3.750930e+003,7.187817e-004
3.752858e+003,1.029752e-003
3.754787e+003,1.985375e-004
3.756715e+003,-4.359968e-004
3.758644e+003,-5.748495e-005
3.760572e+003,3.142618e-004
3.762501e+003,-2.847575e-004
3.764429e+003,-6.295312e-004
3.766358e+003,-4.254114e-004
3.768286e+003,-2.910793e-004
3.770215e+003,4.750919e-004
3.772143e+003,2.913810e-004
3.774072e+003,-2.798140e-004
3.776000e+003,-6.675869e-004
3.777929e+003,-7.806364e-004
3.779857e+003,3.072992e-005
3.781786e+003,1.385622e-005
3.783714e+003,-2.273452e-004
3.785643e+003,7.427484e-005
3.787571e+003,-1.619626e-004
3.789500e+003,-3.039856e-004
3.791428e+003,-3.350750e-004
3.793357e+003,-8.444507e-004
3.795285e+003,-6.534103e-004
3.797214e+003,-8.588098e-005
3.799142e+003,-7.969588e-004
3.801071e+003,-2.503246e-004
3.802999e+003,5.970169e-004
3.804927e+003,-2.982933e-004
3.806856e+003,4.880130e-007
3.808785e+003,4.244465e-004
3.810713e+003,5.563349e-005
3.812642e+003,-5.834196e-004
3.814570e+003,-8.644778e-004
3.816499e+003,-4.702993e-005
3.818427e+003,-6.360877e-004
3.820355e+003,-5.104188e-004
3.822284e+003,1.299307e-003
3.824213e+003,6.605592e-004
3.826141e+003,4.244335e-004
3.828070e+003,4.766677e-004
3.829998e+003,-3.747158e-004
3.831927e+003,-6.890520e-004
3.833855e+003,-3.453512e-004
3.835783e+003,-4.956443e-004
3.837712e+003,2.704449e-004
3.839641e+003,1.210760e-003
3.841569e+003,1.187474e-003
3.843498e+003,1.325134e-003
3.845426e+003,7.951390e-004
3.847354e+003,-4.229937e-004
3.849283e+003,-1.336403e-003
3.851211e+003,-2.064895e-003
3.853140e+003,6.686058e-004
3.855069e+003,2.449956e-003
3.856997e+003,1.523720e-003
3.858926e+003,3.321022e-004
3.860854e+003,-3.971178e-004
3.862782e+003,-1.962483e-004
3.864711e+003,7.887725e-004
3.866640e+003,2.530441e-004
3.868568e+003,-3.495291e-004
3.870497e+003,9.835977e-004
3.872425e+003,1.192916e-003
3.874354e+003,1.458215e-003
3.876282e+003,7.944051e-004
3.878210e+003,-4.660636e-004
3.880139e+003,-1.968443e-005
3.882068e+003,4.645605e-004
3.883996e+003,2.111029e-004
3.885925e+003,9.100568e-004
3.887853e+003,4.129000e-004
3.889781e+003,-3.494397e-004
3.891710e+003,8.994434e-004
3.893638e+003,1.195641e-003
3.895567e+003,2.613347e-004
3.897496e+003,-4.265439e-004
3.899424e+003,-3.509428e-004
3.901353e+003,2.887845e-005
3.903281e+003,1.300354e-003
3.905209e+003,2.303775e-003
3.907138e+003,1.465101e-003
3.909066e+003,4.469957e-004
3.910995e+003,1.071133e-004
3.912924e+003,2.838671e-006
3.914852e+003,-6.047264e-005
3.916781e+003,4.082378e-004
3.918709e+003,7.113777e-004
3.920637e+003,6.757192e-004
3.922566e+003,5.316753e-004
3.924494e+003,5.858131e-004
3.926423e+003,3.425088e-004
3.928352e+003,-7.276237e-005
3.930280e+003,1.811106e-004
3.932208e+003,7.145852e-004
3.934137e+003,6.931890e-004
3.936065e+003,3.090762e-004
3.937994e+003,4.485995e-005
3.939922e+003,-3.728922e-004
3.941851e+003,-1.611039e-004
3.943780e+003,3.071520e-004
3.945708e+003,1.361519e-004
3.947636e+003,1.186449e-004
3.949565e+003,3.845897e-004
3.951493e+003,3.121607e-004
3.953422e+003,1.409426e-004
3.955351e+003,-1.841038e-005
3.957279e+003,-2.156645e-004
3.959208e+003,-2.553985e-004
3.961136e+003,-4.070066e-005
3.963064e+003,1.081806e-004
3.964993e+003,-4.977174e-005
3.966921e+003,-2.092961e-004
3.968850e+003,-1.261868e-004
3.970779e+003,-1.540706e-004
3.972707e+003,-1.403131e-004
3.974635e+003,-2.925284e-005
3.976564e+003,-2.298504e-006
3.978492e+003,-8.128211e-005
3.980421e+003,-9.400584e-005
3.982349e+003,-1.175441e-004
3.984278e+003,-2.037343e-004
3.986207e+003,-3.294777e-004
3.988135e+003,-3.186353e-004
3.990063e+003,-1.986492e-004
3.991992e+003,-1.114141e-004
3.993920e+003,-1.289081e-004
3.995849e+003,-1.494251e-004
3.997777e+003,-2.313666e-004
3.999706e+003,-2.336577e-004
4.001635e+003,0.000000e+000
