3.991992e+002,0.000000e+000
4.011277e+002,0.000000e+000
4.030562e+002,0.000000e+000
4.049846e+002,0.000000e+000
4.069131e+002,0.000000e+000
4.088416e+002,0.000000e+000
4.107701e+002,0.000000e+000
4.126986e+002,0.000000e+000
4.146271e+002,0.000000e+000
4.165556e+002,0.000000e+000
4.184841e+002,0.000000e+000
4.204126e+002,0.000000e+000
4.223411e+002,0.000000e+000
4.242697e+002,0.000000e+000
4.261982e+002,0.000000e+000
4.281266e+002,0.000000e+000
4.300551e+002,0.000000e+000
4.319836e+002,0.000000e+000
4.339121e+002,0.000000e+000
4.358406e+002,0.000000e+000
4.377691e+002,0.000000e+000
4.396976e+002,0.000000e+000
4.416261e+002,0.000000e+000
4.435546e+002,0.000000e+000
4.454831e+002,0.000000e+000
4.474116e+002,0.000000e+000
4.493401e+002,0.000000e+000
4.512686e+002,0.000000e+000
4.531971e+002,0.000000e+000
4.551256e+002,0.000000e+000
4.570541e+002,0.000000e+000
4.589826e+002,0.000000e+000
4.609111e+002,0.000000e+000
4.628396e+002,0.000000e+000
4.647681e+002,0.000000e+000
4.666966e+002,0.000000e+000
4.686251e+002,0.000000e+000
4.705536e+002,0.000000e+000
4.724821e+002,0.000000e+000
4.744106e+002,0.000000e+000
4.763391e+002,0.000000e+000
4.782676e+002,0.000000e+000
4.801961e+002,0.000000e+000
4.821246e+002,0.000000e+000
4.840531e+002,0.000000e+000
4.859816e+002,0.000000e+000
4.879101e+002,0.000000e+000
4.898386e+002,0.000000e+000
4.917671e+002,0.000000e+000
4.936956e+002,0.000000e+000
4.956241e+002,0.000000e+000
4.975526e+002,0.000000e+000
4.994811e+002,0.000000e+000
5.014096e+002,0.000000e+000
5.033381e+002,0.000000e+000
5.052666e+002,0.000000e+000
5.071951e+002,0.000000e+000
5.091236e+002,0.000000e+000
5.110521e+002,0.000000e+000
5.129806e+002,0.000000e+000
5.149091e+002,0.000000e+000
5.168376e+002,0.000000e+000
5.187661e+002,0.000000e+000
5.206946e+002,0.000000e+000
5.226230e+002,0.000000e+000
5.245516e+002,1.767483e-004
5.264800e+002,2.698060e-004
5.284086e+002,8.055009e-005
5.303370e+002,-3.976934e-005
5.322656e+002,-6.812811e-005
5.341940e+002,9.516068e-005
5.361226e+002,2.264101e-004
5.380510e+002,1.192205e-004
5.399796e+002,6.366521e-006
5.419081e+002,6.318092e-005
5.438365e+002,1.588129e-004
5.457650e+002,1.928210e-005
5.476935e+002,-8.579530e-005
5.496221e+002,3.131852e-005
5.515505e+002,2.849698e-004
5.534790e+002,4.326086e-004
5.554075e+002,4.598852e-004
5.573361e+002,1.845192e-004
5.592645e+002,1.419727e-004
5.611931e+002,3.934465e-005
5.631215e+002,-1.509674e-005
5.650500e+002,-2.812594e-005
5.669785e+002,2.959371e-005
5.689070e+002,9.391271e-005
5.708355e+002,8.074380e-005
5.727640e+002,7.869489e-005
5.746925e+002,4.898570e-005
5.766210e+002,-8.959882e-005
5.785495e+002,-1.715478e-004
5.804780e+002,-2.252646e-004
5.824065e+002,-2.165437e-004
5.843350e+002,-8.507632e-005
5.862635e+002,1.038667e-004
5.881920e+002,1.235995e-004
5.901205e+002,-1.792423e-005
5.920490e+002,-9.323657e-005
5.939775e+002,1.360849e-005
5.959060e+002,2.037361e-005
5.978345e+002,9.667128e-005
5.997630e+002,8.734688e-005
6.016915e+002,1.409315e-004
6.036200e+002,2.123471e-004
6.055485e+002,1.910776e-004
6.074770e+002,1.459755e-005
6.094055e+002,-5.822629e-005
6.113340e+002,-1.000054e-005
6.132625e+002,-3.398582e-005
6.151910e+002,-1.135524e-004
6.171195e+002,-8.901581e-005
6.190480e+002,-4.238263e-005
6.209765e+002,8.720532e-005
6.229050e+002,1.203679e-004
6.248335e+002,1.911689e-004
6.267620e+002,3.089961e-004
6.286905e+002,3.447346e-004
6.306190e+002,2.835859e-004
6.325475e+002,3.593769e-004
6.344760e+002,5.042646e-004
6.364045e+002,7.386319e-004
6.383330e+002,7.193722e-004
6.402615e+002,6.801877e-004
6.421899e+002,6.650258e-004
6.441185e+002,6.972868e-004
6.460470e+002,6.234869e-004
6.479755e+002,6.722473e-004
6.499039e+002,6.953068e-004
6.518325e+002,7.448662e-004
6.537610e+002,7.887091e-004
6.556895e+002,8.058492e-004
6.576179e+002,7.799100e-004
6.595464e+002,8.155443e-004
6.614750e+002,6.999727e-004
6.634034e+002,8.067805e-004
6.653319e+002,9.878371e-004
6.672604e+002,9.935033e-004
6.691890e+002,1.021337e-003
6.711174e+002,1.229025e-003
6.730460e+002,1.326825e-003
6.749745e+002,1.482062e-003
6.769030e+002,1.501609e-003
6.788314e+002,1.669019e-003
6.807599e+002,1.873478e-003
6.826885e+002,2.101382e-003
6.846169e+002,2.279589e-003
6.865454e+002,2.498742e-003
6.884739e+002,2.672616e-003
6.904025e+002,3.030689e-003
6.923309e+002,3.319401e-003
6.942594e+002,3.716152e-003
6.961879e+002,4.282113e-003
6.981165e+002,5.109597e-003
7.000449e+002,6.039087e-003
7.019734e+002,7.362742e-003
7.039019e+002,9.057811e-003
7.058304e+002,1.142576e-002
7.077589e+002,1.457204e-002
7.096874e+002,1.950705e-002
7.116159e+002,2.752394e-002
7.135444e+002,4.283560e-002
7.154729e+002,6.950574e-002
7.174014e+002,1.046203e-001
7.193299e+002,1.186484e-001
7.212584e+002,8.826084e-002
7.231869e+002,5.847451e-002
7.251154e+002,4.792943e-002
7.270439e+002,5.222130e-002
7.289724e+002,6.851742e-002
7.309009e+002,6.613611e-002
7.328294e+002,3.828926e-002
7.347579e+002,1.955451e-002
7.366864e+002,1.284782e-002
7.386149e+002,1.005674e-002
7.405434e+002,8.434569e-003
7.424719e+002,7.434838e-003
7.444004e+002,6.642714e-003
7.463289e+002,6.103346e-003
7.482574e+002,5.633445e-003
7.501859e+002,5.286302e-003
7.521144e+002,4.873756e-003
7.540428e+002,4.575986e-003
7.559714e+002,4.185842e-003
7.578999e+002,3.921401e-003
7.598284e+002,3.754327e-003
7.617568e+002,3.630819e-003
7.636854e+002,3.432486e-003
7.656139e+002,3.311429e-003
7.675424e+002,3.165297e-003
7.694709e+002,3.016353e-003
7.713994e+002,2.892092e-003
7.733279e+002,2.761312e-003
7.752563e+002,2.670653e-003
7.771849e+002,2.626954e-003
7.791134e+002,2.547996e-003
7.810419e+002,2.486402e-003
7.829703e+002,2.521994e-003
7.848989e+002,2.588242e-003
7.868274e+002,2.589468e-003
7.887559e+002,2.543487e-003
7.906843e+002,2.550030e-003
7.926129e+002,2.592934e-003
7.945414e+002,2.570387e-003
7.964698e+002,2.573144e-003
7.983983e+002,2.655555e-003
8.003268e+002,2.695553e-003
8.022554e+002,2.640931e-003
8.041838e+002,2.659429e-003
8.061123e+002,2.686452e-003
8.080408e+002,2.552526e-003
8.099694e+002,2.412891e-003
8.118978e+002,2.313649e-003
8.138263e+002,2.197266e-003
8.157548e+002,2.120156e-003
8.176833e+002,2.075074e-003
8.196118e+002,1.986766e-003
8.215403e+002,1.947179e-003
8.234689e+002,1.862461e-003
8.253973e+002,1.760799e-003
8.273258e+002,1.733227e-003
8.292543e+002,1.725243e-003
8.311829e+002,1.674596e-003
8.331113e+002,1.664745e-003
8.350398e+002,1.617480e-003
8.369683e+002,1.606731e-003
8.388969e+002,1.657534e-003
8.408253e+002,1.758628e-003
8.427538e+002,1.798021e-003
8.446823e+002,1.784716e-003
8.466108e+002,1.790464e-003
8.485393e+002,1.850203e-003
8.504678e+002,1.855938e-003
8.523963e+002,1.843954e-003
8.543248e+002,1.855243e-003
8.562533e+002,1.868095e-003
8.581818e+002,1.883443e-003
8.601103e+002,1.958748e-003
8.620388e+002,1.875306e-003
8.639673e+002,1.870008e-003
8.658958e+002,1.927204e-003
8.678243e+002,1.972266e-003
8.697528e+002,1.993529e-003
8.716813e+002,2.064168e-003
8.736098e+002,2.065470e-003
8.755383e+002,2.095431e-003
8.774668e+002,2.134347e-003
8.793953e+002,2.178116e-003
8.813238e+002,2.165727e-003
8.832523e+002,2.294870e-003
8.851808e+002,2.356222e-003
8.871093e+002,2.407456e-003
8.890378e+002,2.502132e-003
8.909663e+002,2.497084e-003
8.928948e+002,2.337502e-003
8.948232e+002,2.221204e-003
8.967518e+002,2.142109e-003
8.986803e+002,2.190888e-003
9.006088e+002,2.277201e-003
9.025372e+002,2.422780e-003
9.044658e+002,2.649676e-003
9.063943e+002,3.065020e-003
9.083228e+002,3.317861e-003
9.102512e+002,3.148282e-003
9.121797e+002,2.729608e-003
9.141083e+002,2.461780e-003
9.160367e+002,2.248744e-003
9.179653e+002,2.077265e-003
9.198937e+002,1.930790e-003
9.218223e+002,1.883974e-003
9.237507e+002,1.903465e-003
9.256793e+002,1.961028e-003
9.276077e+002,1.933072e-003
9.295363e+002,1.930000e-003
9.314647e+002,1.985135e-003
9.333932e+002,1.981340e-003
9.353217e+002,1.942242e-003
9.372502e+002,1.974132e-003
9.391787e+002,1.994325e-003
9.411072e+002,2.017943e-003
9.430358e+002,2.008555e-003
9.449642e+002,2.026780e-003
9.468928e+002,2.043260e-003
9.488212e+002,2.045454e-003
9.507498e+002,2.131904e-003
9.526782e+002,2.258809e-003
9.546068e+002,2.273798e-003
9.565352e+002,2.305178e-003
9.584637e+002,2.317922e-003
9.603922e+002,2.446029e-003
9.623207e+002,2.590327e-003
9.642492e+002,2.698231e-003
9.661777e+002,2.704205e-003
9.681062e+002,2.700094e-003
9.700347e+002,2.675878e-003
9.719632e+002,2.638975e-003
9.738917e+002,2.593622e-003
9.758202e+002,2.626125e-003
9.777487e+002,2.625145e-003
9.796772e+002,2.649792e-003
9.816057e+002,2.698824e-003
9.835342e+002,2.779797e-003
9.854627e+002,2.886645e-003
9.873912e+002,3.079627e-003
9.893197e+002,3.155895e-003
9.912482e+002,3.168128e-003
9.931767e+002,3.144242e-003
9.951052e+002,3.176246e-003
9.970337e+002,3.156479e-003
9.989622e+002,3.163241e-003
1.000891e+003,3.181860e-003
1.002819e+003,3.255907e-003
1.004748e+003,3.305063e-003
1.006676e+003,3.427312e-003
1.008605e+003,3.522940e-003
1.010533e+003,3.627565e-003
1.012462e+003,3.747858e-003
1.014390e+003,3.922328e-003
1.016319e+003,4.060280e-003
1.018247e+003,4.215185e-003
1.020176e+003,4.222553e-003
1.022104e+003,4.280228e-003
1.024033e+003,4.354406e-003
1.025961e+003,4.446141e-003
1.027890e+003,4.497897e-003
1.029818e+003,4.571069e-003
1.031747e+003,4.575398e-003
1.033675e+003,4.631657e-003
1.035604e+003,4.658919e-003
1.037532e+003,4.665270e-003
1.039461e+003,4.634637e-003
1.041389e+003,4.684687e-003
1.043318e+003,4.711635e-003
1.045246e+003,4.830282e-003
1.047175e+003,4.979949e-003
1.049103e+003,5.167931e-003
1.051032e+003,5.229633e-003
1.052960e+003,5.242299e-003
1.054889e+003,5.250972e-003
1.056817e+003,5.358901e-003
1.058746e+003,5.481865e-003
1.060674e+003,5.688190e-003
1.062603e+003,5.748969e-003
1.064531e+003,5.762536e-003
1.066460e+003,5.762186e-003
1.068388e+003,5.847711e-003
1.070317e+003,5.948771e-003
1.072245e+003,6.153680e-003
1.074174e+003,6.386537e-003
1.076102e+003,6.734408e-003
1.078031e+003,7.010445e-003
1.079959e+003,7.186200e-003
1.081888e+003,7.247102e-003
1.083816e+003,7.371802e-003
1.085745e+003,7.479817e-003
1.087673e+003,7.606838e-003
1.089602e+003,7.663772e-003
1.091530e+003,7.755347e-003
1.093459e+003,7.750072e-003
1.095387e+003,7.704522e-003
1.097316e+003,7.638760e-003
1.099244e+003,7.606734e-003
1.101173e+003,7.463779e-003
1.103101e+003,7.393464e-003
1.105030e+003,7.249657e-003
1.106958e+003,7.126410e-003
1.108887e+003,7.048167e-003
1.110815e+003,7.120654e-003
1.112744e+003,7.194769e-003
1.114672e+003,7.269170e-003
1.116601e+003,7.283092e-003
1.118529e+003,7.350221e-003
1.120458e+003,7.316615e-003
1.122386e+003,7.238168e-003
1.124315e+003,7.068127e-003
1.126243e+003,6.961517e-003
1.128172e+003,6.945271e-003
1.130100e+003,7.125590e-003
1.132029e+003,7.395547e-003
1.133957e+003,7.761009e-003
1.135885e+003,8.169305e-003
1.137814e+003,8.687798e-003
1.139743e+003,9.147383e-003
1.141671e+003,9.603191e-003
1.143600e+003,9.979025e-003
1.145528e+003,1.042367e-002
1.147457e+003,1.097243e-002
1.149385e+003,1.176508e-002
1.151314e+003,1.259506e-002
1.153242e+003,1.332461e-002
1.155171e+003,1.384370e-002
1.157099e+003,1.426906e-002
1.159028e+003,1.453175e-002
1.160956e+003,1.468293e-002
1.162885e+003,1.458059e-002
1.164813e+003,1.434113e-002
1.166742e+003,1.394595e-002
1.168670e+003,1.347307e-002
1.170599e+003,1.289949e-002
1.172527e+003,1.236278e-002
1.174456e+003,1.182996e-002
1.176384e+003,1.134696e-002
1.178313e+003,1.069188e-002
1.180241e+003,1.015886e-002
1.182170e+003,9.796031e-003
1.184098e+003,9.599783e-003
1.186027e+003,9.399220e-003
1.187955e+003,9.269539e-003
1.189884e+003,9.170469e-003
1.191812e+003,9.167057e-003
1.193740e+003,9.151924e-003
1.195669e+003,9.218775e-003
1.197598e+003,9.288348e-003
1.199526e+003,9.484693e-003
1.201455e+003,9.669568e-003
1.203383e+003,9.954199e-003
1.205312e+003,1.031079e-002
1.207240e+003,1.070823e-002
1.209168e+003,1.100709e-002
1.211097e+003,1.131484e-002
1.213026e+003,1.153185e-002
1.214954e+003,1.178414e-002
1.216883e+003,1.200739e-002
1.218811e+003,1.229294e-002
1.220740e+003,1.249735e-002
1.222668e+003,1.277688e-002
1.224596e+003,1.305775e-002
1.226525e+003,1.335421e-002
1.228453e+003,1.363244e-002
1.230382e+003,1.396414e-002
1.232311e+003,1.418351e-002
1.234239e+003,1.434814e-002
1.236167e+003,1.443389e-002
1.238096e+003,1.450074e-002
1.240025e+003,1.441763e-002
1.241953e+003,1.428146e-002
1.243882e+003,1.398217e-002
1.245810e+003,1.362236e-002
1.247739e+003,1.313942e-002
1.249667e+003,1.274889e-002
1.251595e+003,1.235074e-002
1.253524e+003,1.204804e-002
1.255453e+003,1.178652e-002
1.257381e+003,1.158661e-002
1.259310e+003,1.128911e-002
1.261238e+003,1.102858e-002
1.263167e+003,1.063712e-002
1.265095e+003,1.023172e-002
1.267023e+003,9.813342e-003
1.268952e+003,9.567000e-003
1.270880e+003,9.362828e-003
1.272809e+003,9.307820e-003
1.274738e+003,9.231165e-003
1.276666e+003,9.228669e-003
1.278594e+003,9.257715e-003
1.280523e+003,9.380314e-003
1.282451e+003,9.395991e-003
1.284380e+003,9.454869e-003
1.286308e+003,9.491380e-003
1.288237e+003,9.725168e-003
1.290166e+003,9.924736e-003
1.292094e+003,1.026423e-002
1.294022e+003,1.064631e-002
1.295951e+003,1.113800e-002
1.297879e+003,1.148157e-002
1.299808e+003,1.178403e-002
1.301736e+003,1.187887e-002
1.303665e+003,1.192948e-002
1.305594e+003,1.179195e-002
1.307522e+003,1.166618e-002
1.309450e+003,1.138050e-002
1.311379e+003,1.109659e-002
1.313307e+003,1.062243e-002
1.315236e+003,1.017265e-002
1.317164e+003,9.696968e-003
1.319093e+003,9.296272e-003
1.321021e+003,8.760996e-003
1.322950e+003,8.375786e-003
1.324878e+003,8.019339e-003
1.326807e+003,7.856239e-003
1.328735e+003,7.691361e-003
1.330664e+003,7.744923e-003
1.332592e+003,7.939652e-003
1.334521e+003,8.431036e-003
1.336449e+003,9.046089e-003
1.338378e+003,1.001839e-002
1.340306e+003,1.078711e-002
1.342235e+003,1.116960e-002
1.344163e+003,1.153519e-002
1.346092e+003,1.223833e-002
1.348021e+003,1.297823e-002
1.349949e+003,1.380319e-002
1.351877e+003,1.416976e-002
1.353806e+003,1.421747e-002
1.355734e+003,1.399378e-002
1.357663e+003,1.405613e-002
1.359591e+003,1.436315e-002
1.361520e+003,1.526014e-002
1.363448e+003,1.651751e-002
1.365377e+003,1.761018e-002
1.367305e+003,1.834847e-002
1.369234e+003,1.839575e-002
1.371162e+003,1.730633e-002
1.373091e+003,1.629334e-002
1.375019e+003,1.602134e-002
1.376948e+003,1.603861e-002
1.378876e+003,1.431013e-002
1.380805e+003,1.142482e-002
1.382733e+003,9.113573e-003
1.384662e+003,8.079115e-003
1.386590e+003,7.581256e-003
1.388519e+003,7.314436e-003
1.390447e+003,6.824665e-003
1.392376e+003,6.691005e-003
1.394304e+003,6.685056e-003
1.396233e+003,6.832231e-003
1.398161e+003,6.675739e-003
1.400090e+003,6.777231e-003
1.402018e+003,6.512307e-003
1.403947e+003,6.749846e-003
1.405875e+003,6.786644e-003
1.407804e+003,6.899361e-003
1.409732e+003,6.997880e-003
1.411661e+003,7.483680e-003
1.413589e+003,7.721223e-003
1.415518e+003,8.304738e-003
1.417446e+003,8.663464e-003
1.419375e+003,9.578608e-003
1.421303e+003,9.705916e-003
1.423232e+003,1.063571e-002
1.425160e+003,1.202508e-002
1.427089e+003,1.403296e-002
1.429017e+003,1.663252e-002
1.430946e+003,2.061477e-002
1.432874e+003,2.378247e-002
1.434803e+003,2.676722e-002
1.436731e+003,3.001383e-002
1.438660e+003,3.267255e-002
1.440588e+003,3.394900e-002
1.442517e+003,3.600602e-002
1.444445e+003,3.750604e-002
1.446374e+003,3.998602e-002
1.448302e+003,4.364945e-002
1.450231e+003,4.913406e-002
1.452159e+003,5.739609e-002
1.454088e+003,6.837699e-002
1.456016e+003,7.962257e-002
1.457945e+003,1.068134e-001
1.459873e+003,1.556927e-001
1.461802e+003,2.046906e-001
1.463730e+003,2.021686e-001
1.465659e+003,1.546876e-001
1.467587e+003,1.406219e-001
1.469516e+003,1.381639e-001
1.471444e+003,1.570578e-001
1.473373e+003,1.395844e-001
1.475301e+003,7.596926e-002
1.477230e+003,3.409592e-002
1.479158e+003,2.195847e-002
1.481087e+003,1.631235e-002
1.483015e+003,1.366422e-002
1.484944e+003,1.150928e-002
1.486872e+003,1.100103e-002
1.488801e+003,9.783126e-003
1.490729e+003,9.479463e-003
1.492658e+003,8.004289e-003
1.494586e+003,7.863902e-003
1.496515e+003,7.331993e-003
1.498443e+003,7.467639e-003
1.500372e+003,6.655112e-003
1.502300e+003,6.570257e-003
1.504229e+003,5.958442e-003
1.506157e+003,7.016584e-003
1.508086e+003,6.638508e-003
1.510014e+003,6.168518e-003
1.511943e+003,5.475283e-003
1.513871e+003,5.594157e-003
1.515800e+003,5.624074e-003
1.517728e+003,6.025005e-003
1.519657e+003,5.426578e-003
1.521585e+003,6.066855e-003
1.523514e+003,5.413532e-003
1.525442e+003,5.410872e-003
1.527371e+003,5.051404e-003
1.529299e+003,5.070198e-003
1.531228e+003,4.774902e-003
1.533156e+003,5.388610e-003
1.535085e+003,5.081441e-003
1.537013e+003,4.989211e-003
1.538942e+003,5.254105e-003
1.540870e+003,6.297398e-003
1.542799e+003,5.189415e-003
1.544727e+003,5.269472e-003
1.546656e+003,4.621826e-003
1.548584e+003,4.699491e-003
1.550513e+003,4.749771e-003
1.552441e+003,4.727028e-003
1.554370e+003,4.609466e-003
1.556298e+003,4.784852e-003
1.558227e+003,4.790183e-003
1.560155e+003,5.195539e-003
1.562084e+003,4.168082e-003
1.564012e+003,4.074682e-003
1.565941e+003,3.939033e-003
1.567869e+003,4.050843e-003
1.569798e+003,4.187115e-003
1.571726e+003,4.080255e-003
1.573655e+003,3.789559e-003
1.575583e+003,4.320789e-003
1.577512e+003,4.211865e-003
1.579440e+003,3.920425e-003
1.581369e+003,3.758237e-003
1.583297e+003,3.830932e-003
1.585226e+003,3.734447e-003
1.587154e+003,3.766820e-003
1.589083e+003,3.720753e-003
1.591011e+003,3.875878e-003
1.592940e+003,3.831353e-003
1.594868e+003,3.867034e-003
1.596797e+003,3.717054e-003
1.598725e+003,3.721703e-003
1.600654e+003,3.614824e-003
1.602582e+003,3.685415e-003
1.604511e+003,3.626406e-003
1.606439e+003,3.767744e-003
1.608368e+003,3.816821e-003
1.610296e+003,3.869645e-003
1.612225e+003,3.712017e-003
1.614153e+003,3.752224e-003
1.616082e+003,4.067913e-003
1.618010e+003,4.276045e-003
1.619939e+003,3.896505e-003
1.621867e+003,4.053809e-003
1.623796e+003,4.238840e-003
1.625724e+003,4.221875e-003
1.627653e+003,4.312359e-003
1.629581e+003,4.426762e-003
1.631510e+003,4.265711e-003
1.633438e+003,4.348930e-003
1.635367e+003,4.853193e-003
1.637295e+003,5.276639e-003
1.639224e+003,4.923962e-003
1.641152e+003,4.865814e-003
1.643081e+003,4.823260e-003
1.645009e+003,5.196132e-003
1.646938e+003,5.891901e-003
1.648866e+003,5.333398e-003
1.650795e+003,4.712533e-003
1.652723e+003,5.584814e-003
1.654652e+003,5.659685e-003
1.656580e+003,4.941627e-003
1.658509e+003,4.624315e-003
1.660437e+003,4.635263e-003
1.662366e+003,4.574906e-003
1.664294e+003,4.478730e-003
1.666223e+003,4.130851e-003
1.668151e+003,4.193883e-003
1.670080e+003,4.338335e-003
1.672008e+003,3.974751e-003
1.673937e+003,3.718920e-003
1.675865e+003,3.939267e-003
1.677794e+003,3.513709e-003
1.679722e+003,3.533650e-003
1.681651e+003,3.373671e-003
1.683579e+003,3.587097e-003
1.685508e+003,3.715463e-003
1.687436e+003,3.384668e-003
1.689365e+003,3.194276e-003
1.691293e+003,3.213029e-003
1.693222e+003,2.947573e-003
1.695150e+003,3.469903e-003
1.697079e+003,3.757354e-003
1.699007e+003,3.520340e-003
1.700936e+003,3.592610e-003
1.702864e+003,3.442682e-003
1.704793e+003,3.362995e-003
1.706721e+003,3.614504e-003
1.708650e+003,3.423713e-003
1.710578e+003,3.550887e-003
1.712507e+003,3.720365e-003
1.714435e+003,4.200447e-003
1.716364e+003,4.492167e-003
1.718292e+003,4.916456e-003
1.720221e+003,4.701812e-003
1.722149e+003,4.691910e-003
1.724078e+003,4.985474e-003
1.726006e+003,5.396899e-003
1.727935e+003,5.876649e-003
1.729863e+003,7.003445e-003
1.731792e+003,7.734016e-003
1.733720e+003,9.468954e-003
1.735649e+003,1.117891e-002
1.737577e+003,1.199191e-002
1.739506e+003,1.416773e-002
1.741434e+003,1.657614e-002
1.743363e+003,1.838089e-002
1.745291e+003,1.973648e-002
1.747220e+003,2.019703e-002
1.749148e+003,1.954500e-002
1.751077e+003,1.736038e-002
1.753005e+003,1.436215e-002
1.754934e+003,1.175633e-002
1.756862e+003,9.081617e-003
1.758791e+003,6.823625e-003
1.760719e+003,5.357776e-003
1.762648e+003,4.039615e-003
1.764576e+003,3.053673e-003
1.766505e+003,2.492402e-003
1.768433e+003,2.299275e-003
1.770362e+003,1.888808e-003
1.772290e+003,1.910571e-003
1.774219e+003,1.570892e-003
1.776147e+003,1.219798e-003
1.778076e+003,1.015298e-003
1.780004e+003,1.088876e-003
1.781933e+003,9.388961e-004
1.783861e+003,9.233914e-004
1.785790e+003,7.880256e-004
1.787718e+003,7.313527e-004
1.789646e+003,6.613061e-004
1.791575e+003,9.523407e-004
1.793504e+003,8.420199e-004
1.795432e+003,5.880147e-004
1.797361e+003,3.231168e-004
1.799289e+003,4.271306e-004
1.801218e+003,4.890487e-004
1.803146e+003,4.151054e-004
1.805074e+003,1.907796e-004
1.807003e+003,2.192780e-004
1.808932e+003,8.401647e-005
1.810860e+003,1.502372e-004
1.812789e+003,-6.156415e-005
1.814717e+003,-2.675466e-004
1.816646e+003,-4.967786e-004
1.818574e+003,-2.115406e-004
1.820502e+003,-8.040294e-005
1.822431e+003,3.156438e-005
1.824360e+003,-3.258139e-005
1.826288e+003,-1.594052e-005
1.828217e+003,-2.693161e-004
1.830145e+003,-2.923720e-004
1.832073e+003,-5.972646e-004
1.834002e+003,-6.380305e-004
1.835931e+003,-7.334650e-004
1.837859e+003,-6.769300e-004
1.839788e+003,-7.718243e-004
1.841716e+003,-8.172020e-004
1.843645e+003,-8.127205e-004
1.845573e+003,-5.602688e-004
1.847501e+003,-8.866414e-004
1.849430e+003,-8.227117e-004
1.851359e+003,-8.086339e-004
1.853287e+003,-7.496104e-004
1.855216e+003,-9.255223e-004
1.857144e+003,-9.560809e-004
1.859073e+003,-1.057155e-003
1.861001e+003,-9.323135e-004
1.862929e+003,-1.113616e-003
1.864858e+003,-1.026735e-003
1.866787e+003,-1.179893e-003
1.868715e+003,-9.758882e-004
1.870644e+003,-1.124639e-003
1.872572e+003,-1.018591e-003
1.874500e+003,-1.211517e-003
1.876429e+003,-1.085669e-003
1.878357e+003,-1.109246e-003
1.880286e+003,-9.267069e-004
1.882215e+003,-9.036437e-004
1.884143e+003,-5.526952e-004
1.886072e+003,-5.183294e-004
1.888000e+003,-4.813597e-004
1.889928e+003,-2.782196e-004
1.891857e+003,1.985170e-004
1.893785e+003,3.429502e-005
1.895714e+003,1.798645e-004
1.897643e+003,-2.565719e-004
1.899571e+003,-3.553517e-004
1.901500e+003,-3.511645e-004
1.903428e+003,-3.469810e-004
1.905356e+003,-3.428124e-004
1.907285e+003,-3.386550e-004
1.909213e+003,-3.344975e-004
1.911142e+003,-3.303513e-004
1.913071e+003,-3.262199e-004
1.914999e+003,-3.220923e-004
1.916927e+003,-3.179684e-004
1.918856e+003,-3.138557e-004
1.920784e+003,-3.097579e-004
1.922713e+003,-3.056638e-004
1.924641e+003,-3.015772e-004
1.926570e+003,-2.974980e-004
1.928499e+003,-2.934337e-004
1.930427e+003,-2.893731e-004
1.932355e+003,-2.853200e-004
1.934284e+003,-2.812780e-004
1.936212e+003,-2.772436e-004
1.938141e+003,-2.732202e-004
1.940070e+003,-2.691969e-004
1.941998e+003,-2.651922e-004
1.943927e+003,-2.611950e-004
1.945855e+003,-2.572015e-004
1.947783e+003,-2.532154e-004
1.949712e+003,-2.492405e-004
1.951640e+003,-2.452768e-004
1.953569e+003,-2.413206e-004
1.955498e+003,-2.373680e-004
1.957426e+003,-2.334267e-004
1.959354e+003,-2.294965e-004
1.961283e+003,-2.255775e-004
1.963211e+003,-2.216548e-004
1.965140e+003,-2.177507e-004
1.967068e+003,-2.138540e-004
1.968997e+003,-2.099685e-004
1.970926e+003,-2.060793e-004
1.972854e+003,-2.022088e-004
1.974782e+003,-1.983456e-004
1.976711e+003,-1.944937e-004
1.978639e+003,-1.906417e-004
1.980568e+003,-1.868010e-004
1.982496e+003,-1.829751e-004
1.984425e+003,-1.791529e-004
1.986354e+003,-1.753382e-004
1.988282e+003,-1.715310e-004
1.990210e+003,-1.677386e-004
1.992139e+003,-1.639500e-004
1.994067e+003,-1.601726e-004
1.995996e+003,-1.564026e-004
1.997924e+003,-1.526438e-004
1.999853e+003,-1.488850e-004
2.001781e+003,-1.451410e-004
2.003710e+003,-1.414046e-004
2.005638e+003,-1.376793e-004
2.007567e+003,-1.339577e-004
2.009495e+003,-1.302473e-004
2.011424e+003,-1.265444e-004
2.013352e+003,-1.228489e-004
2.015281e+003,-1.191646e-004
2.017209e+003,-1.154877e-004
2.019138e+003,-1.118220e-004
2.021066e+003,-1.081564e-004
2.022995e+003,-1.045093e-004
2.024923e+003,-1.008697e-004
2.026852e+003,-9.723008e-005
2.028781e+003,-9.360537e-005
2.030709e+003,-8.998811e-005
2.032637e+003,-8.637831e-005
2.034566e+003,-8.277968e-005
2.036494e+003,-7.918850e-005
2.038423e+003,-7.560477e-005
2.040351e+003,-7.203221e-005
2.042280e+003,-6.845966e-005
2.044208e+003,-6.490573e-005
2.046137e+003,-6.135926e-005
2.048065e+003,-5.781651e-005
2.049994e+003,-5.428493e-005
2.051922e+003,-5.076081e-005
2.053851e+003,-4.724041e-005
2.055779e+003,-4.373863e-005
2.057708e+003,-4.024059e-005
2.059636e+003,-3.674999e-005
2.061565e+003,-3.327429e-005
2.063493e+003,-2.979860e-005
2.065422e+003,-2.633780e-005
2.067350e+003,-2.288073e-005
2.069279e+003,-1.943111e-005
2.071207e+003,-1.599267e-005
2.073136e+003,-1.256168e-005
2.075064e+003,-9.141862e-006
2.076993e+003,-5.729496e-006
2.078921e+003,-2.324581e-006
2.080850e+003,1.069158e-006
2.082778e+003,4.459172e-006
2.084707e+003,7.845461e-006
2.086635e+003,1.120567e-005
2.088564e+003,1.456961e-005
2.090492e+003,1.792237e-005
2.092421e+003,2.126396e-005
2.094349e+003,2.460182e-005
2.096278e+003,2.792850e-005
2.098206e+003,3.125519e-005
2.100135e+003,3.457069e-005
2.102063e+003,3.786385e-005
2.103992e+003,4.115701e-005
2.105920e+003,4.444271e-005
2.107849e+003,4.771724e-005
2.109777e+003,5.098805e-005
2.111706e+003,5.424395e-005
2.113634e+003,5.750358e-005
2.115563e+003,6.074458e-005
2.117491e+003,6.397814e-005
2.119420e+003,6.720051e-005
2.121348e+003,7.041544e-005
2.123277e+003,7.362291e-005
2.125205e+003,7.682666e-005
2.127134e+003,8.001551e-005
2.129062e+003,8.320808e-005
2.130991e+003,8.638576e-005
2.132919e+003,8.954480e-005
2.134848e+003,9.270012e-005
2.136776e+003,9.584799e-005
2.138705e+003,9.898469e-005
2.140633e+003,1.021214e-004
2.142562e+003,1.052469e-004
2.144490e+003,1.083650e-004
2.146419e+003,1.114681e-004
2.148347e+003,1.145676e-004
2.150276e+003,1.176521e-004
2.152204e+003,1.207404e-004
2.154133e+003,1.238100e-004
2.156061e+003,1.268759e-004
2.157990e+003,1.299307e-004
2.159918e+003,1.329780e-004
2.161847e+003,1.360178e-004
2.163775e+003,1.390427e-004
2.165704e+003,1.420639e-004
2.167632e+003,1.450740e-004
2.169561e+003,1.480766e-004
2.171489e+003,1.510717e-004
2.173418e+003,1.540668e-004
2.175346e+003,1.570471e-004
2.177275e+003,1.600198e-004
2.179203e+003,1.629740e-004
2.181132e+003,1.659319e-004
2.183060e+003,1.688786e-004
2.184989e+003,1.718067e-004
2.186917e+003,1.747422e-004
2.188846e+003,1.776591e-004
2.190774e+003,1.805685e-004
2.192703e+003,1.834743e-004
2.194631e+003,1.863576e-004
2.196560e+003,1.892447e-004
2.198488e+003,1.921281e-004
2.200417e+003,1.950003e-004
2.202345e+003,1.978576e-004
2.204274e+003,2.007037e-004
2.206202e+003,2.035573e-004
2.208131e+003,2.063885e-004
2.210059e+003,2.092049e-004
2.211988e+003,2.120212e-004
2.213916e+003,2.148375e-004
2.215845e+003,2.176315e-004
2.217773e+003,2.204254e-004
2.219702e+003,2.232119e-004
2.221630e+003,2.259910e-004
2.223559e+003,2.287552e-004
2.225487e+003,2.315044e-004
2.227416e+003,2.342537e-004
2.229344e+003,2.369955e-004
2.231273e+003,2.397373e-004
2.233201e+003,2.424568e-004
2.235130e+003,2.451688e-004
2.237058e+003,2.478734e-004
2.238987e+003,2.505779e-004
2.240915e+003,2.532601e-004
2.242844e+003,2.559349e-004
2.244772e+003,2.586171e-004
2.246701e+003,2.612770e-004
2.248629e+003,2.639368e-004
2.250558e+003,2.665892e-004
2.252486e+003,2.692267e-004
2.254415e+003,2.718493e-004
2.256343e+003,2.744719e-004
2.258272e+003,2.770796e-004
2.260200e+003,2.796873e-004
2.262129e+003,2.822876e-004
2.264057e+003,2.848729e-004
2.265986e+003,2.874434e-004
2.267914e+003,2.900138e-004
2.269843e+003,2.925843e-004
2.271771e+003,2.951324e-004
2.273700e+003,2.976730e-004
2.275628e+003,3.002211e-004
2.277557e+003,3.027469e-004
2.279485e+003,3.052726e-004
2.281414e+003,3.077760e-004
2.283342e+003,3.102794e-004
2.285271e+003,3.127679e-004
2.287199e+003,3.152490e-004
2.289128e+003,3.177375e-004
2.291056e+003,3.202036e-004
2.292985e+003,3.226623e-004
2.294913e+003,3.251135e-004
2.296842e+003,3.275499e-004
2.298770e+003,3.299862e-004
2.300699e+003,3.324151e-004
2.302627e+003,3.348291e-004
2.304556e+003,3.372431e-004
2.306484e+003,3.396422e-004
2.308413e+003,3.420338e-004
2.310341e+003,3.444105e-004
2.312270e+003,3.467873e-004
2.314198e+003,3.491566e-004
2.316127e+003,3.515109e-004
2.318055e+003,3.538579e-004
2.319984e+003,3.561974e-004
2.321912e+003,3.585368e-004
2.323841e+003,3.608540e-004
2.325769e+003,3.631711e-004
2.327698e+003,3.654808e-004
2.329626e+003,3.677756e-004
2.331555e+003,3.700629e-004
2.333483e+003,3.723502e-004
2.335412e+003,3.746152e-004
2.337340e+003,3.768876e-004
2.339269e+003,3.791377e-004
2.341197e+003,3.813878e-004
2.343126e+003,3.836229e-004
2.345054e+003,3.858507e-004
2.346983e+003,3.880784e-004
2.348911e+003,3.902912e-004
2.350840e+003,3.924891e-004
2.352768e+003,3.946871e-004
2.354697e+003,3.968775e-004
2.356625e+003,3.990456e-004
2.358554e+003,4.012212e-004
2.360482e+003,4.033819e-004
2.362411e+003,4.055426e-004
2.364339e+003,4.076883e-004
2.366268e+003,4.098192e-004
2.368196e+003,4.119426e-004
2.370125e+003,4.140660e-004
2.372053e+003,4.161820e-004
2.373982e+003,4.182681e-004
2.375910e+003,4.203692e-004
2.377839e+003,4.224628e-004
2.379767e+003,4.245341e-004
2.381696e+003,4.265979e-004
2.383624e+003,4.286543e-004
2.385553e+003,4.307106e-004
2.387481e+003,4.327521e-004
2.389410e+003,4.347861e-004
2.391338e+003,4.368126e-004
2.393267e+003,4.388317e-004
2.395195e+003,4.408360e-004
2.397124e+003,4.428327e-004
2.399052e+003,4.448295e-004
2.400981e+003,3.381819e-004
2.402909e+003,2.828985e-004
2.404838e+003,4.149973e-004
2.406766e+003,7.004216e-004
2.408695e+003,7.745400e-004
2.410623e+003,5.994067e-004
2.412552e+003,8.071139e-004
2.414480e+003,9.211302e-004
2.416409e+003,9.271950e-004
2.418337e+003,9.087622e-004
2.420266e+003,9.685531e-004
2.422194e+003,9.406954e-004
2.424123e+003,7.460043e-004
2.426051e+003,5.386695e-004
2.427979e+003,5.340278e-004
2.429908e+003,5.695969e-004
2.431837e+003,7.047504e-004
2.433765e+003,7.000342e-004
2.435694e+003,7.194430e-004
2.437622e+003,7.725284e-004
2.439551e+003,6.835386e-004
2.441479e+003,7.227510e-004
2.443407e+003,8.782148e-004
2.445336e+003,8.823872e-004
2.447265e+003,8.556396e-004
2.449193e+003,8.287579e-004
2.451122e+003,8.941591e-004
2.453050e+003,8.597970e-004
2.454979e+003,1.013562e-003
2.456907e+003,1.068391e-003
2.458836e+003,9.605587e-004
2.460764e+003,9.463876e-004
2.462693e+003,1.013130e-003
2.464621e+003,9.295046e-004
2.466550e+003,8.479357e-004
2.468478e+003,7.389709e-004
2.470406e+003,9.924769e-004
2.472335e+003,1.207031e-003
2.474264e+003,1.159906e-003
2.476192e+003,1.139700e-003
2.478121e+003,1.131929e-003
2.480049e+003,1.068644e-003
2.481978e+003,1.159497e-003
2.483906e+003,1.204498e-003
2.485835e+003,1.246475e-003
2.487763e+003,1.163296e-003
2.489692e+003,9.633452e-004
2.491620e+003,9.783804e-004
2.493549e+003,1.103021e-003
2.495477e+003,1.148500e-003
2.497406e+003,1.346380e-003
2.499334e+003,1.464531e-003
2.501263e+003,1.568884e-003
2.503191e+003,1.550540e-003
2.505120e+003,1.617298e-003
2.507048e+003,1.586154e-003
2.508977e+003,1.633026e-003
2.510905e+003,1.615725e-003
2.512833e+003,1.650408e-003
2.514762e+003,1.709163e-003
2.516691e+003,1.784794e-003
2.518619e+003,1.965955e-003
2.520548e+003,2.293177e-003
2.522476e+003,2.582774e-003
2.524405e+003,2.650656e-003
2.526333e+003,2.570085e-003
2.528261e+003,2.606645e-003
2.530190e+003,2.551995e-003
2.532119e+003,2.474092e-003
2.534047e+003,2.527192e-003
2.535976e+003,2.766721e-003
2.537904e+003,2.807602e-003
2.539833e+003,2.760507e-003
2.541761e+003,2.927661e-003
2.543689e+003,3.174610e-003
2.545618e+003,3.469691e-003
2.547547e+003,3.635123e-003
2.549475e+003,3.619008e-003
2.551404e+003,3.685176e-003
2.553332e+003,3.811263e-003
2.555260e+003,3.869139e-003
2.557189e+003,3.903419e-003
2.559117e+003,4.073128e-003
2.561046e+003,4.382201e-003
2.562975e+003,4.600488e-003
2.564903e+003,4.579611e-003
2.566832e+003,4.643425e-003
2.568760e+003,4.817054e-003
2.570688e+003,5.049802e-003
2.572617e+003,5.185619e-003
2.574546e+003,5.213380e-003
2.576474e+003,5.344123e-003
2.578403e+003,5.569138e-003
2.580331e+003,5.885378e-003
2.582260e+003,6.225333e-003
2.584188e+003,6.455690e-003
2.586116e+003,6.748579e-003
2.588045e+003,6.815292e-003
2.589974e+003,6.941110e-003
2.591902e+003,7.039152e-003
2.593831e+003,7.226929e-003
2.595759e+003,7.518835e-003
2.597688e+003,7.773124e-003
2.599616e+003,8.049026e-003
2.601544e+003,8.295901e-003
2.603473e+003,8.546449e-003
2.605402e+003,8.765072e-003
2.607330e+003,9.038180e-003
2.609259e+003,9.392798e-003
2.611187e+003,9.543881e-003
2.613115e+003,9.769782e-003
2.615044e+003,1.021928e-002
2.616972e+003,1.072972e-002
2.618901e+003,1.105509e-002
2.620830e+003,1.144385e-002
2.622758e+003,1.185637e-002
2.624687e+003,1.227346e-002
2.626615e+003,1.265512e-002
2.628543e+003,1.312804e-002
2.630472e+003,1.352309e-002
2.632400e+003,1.389018e-002
2.634329e+003,1.417286e-002
2.636258e+003,1.429918e-002
2.638186e+003,1.425920e-002
2.640115e+003,1.419151e-002
2.642043e+003,1.414804e-002
2.643971e+003,1.419733e-002
2.645900e+003,1.428287e-002
2.647828e+003,1.437385e-002
2.649757e+003,1.448575e-002
2.651686e+003,1.462553e-002
2.653614e+003,1.474489e-002
2.655542e+003,1.487401e-002
2.657471e+003,1.493072e-002
2.659399e+003,1.492877e-002
2.661328e+003,1.484017e-002
2.663256e+003,1.468222e-002
2.665185e+003,1.444900e-002
2.667114e+003,1.420782e-002
2.669042e+003,1.402186e-002
2.670970e+003,1.387764e-002
2.672899e+003,1.369168e-002
2.674827e+003,1.349817e-002
2.676756e+003,1.330278e-002
2.678685e+003,1.320876e-002
2.680613e+003,1.305799e-002
2.682542e+003,1.285795e-002
2.684470e+003,1.274043e-002
2.686398e+003,1.262139e-002
2.688327e+003,1.249120e-002
2.690255e+003,1.229773e-002
2.692184e+003,1.206654e-002
2.694113e+003,1.201430e-002
2.696041e+003,1.200642e-002
2.697969e+003,1.198182e-002
2.699898e+003,1.208005e-002
2.701826e+003,1.221734e-002
2.703755e+003,1.242535e-002
2.705683e+003,1.258283e-002
2.707612e+003,1.271934e-002
2.709541e+003,1.290616e-002
2.711469e+003,1.298623e-002
2.713397e+003,1.315447e-002
2.715326e+003,1.341229e-002
2.717254e+003,1.361251e-002
2.719183e+003,1.373982e-002
2.721111e+003,1.392217e-002
2.723040e+003,1.412275e-002
2.724969e+003,1.438607e-002
2.726897e+003,1.470923e-002
2.728825e+003,1.501813e-002
2.730754e+003,1.525831e-002
2.732682e+003,1.550866e-002
2.734611e+003,1.568671e-002
2.736539e+003,1.580880e-002
2.738468e+003,1.596797e-002
2.740396e+003,1.609395e-002
2.742325e+003,1.604998e-002
2.744253e+003,1.588625e-002
2.746182e+003,1.578838e-002
2.748110e+003,1.581887e-002
2.750039e+003,1.595936e-002
2.751967e+003,1.613027e-002
2.753896e+003,1.628450e-002
2.755824e+003,1.655140e-002
2.757753e+003,1.700579e-002
2.759681e+003,1.740113e-002
2.761610e+003,1.770099e-002
2.763538e+003,1.815174e-002
2.765467e+003,1.861499e-002
2.767395e+003,1.908073e-002
2.769324e+003,1.968816e-002
2.771252e+003,2.036283e-002
2.773181e+003,2.099573e-002
2.775109e+003,2.172542e-002
2.777038e+003,2.265102e-002
2.778966e+003,2.367444e-002
2.780895e+003,2.480632e-002
2.782823e+003,2.600860e-002
2.784752e+003,2.730360e-002
2.786680e+003,2.872211e-002
2.788609e+003,3.025977e-002
2.790537e+003,3.192705e-002
2.792466e+003,3.367090e-002
2.794394e+003,3.548101e-002
2.796323e+003,3.733777e-002
2.798251e+003,3.926333e-002
2.800180e+003,4.128884e-002
2.802108e+003,4.336324e-002
2.804037e+003,4.560693e-002
2.805965e+003,4.810253e-002
2.807894e+003,5.083600e-002
2.809822e+003,5.390899e-002
2.811751e+003,5.736617e-002
2.813679e+003,6.126672e-002
2.815608e+003,6.585323e-002
2.817536e+003,7.118025e-002
2.819465e+003,7.751072e-002
2.821393e+003,8.508474e-002
2.823322e+003,9.433371e-002
2.825250e+003,1.057138e-001
2.827179e+003,1.201867e-001
2.829107e+003,1.388880e-001
2.831036e+003,1.637454e-001
2.832964e+003,1.979015e-001
2.834893e+003,2.462603e-001
2.836821e+003,3.154488e-001
2.838750e+003,4.167933e-001
2.840678e+003,5.692014e-001
2.842607e+003,7.974707e-001
2.844535e+003,1.116861e+000
2.846464e+003,1.450263e+000
2.848392e+003,1.497751e+000
2.850321e+003,1.188923e+000
2.852249e+003,8.622632e-001
2.854178e+003,6.422694e-001
2.856106e+003,4.952677e-001
2.858035e+003,3.907282e-001
2.859963e+003,3.153992e-001
2.861892e+003,2.623152e-001
2.863820e+003,2.265337e-001
2.865749e+003,2.043568e-001
2.867677e+003,1.928390e-001
2.869606e+003,1.888946e-001
2.871534e+003,1.896924e-001
2.873463e+003,1.947504e-001
2.875391e+003,2.054754e-001
2.877320e+003,2.229588e-001
2.879248e+003,2.469705e-001
2.881177e+003,2.762261e-001
2.883105e+003,3.094408e-001
2.885034e+003,3.458550e-001
2.886962e+003,3.848408e-001
2.888891e+003,4.255932e-001
2.890819e+003,4.670583e-001
2.892748e+003,5.083377e-001
2.894676e+003,5.491903e-001
2.896605e+003,5.905577e-001
2.898533e+003,6.340363e-001
2.900462e+003,6.828174e-001
2.902390e+003,7.419063e-001
2.904319e+003,8.189549e-001
2.906247e+003,9.243062e-001
2.908176e+003,1.069317e+000
2.910104e+003,1.260755e+000
2.912033e+003,1.479690e+000
2.913961e+003,1.644314e+000
2.915890e+003,1.641354e+000
2.917818e+003,1.469549e+000
2.919747e+003,1.240019e+000
2.921675e+003,1.030040e+000
2.923604e+003,8.589138e-001
2.925532e+003,7.234265e-001
2.927461e+003,6.141272e-001
2.929389e+003,5.228450e-001
2.931318e+003,4.447213e-001
2.933246e+003,3.774434e-001
2.935175e+003,3.196700e-001
2.937103e+003,2.704502e-001
2.939032e+003,2.288768e-001
2.940960e+003,1.941147e-001
2.942889e+003,1.657314e-001
2.944817e+003,1.435270e-001
2.946746e+003,1.271470e-001
2.948674e+003,1.158910e-001
2.950603e+003,1.083054e-001
2.952531e+003,1.025110e-001
2.954460e+003,9.701203e-002
2.956388e+003,9.112205e-002
2.958317e+003,8.469915e-002
2.960245e+003,7.781509e-002
2.962174e+003,7.069857e-002
2.964102e+003,6.358918e-002
2.966031e+003,5.671607e-002
2.967959e+003,5.053730e-002
2.969888e+003,4.511972e-002
2.971816e+003,4.058857e-002
2.973745e+003,3.668738e-002
2.975673e+003,3.339761e-002
2.977602e+003,3.076057e-002
2.979530e+003,2.858215e-002
2.981459e+003,2.666683e-002
2.983387e+003,2.501549e-002
2.985316e+003,2.355827e-002
2.987244e+003,2.229393e-002
2.989173e+003,2.123497e-002
2.991101e+003,2.034071e-002
2.993030e+003,1.966256e-002
2.994958e+003,1.916218e-002
2.996887e+003,1.863475e-002
2.998815e+003,1.834683e-002
3.000744e+003,1.814060e-002
3.002672e+003,1.784120e-002
3.004601e+003,1.747549e-002
3.006529e+003,1.701124e-002
3.008458e+003,1.650405e-002
3.010386e+003,1.594958e-002
3.012315e+003,1.538251e-002
3.014243e+003,1.482157e-002
3.016172e+003,1.424045e-002
3.018100e+003,1.373663e-002
3.020029e+003,1.330545e-002
3.021957e+003,1.293544e-002
3.023886e+003,1.254041e-002
3.025814e+003,1.217916e-002
3.027743e+003,1.186923e-002
3.029671e+003,1.162682e-002
3.031600e+003,1.135263e-002
3.033528e+003,1.108303e-002
3.035457e+003,1.069825e-002
3.037385e+003,1.025825e-002
3.039314e+003,9.876698e-003
3.041242e+003,9.534895e-003
3.043171e+003,9.149969e-003
3.045099e+003,8.754686e-003
3.047028e+003,8.457720e-003
3.048956e+003,8.258075e-003
3.050885e+003,8.142225e-003
3.052813e+003,8.023493e-003
3.054742e+003,7.773951e-003
3.056670e+003,7.523157e-003
3.058599e+003,7.311061e-003
3.060527e+003,7.201232e-003
3.062456e+003,7.047914e-003
3.064384e+003,6.890900e-003
3.066313e+003,6.703041e-003
3.068241e+003,6.513201e-003
3.070170e+003,6.379850e-003
3.072098e+003,6.281413e-003
3.074027e+003,6.127298e-003
3.075955e+003,5.993016e-003
3.077884e+003,5.889885e-003
3.079812e+003,5.805470e-003
3.081741e+003,5.674697e-003
3.083669e+003,5.558014e-003
3.085598e+003,5.347937e-003
3.087526e+003,5.094066e-003
3.089455e+003,4.885800e-003
3.091383e+003,4.665107e-003
3.093312e+003,4.408568e-003
3.095240e+003,4.123822e-003
3.097169e+003,3.812492e-003
3.099097e+003,3.505461e-003
3.101026e+003,3.267780e-003
3.102954e+003,3.107920e-003
3.104883e+003,2.917349e-003
3.106811e+003,2.758443e-003
3.108740e+003,2.558842e-003
3.110668e+003,2.373606e-003
3.112597e+003,2.340630e-003
3.114525e+003,2.325058e-003
3.116454e+003,2.235942e-003
3.118382e+003,2.222605e-003
3.120311e+003,2.097465e-003
3.122239e+003,1.918480e-003
3.124168e+003,1.900584e-003
3.126096e+003,1.957498e-003
3.128025e+003,1.890458e-003
3.129953e+003,1.781829e-003
3.131882e+003,1.710922e-003
3.133810e+003,1.659267e-003
3.135739e+003,1.620561e-003
3.137667e+003,1.594245e-003
3.139596e+003,1.594290e-003
3.141524e+003,1.534179e-003
3.143453e+003,1.424186e-003
3.145381e+003,1.422547e-003
3.147310e+003,1.434401e-003
3.149238e+003,1.400165e-003
3.151167e+003,1.445189e-003
3.153095e+003,1.480207e-003
3.155024e+003,1.424104e-003
3.156952e+003,1.444489e-003
3.158881e+003,1.391649e-003
3.160809e+003,1.372471e-003
3.162738e+003,1.357526e-003
3.164666e+003,1.344465e-003
3.166594e+003,1.378208e-003
3.168523e+003,1.486667e-003
3.170452e+003,1.420707e-003
3.172380e+003,1.397289e-003
3.174309e+003,1.363821e-003
3.176237e+003,1.278512e-003
3.178166e+003,1.348123e-003
3.180094e+003,1.370713e-003
3.182022e+003,1.407631e-003
3.183951e+003,1.457468e-003
3.185880e+003,1.398697e-003
3.187808e+003,1.339763e-003
3.189737e+003,1.442216e-003
3.191665e+003,1.496591e-003
3.193594e+003,1.333065e-003
3.195522e+003,1.272783e-003
3.197450e+003,1.341999e-003
3.199379e+003,1.330636e-003
3.201308e+003,1.313239e-003
3.203236e+003,1.311831e-003
3.205165e+003,1.295313e-003
3.207093e+003,1.355395e-003
3.209021e+003,1.393937e-003
3.210950e+003,1.292162e-003
3.212878e+003,1.317605e-003
3.214807e+003,1.384437e-003
3.216736e+003,1.306407e-003
3.218664e+003,1.325615e-003
3.220593e+003,1.371674e-003
3.222521e+003,1.323424e-003
3.224449e+003,1.330771e-003
3.226378e+003,1.302898e-003
3.228307e+003,1.215942e-003
3.230235e+003,1.209021e-003
3.232164e+003,1.259036e-003
3.234092e+003,1.289174e-003
3.236021e+003,1.280896e-003
3.237949e+003,1.321517e-003
3.239877e+003,1.369193e-003
3.241806e+003,1.291871e-003
3.243735e+003,1.307487e-003
3.245663e+003,1.399189e-003
3.247592e+003,1.323931e-003
3.249520e+003,1.236692e-003
3.251448e+003,1.289532e-003
3.253377e+003,1.426645e-003
3.255305e+003,1.503207e-003
3.257234e+003,1.538500e-003
3.259163e+003,1.616374e-003
3.261091e+003,1.730770e-003
3.263020e+003,1.778655e-003
3.264948e+003,1.840711e-003
3.266876e+003,1.804806e-003
3.268805e+003,1.651213e-003
3.270733e+003,1.671992e-003
3.272662e+003,1.809560e-003
3.274591e+003,1.918964e-003
3.276519e+003,2.056271e-003
3.278448e+003,2.055235e-003
3.280376e+003,1.995422e-003
3.282304e+003,1.901329e-003
3.284233e+003,1.984075e-003
3.286161e+003,2.052441e-003
3.288090e+003,2.029210e-003
3.290019e+003,2.061985e-003
3.291947e+003,2.137408e-003
3.293875e+003,2.085552e-003
3.295804e+003,2.004527e-003
3.297732e+003,2.033234e-003
3.299661e+003,2.080716e-003
3.301589e+003,1.993552e-003
3.303518e+003,1.963355e-003
3.305447e+003,1.972273e-003
3.307375e+003,2.109095e-003
3.309303e+003,2.104737e-003
3.311232e+003,2.017543e-003
3.313160e+003,1.921095e-003
3.315089e+003,1.865439e-003
3.317018e+003,1.866430e-003
3.318946e+003,1.916274e-003
3.320875e+003,1.876064e-003
3.322803e+003,1.910053e-003
3.324731e+003,1.978740e-003
3.326660e+003,2.079383e-003
3.328588e+003,2.110720e-003
3.330517e+003,2.058074e-003
3.332446e+003,1.980774e-003
3.334374e+003,1.927026e-003
3.336302e+003,1.860917e-003
3.338231e+003,1.862228e-003
3.340159e+003,1.989014e-003
3.342088e+003,2.024405e-003
3.344016e+003,1.870409e-003
3.345945e+003,1.772374e-003
3.347874e+003,1.814090e-003
3.349802e+003,1.876913e-003
3.351730e+003,1.884624e-003
3.353659e+003,1.817755e-003
3.355587e+003,1.854487e-003
3.357516e+003,1.945309e-003
3.359444e+003,1.979642e-003
3.361373e+003,2.014607e-003
3.363302e+003,2.011187e-003
3.365230e+003,1.968838e-003
3.367158e+003,1.999781e-003
3.369087e+003,1.969822e-003
3.371015e+003,1.861706e-003
3.372944e+003,1.806960e-003
3.374872e+003,1.851521e-003
3.376801e+003,1.877069e-003
3.378729e+003,1.748048e-003
3.380658e+003,1.627870e-003
3.382586e+003,1.622967e-003
3.384515e+003,1.691513e-003
3.386443e+003,1.628146e-003
3.388372e+003,1.559056e-003
3.390300e+003,1.553729e-003
3.392229e+003,1.573667e-003
3.394157e+003,1.492977e-003
3.396086e+003,1.470119e-003
3.398014e+003,1.474597e-003
3.399943e+003,1.436763e-003
3.401871e+003,1.456790e-003
3.403800e+003,1.447730e-003
3.405728e+003,1.471892e-003
3.407657e+003,1.594797e-003
3.409585e+003,1.594506e-003
3.411514e+003,1.488216e-003
3.413442e+003,1.452871e-003
3.415371e+003,1.467012e-003
3.417299e+003,1.319282e-003
3.419228e+003,1.341470e-003
3.421156e+003,1.526289e-003
3.423085e+003,1.453578e-003
3.425013e+003,1.279354e-003
3.426942e+003,1.174219e-003
3.428870e+003,1.130484e-003
3.430799e+003,1.207381e-003
3.432727e+003,1.342066e-003
3.434656e+003,1.412839e-003
3.436584e+003,1.353651e-003
3.438513e+003,1.315728e-003
3.440441e+003,1.238108e-003
3.442370e+003,1.214601e-003
3.444298e+003,1.116805e-003
3.446227e+003,1.301691e-003
3.448155e+003,1.316436e-003
3.450084e+003,1.016408e-003
3.452012e+003,1.014113e-003
3.453941e+003,1.076736e-003
3.455869e+003,9.264350e-004
3.457798e+003,9.045824e-004
3.459726e+003,9.824336e-004
3.461655e+003,1.074500e-003
3.463583e+003,9.338111e-004
3.465512e+003,8.578375e-004
3.467440e+003,8.695573e-004
3.469369e+003,7.681251e-004
3.471297e+003,6.930381e-004
3.473226e+003,7.437170e-004
3.475154e+003,7.112697e-004
3.477083e+003,5.485192e-004
3.479011e+003,5.176663e-004
3.480940e+003,6.696284e-004
3.482868e+003,7.238686e-004
3.484797e+003,4.266053e-004
3.486725e+003,3.857166e-004
3.488654e+003,4.661977e-004
3.490582e+003,3.478378e-004
3.492511e+003,3.874078e-004
3.494439e+003,4.899725e-004
3.496368e+003,4.239529e-004
3.498296e+003,2.814755e-004
3.500225e+003,2.681166e-004
3.502153e+003,3.957599e-004
3.504082e+003,4.051700e-004
3.506010e+003,7.014722e-005
3.507939e+003,2.966076e-005
3.509867e+003,1.944974e-004
3.511796e+003,2.057850e-004
3.513724e+003,1.707673e-004
3.515653e+003,-3.071874e-005
3.517581e+003,-3.511459e-005
3.519510e+003,-1.881272e-005
3.521438e+003,6.514788e-005
3.523367e+003,4.253089e-004
3.525295e+003,3.358200e-004
3.527224e+003,1.372024e-004
3.529152e+003,3.343821e-005
3.531081e+003,-1.521483e-004
3.533009e+003,-3.783330e-004
3.534938e+003,-2.893955e-004
3.536866e+003,-1.710430e-004
3.538795e+003,-3.489777e-004
3.540723e+003,-5.422682e-004
3.542652e+003,-3.698990e-004
3.544580e+003,-1.458377e-004
3.546509e+003,-3.625453e-005
3.548437e+003,-3.293008e-004
3.550366e+003,-6.324127e-004
3.552294e+003,-5.069748e-004
3.554223e+003,-5.719066e-004
3.556151e+003,-6.532818e-004
3.558080e+003,-4.230142e-004
3.560008e+003,-4.069284e-004
3.561937e+003,-4.929081e-004
3.563865e+003,-4.879311e-004
3.565794e+003,1.088977e-004
3.567722e+003,8.084327e-004
3.569651e+003,4.508346e-005
3.571579e+003,-7.471815e-004
3.573508e+003,-1.038916e-003
3.575436e+003,-9.466186e-004
3.577365e+003,-5.441085e-004
3.579293e+003,-3.400519e-004
3.581222e+003,-4.822016e-004
3.583150e+003,-5.465373e-004
3.585079e+003,-4.793629e-004
3.587007e+003,4.661307e-004
3.588936e+003,6.887093e-004
3.590864e+003,-8.127093e-005
3.592793e+003,-2.449155e-004
3.594721e+003,2.365708e-004
3.596650e+003,7.305741e-004
3.598578e+003,1.337208e-003
3.600507e+003,1.898743e-003
3.602435e+003,1.944132e-003
3.604364e+003,1.765735e-003
3.606292e+003,1.688771e-003
3.608221e+003,2.171114e-003
3.610149e+003,1.821890e-003
3.612078e+003,1.356006e-003
3.614006e+003,1.367867e-003
3.615935e+003,5.855486e-004
3.617863e+003,5.994514e-004
3.619792e+003,1.552142e-003
3.621720e+003,8.159578e-004
3.623649e+003,1.150295e-004
3.625577e+003,-1.675114e-004
3.627506e+003,1.830012e-004
3.629434e+003,1.790456e-003
3.631363e+003,7.790178e-004
3.633291e+003,5.997717e-006
3.635220e+003,5.453825e-006
3.637148e+003,7.452816e-005
3.639077e+003,3.628656e-004
3.641005e+003,6.608516e-004
3.642934e+003,6.890669e-004
3.644862e+003,6.478876e-004
3.646791e+003,1.261145e-003
3.648719e+003,2.338536e-003
3.650648e+003,2.491362e-003
3.652576e+003,2.201647e-004
3.654505e+003,-1.108088e-003
3.656433e+003,-7.256940e-004
3.658362e+003,-3.651157e-004
3.660290e+003,-3.848374e-004
3.662219e+003,-4.885346e-004
3.664147e+003,-5.422309e-004
3.666076e+003,-5.876645e-004
3.668004e+003,-4.551858e-004
3.669933e+003,1.065008e-003
3.671861e+003,2.655908e-004
3.673790e+003,-9.621233e-004
3.675718e+003,2.834275e-004
3.677647e+003,-1.451522e-004
3.679575e+003,-3.358424e-004
3.681504e+003,-8.987635e-005
3.683432e+003,-2.791882e-004
3.685361e+003,-3.942475e-004
3.687289e+003,-2.208650e-004
3.689218e+003,3.594756e-004
3.691146e+003,6.901920e-004
3.693075e+003,1.237094e-004
3.695003e+003,-1.875535e-004
3.696932e+003,-2.288967e-004
3.698860e+003,-6.940737e-004
3.700789e+003,-2.444461e-004
3.702717e+003,2.495125e-004
3.704646e+003,-2.868026e-004
3.706574e+003,-5.034283e-004
3.708503e+003,-4.174560e-004
3.710431e+003,3.448203e-004
3.712360e+003,8.072406e-004
3.714288e+003,-2.325997e-004
3.716217e+003,-9.886324e-004
3.718145e+003,-7.773116e-004
3.720074e+003,-3.799796e-004
3.722002e+003,-6.552786e-005
3.723931e+003,-1.521707e-004
3.725859e+003,-1.971647e-004
3.727788e+003,-4.255846e-004
3.729716e+003,-9.106249e-004
3.731645e+003,-6.806403e-004
3.733573e+003,-9.068847e-005
3.735502e+003,1.025565e-003
3.737430e+003,6.201640e-004
3.739359e+003,-2.028868e-004
3.741287e+003,-6.925762e-004
3.743216e+003,1.210421e-004
3.745144e+003,1.807801e-003
3.747073e+003,6.449074e-004
3.749001e+003,4.042834e-004
3.750930e+003,1.872808e-003
3.752858e+003,1.354069e-003
3.754787e+003,5.259886e-004
3.756715e+003,4.904717e-005
3.758644e+003,3.075674e-004
3.760572e+003,6.753802e-004
3.762501e+003,5.617738e-005
3.764429e+003,1.030043e-004
3.766358e+003,2.714097e-004
3.768286e+003,1.564547e-004
3.770215e+003,9.197220e-004
3.772143e+003,2.137497e-004
3.774072e+003,-4.529208e-004
3.776000e+003,-3.203079e-004
3.777929e+003,-1.756400e-004
3.779857e+003,3.444776e-004
3.781786e+003,-2.003461e-005
3.783714e+003,-2.731010e-004
3.785643e+003,-3.092736e-005
3.787571e+003,-5.141273e-004
3.789500e+003,-7.121637e-004
3.791428e+003,-2.699420e-004
3.793357e+003,-6.328076e-004
3.795285e+003,-3.882498e-005
3.797214e+003,8.176863e-004
3.799142e+003,-2.078041e-004
3.801071e+003,7.103458e-004
3.802999e+003,6.972626e-004
3.804927e+003,-7.577389e-004
3.806856e+003,2.933964e-004
3.808785e+003,3.612563e-004
3.810713e+003,3.079399e-004
3.812642e+003,4.190132e-004
3.814570e+003,3.181994e-004
3.816499e+003,1.211539e-003
3.818427e+003,3.475547e-004
3.820355e+003,2.816319e-004
3.822284e+003,1.386113e-003
3.824213e+003,2.062768e-004
3.826141e+003,4.370809e-004
3.828070e+003,7.627904e-004
3.829998e+003,2.266020e-004
3.831927e+003,7.645562e-004
3.833855e+003,8.596107e-004
3.835783e+003,5.798787e-004
3.837712e+003,1.299225e-003
3.839641e+003,1.240067e-003
3.841569e+003,6.720498e-004
3.843498e+003,9.502918e-004
3.845426e+003,7.749125e-004
3.847354e+003,4.065484e-004
3.849283e+003,3.619492e-004
3.851211e+003,-1.604855e-005
3.853140e+003,2.401464e-003
3.855069e+003,2.971694e-003
3.856997e+003,1.162149e-003
3.858926e+003,3.303513e-004
3.860854e+003,8.277968e-004
3.862782e+003,1.337133e-003
3.864711e+003,2.504684e-003
3.866640e+003,1.251824e-003
3.868568e+003,8.005351e-004
3.870497e+003,2.348237e-003
3.872425e+003,1.706906e-003
3.874354e+003,1.832597e-003
3.876282e+003,1.356326e-003
3.878210e+003,1.483709e-004
3.880139e+003,1.384184e-003
3.882068e+003,1.590416e-003
3.883996e+003,9.179562e-004
3.885925e+003,1.759499e-003
3.887853e+003,8.122846e-004
3.889781e+003,1.723990e-004
3.891710e+003,1.536541e-003
3.893638e+003,1.391329e-003
3.895567e+003,7.884055e-004
3.897496e+003,7.125363e-004
3.899424e+003,1.185775e-003
3.901353e+003,1.611538e-003
3.903281e+003,1.920730e-003
3.905209e+003,1.696751e-003
3.907138e+003,9.111166e-004
3.909066e+003,3.609285e-004
3.910995e+003,5.118400e-004
3.912924e+003,6.429255e-004
3.914852e+003,8.460954e-004
3.916781e+003,1.390330e-003
3.918709e+003,1.444221e-003
3.920637e+003,1.005433e-003
3.922566e+003,7.779822e-004
3.924494e+003,1.073115e-003
3.926423e+003,7.969663e-004
3.928352e+003,4.216656e-004
3.930280e+003,5.465820e-004
3.932208e+003,9.034947e-004
3.934137e+003,6.905496e-004
3.936065e+003,3.682226e-004
3.937994e+003,2.893731e-004
3.939922e+003,2.133921e-004
3.941851e+003,6.294101e-004
3.943780e+003,7.542819e-004
3.945708e+003,2.290457e-004
3.947636e+003,4.756525e-004
3.949565e+003,7.026568e-004
3.951493e+003,2.981573e-004
3.953422e+003,1.231581e-004
3.955351e+003,4.875660e-005
3.957279e+003,1.157448e-004
3.959208e+003,2.388433e-004
3.961136e+003,2.821162e-004
3.963064e+003,8.672476e-005
3.964993e+003,-8.703768e-005
3.966921e+003,5.700439e-005
3.968850e+003,1.817718e-004
3.970779e+003,1.639649e-004
3.972707e+003,2.257749e-004
3.974635e+003,3.028736e-004
3.976564e+003,2.219006e-004
3.978492e+003,5.901605e-005
3.980421e+003,9.059906e-006
3.982349e+003,4.664063e-006
3.984278e+003,1.737475e-005
3.986207e+003,1.399964e-005
3.988135e+003,-6.099045e-005
3.990063e+003,5.941093e-005
3.991992e+003,3.911555e-006
3.993920e+003,-6.749481e-005
3.995849e+003,6.838143e-005
3.997777e+003,8.597225e-005
3.999706e+003,6.995350e-005
4.001635e+003,0.000000e+000
