3.991992e+002,0.000000e+000
4.011277e+002,0.000000e+000
4.030562e+002,0.000000e+000
4.049846e+002,0.000000e+000
4.069131e+002,0.000000e+000
4.088416e+002,0.000000e+000
4.107701e+002,0.000000e+000
4.126986e+002,0.000000e+000
4.146271e+002,0.000000e+000
4.165556e+002,0.000000e+000
4.184841e+002,0.000000e+000
4.204126e+002,0.000000e+000
4.223411e+002,0.000000e+000
4.242697e+002,0.000000e+000
4.261982e+002,0.000000e+000
4.281266e+002,0.000000e+000
4.300551e+002,0.000000e+000
4.319836e+002,0.000000e+000
4.339121e+002,0.000000e+000
4.358406e+002,0.000000e+000
4.377691e+002,0.000000e+000
4.396976e+002,0.000000e+000
4.416261e+002,0.000000e+000
4.435546e+002,0.000000e+000
4.454831e+002,0.000000e+000
4.474116e+002,0.000000e+000
4.493401e+002,0.000000e+000
4.512686e+002,0.000000e+000
4.531971e+002,0.000000e+000
4.551256e+002,0.000000e+000
4.570541e+002,0.000000e+000
4.589826e+002,0.000000e+000
4.609111e+002,0.000000e+000
4.628396e+002,0.000000e+000
4.647681e+002,0.000000e+000
4.666966e+002,0.000000e+000
4.686251e+002,0.000000e+000
4.705536e+002,0.000000e+000
4.724821e+002,0.000000e+000
4.744106e+002,0.000000e+000
4.763391e+002,0.000000e+000
4.782676e+002,0.000000e+000
4.801961e+002,0.000000e+000
4.821246e+002,0.000000e+000
4.840531e+002,0.000000e+000
4.859816e+002,0.000000e+000
4.879101e+002,0.000000e+000
4.898386e+002,0.000000e+000
4.917671e+002,0.000000e+000
4.936956e+002,0.000000e+000
4.956241e+002,0.000000e+000
4.975526e+002,0.000000e+000
4.994811e+002,0.000000e+000
5.014096e+002,0.000000e+000
5.033381e+002,0.000000e+000
5.052666e+002,0.000000e+000
5.071951e+002,0.000000e+000
5.091236e+002,0.000000e+000
5.110521e+002,0.000000e+000
5.129806e+002,0.000000e+000
5.149091e+002,0.000000e+000
5.168376e+002,0.000000e+000
5.187661e+002,0.000000e+000
5.206946e+002,0.000000e+000
5.226230e+002,0.000000e+000
5.245516e+002,-8.603698e-005
5.264800e+002,6.822916e-005
5.284086e+002,8.736504e-005
5.303370e+002,-9.600539e-006
5.322656e+002,-8.853385e-006
5.341940e+002,8.808402e-005
5.361226e+002,1.394763e-004
5.380510e+002,-3.201724e-005
5.399796e+002,-2.033086e-004
5.419081e+002,-7.900922e-005
5.438365e+002,1.208573e-004
5.457650e+002,1.407110e-004
5.476935e+002,1.091126e-004
5.496221e+002,-5.305349e-005
5.515505e+002,-1.068600e-005
5.534790e+002,6.593345e-005
5.554075e+002,2.977788e-005
5.573361e+002,-1.092558e-005
5.592645e+002,7.031509e-005
5.611931e+002,4.384667e-005
5.631215e+002,8.324231e-005
5.650500e+002,1.454260e-004
5.669785e+002,1.931444e-004
5.689070e+002,1.439850e-004
5.708355e+002,1.822365e-005
5.727640e+002,-8.217385e-005
5.746925e+002,-2.124044e-005
5.766210e+002,-7.373095e-005
5.785495e+002,-1.328452e-004
5.804780e+002,-1.872019e-004
5.824065e+002,-1.847257e-004
5.843350e+002,-1.167066e-004
5.862635e+002,9.544822e-005
5.881920e+002,1.777450e-004
5.901205e+002,1.317209e-004
5.920490e+002,-3.030617e-005
5.939775e+002,-9.081955e-005
5.959060e+002,3.833626e-005
5.978345e+002,2.639969e-004
5.997630e+002,3.537606e-004
6.016915e+002,4.003730e-004
6.036200e+002,3.520327e-004
6.055485e+002,3.582931e-004
6.074770e+002,3.996037e-004
6.094055e+002,4.022114e-004
6.113340e+002,2.571899e-004
6.132625e+002,1.961146e-004
6.151910e+002,1.921768e-004
6.171195e+002,1.128409e-004
6.190480e+002,1.405091e-004
6.209765e+002,3.445663e-004
6.229050e+002,4.740679e-004
6.248335e+002,4.950312e-004
6.267620e+002,4.022878e-004
6.286905e+002,4.563278e-004
6.306190e+002,5.563169e-004
6.325475e+002,7.135074e-004
6.344760e+002,7.245906e-004
6.364045e+002,7.922177e-004
6.383330e+002,9.877037e-004
6.402615e+002,1.074372e-003
6.421899e+002,8.713300e-004
6.441185e+002,9.010879e-004
6.460470e+002,1.013657e-003
6.479755e+002,1.012811e-003
6.499039e+002,9.505369e-004
6.518325e+002,9.959200e-004
6.537610e+002,9.934737e-004
6.556895e+002,1.146975e-003
6.576179e+002,1.304597e-003
6.595464e+002,1.278721e-003
6.614750e+002,1.143051e-003
6.634034e+002,1.257026e-003
6.653319e+002,1.273479e-003
6.672604e+002,1.270743e-003
6.691890e+002,1.404759e-003
6.711174e+002,1.619280e-003
6.730460e+002,1.681354e-003
6.749745e+002,1.781068e-003
6.769030e+002,1.896777e-003
6.788314e+002,2.129793e-003
6.807599e+002,2.309280e-003
6.826885e+002,2.417245e-003
6.846169e+002,2.460024e-003
6.865454e+002,2.678709e-003
6.884739e+002,2.915305e-003
6.904025e+002,3.278758e-003
6.923309e+002,3.640911e-003
6.942594e+002,4.142711e-003
6.961879e+002,4.717831e-003
6.981165e+002,5.519272e-003
7.000449e+002,6.426671e-003
7.019734e+002,7.712510e-003
7.039019e+002,9.384615e-003
7.058304e+002,1.188507e-002
7.077589e+002,1.530074e-002
7.096874e+002,2.055333e-002
7.116159e+002,2.944575e-002
7.135444e+002,4.692864e-002
7.154729e+002,7.547311e-002
7.174014e+002,1.072744e-001
7.193299e+002,1.169075e-001
7.212584e+002,8.725653e-002
7.231869e+002,5.856666e-002
7.251154e+002,4.833507e-002
7.270439e+002,5.291024e-002
7.289724e+002,6.913416e-002
7.309009e+002,6.616777e-002
7.328294e+002,3.822311e-002
7.347579e+002,1.957764e-002
7.366864e+002,1.300229e-002
7.386149e+002,1.029320e-002
7.405434e+002,8.724675e-003
7.424719e+002,7.749028e-003
7.444004e+002,6.957588e-003
7.463289e+002,6.465157e-003
7.482574e+002,6.018488e-003
7.501859e+002,5.564955e-003
7.521144e+002,5.227787e-003
7.540428e+002,4.999033e-003
7.559714e+002,4.682784e-003
7.578999e+002,4.517504e-003
7.598284e+002,4.367859e-003
7.617568e+002,4.117644e-003
7.636854e+002,3.902739e-003
7.656139e+002,3.757991e-003
7.675424e+002,3.554150e-003
7.694709e+002,3.489175e-003
7.713994e+002,3.343284e-003
7.733279e+002,3.225923e-003
7.752563e+002,3.211159e-003
7.771849e+002,3.182125e-003
7.791134e+002,3.128635e-003
7.810419e+002,3.139390e-003
7.829703e+002,3.101632e-003
7.848989e+002,3.012211e-003
7.868274e+002,3.002651e-003
7.887559e+002,3.008459e-003
7.906843e+002,2.940849e-003
7.926129e+002,2.940703e-003
7.945414e+002,2.974565e-003
7.964698e+002,2.984656e-003
7.983983e+002,2.999201e-003
8.003268e+002,2.935075e-003
8.022554e+002,2.878700e-003
8.041838e+002,2.837723e-003
8.061123e+002,2.823407e-003
8.080408e+002,2.748181e-003
8.099694e+002,2.679222e-003
8.118978e+002,2.697182e-003
8.138263e+002,2.698511e-003
8.157548e+002,2.575518e-003
8.176833e+002,2.480119e-003
8.196118e+002,2.479750e-003
8.215403e+002,2.488318e-003
8.234689e+002,2.395068e-003
8.253973e+002,2.318596e-003
8.273258e+002,2.317286e-003
8.292543e+002,2.329726e-003
8.311829e+002,2.388564e-003
8.331113e+002,2.387355e-003
8.350398e+002,2.332294e-003
8.369683e+002,2.388830e-003
8.388969e+002,2.444376e-003
8.408253e+002,2.441951e-003
8.427538e+002,2.418170e-003
8.446823e+002,2.373146e-003
8.466108e+002,2.354109e-003
8.485393e+002,2.416480e-003
8.504678e+002,2.493452e-003
8.523963e+002,2.546646e-003
8.543248e+002,2.558114e-003
8.562533e+002,2.555816e-003
8.581818e+002,2.535494e-003
8.601103e+002,2.570973e-003
8.620388e+002,2.541347e-003
8.639673e+002,2.576066e-003
8.658958e+002,2.616302e-003
8.678243e+002,2.654544e-003
8.697528e+002,2.662907e-003
8.716813e+002,2.639217e-003
8.736098e+002,2.610484e-003
8.755383e+002,2.677403e-003
8.774668e+002,2.741937e-003
8.793953e+002,2.791852e-003
8.813238e+002,2.783609e-003
8.832523e+002,2.883734e-003
8.851808e+002,2.951686e-003
8.871093e+002,3.078626e-003
8.890378e+002,3.156913e-003
8.909663e+002,3.106305e-003
8.928948e+002,2.928464e-003
8.948232e+002,2.804660e-003
8.967518e+002,2.669383e-003
8.986803e+002,2.703269e-003
9.006088e+002,2.816369e-003
9.025372e+002,2.985573e-003
9.044658e+002,3.249195e-003
9.063943e+002,3.694982e-003
9.083228e+002,3.982863e-003
9.102512e+002,3.878424e-003
9.121797e+002,3.435801e-003
9.141083e+002,3.088352e-003
9.160367e+002,2.891211e-003
9.179653e+002,2.713676e-003
9.198937e+002,2.585046e-003
9.218223e+002,2.530248e-003
9.237507e+002,2.511304e-003
9.256793e+002,2.533229e-003
9.276077e+002,2.496576e-003
9.295363e+002,2.453442e-003
9.314647e+002,2.413955e-003
9.333932e+002,2.446208e-003
9.353217e+002,2.473110e-003
9.372502e+002,2.528796e-003
9.391787e+002,2.533268e-003
9.411072e+002,2.507591e-003
9.430358e+002,2.503826e-003
9.449642e+002,2.490941e-003
9.468928e+002,2.450891e-003
9.488212e+002,2.532495e-003
9.507498e+002,2.528866e-003
9.526782e+002,2.532286e-003
9.546068e+002,2.549305e-003
9.565352e+002,2.641469e-003
9.584637e+002,2.706055e-003
9.603922e+002,2.838851e-003
9.623207e+002,2.896713e-003
9.642492e+002,2.943020e-003
9.661777e+002,3.007557e-003
9.681062e+002,2.989306e-003
9.700347e+002,2.867904e-003
9.719632e+002,2.834058e-003
9.738917e+002,2.871530e-003
9.758202e+002,3.014492e-003
9.777487e+002,3.027123e-003
9.796772e+002,3.038206e-003
9.816057e+002,3.103503e-003
9.835342e+002,3.224163e-003
9.854627e+002,3.313439e-003
9.873912e+002,3.436411e-003
9.893197e+002,3.530300e-003
9.912482e+002,3.627117e-003
9.931767e+002,3.626566e-003
9.951052e+002,3.638341e-003
9.970337e+002,3.606257e-003
9.989622e+002,3.606928e-003
1.000891e+003,3.627462e-003
1.002819e+003,3.723008e-003
1.004748e+003,3.797393e-003
1.006676e+003,3.889410e-003
1.008605e+003,3.981967e-003
1.010533e+003,4.074434e-003
1.012462e+003,4.114257e-003
1.014390e+003,4.345815e-003
1.016319e+003,4.563453e-003
1.018247e+003,4.636612e-003
1.020176e+003,4.596522e-003
1.022104e+003,4.621465e-003
1.024033e+003,4.656309e-003
1.025961e+003,4.749395e-003
1.027890e+003,4.834560e-003
1.029818e+003,4.929891e-003
1.031747e+003,4.931981e-003
1.033675e+003,5.004560e-003
1.035604e+003,5.053347e-003
1.037532e+003,5.137239e-003
1.039461e+003,5.171783e-003
1.041389e+003,5.216442e-003
1.043318e+003,5.271443e-003
1.045246e+003,5.410231e-003
1.047175e+003,5.516576e-003
1.049103e+003,5.693812e-003
1.051032e+003,5.729052e-003
1.052960e+003,5.646755e-003
1.054889e+003,5.586360e-003
1.056817e+003,5.672624e-003
1.058746e+003,5.777892e-003
1.060674e+003,5.926585e-003
1.062603e+003,5.990169e-003
1.064531e+003,5.992938e-003
1.066460e+003,5.880872e-003
1.068388e+003,5.860815e-003
1.070317e+003,5.971009e-003
1.072245e+003,6.212169e-003
1.074174e+003,6.387449e-003
1.076102e+003,6.595888e-003
1.078031e+003,6.756271e-003
1.079959e+003,6.868330e-003
1.081888e+003,6.882702e-003
1.083816e+003,6.959602e-003
1.085745e+003,6.887900e-003
1.087673e+003,6.858776e-003
1.089602e+003,6.782818e-003
1.091530e+003,6.692916e-003
1.093459e+003,6.625607e-003
1.095387e+003,6.666357e-003
1.097316e+003,6.627137e-003
1.099244e+003,6.588156e-003
1.101173e+003,6.446012e-003
1.103101e+003,6.298556e-003
1.105030e+003,6.129372e-003
1.106958e+003,6.078427e-003
1.108887e+003,6.011498e-003
1.110815e+003,6.036057e-003
1.112744e+003,6.064821e-003
1.114672e+003,6.119707e-003
1.116601e+003,6.119849e-003
1.118529e+003,6.172354e-003
1.120458e+003,6.138302e-003
1.122386e+003,6.120463e-003
1.124315e+003,5.970510e-003
1.126243e+003,5.873783e-003
1.128172e+003,5.834132e-003
1.130100e+003,5.987397e-003
1.132029e+003,6.131468e-003
1.133957e+003,6.284975e-003
1.135885e+003,6.432465e-003
1.137814e+003,6.653835e-003
1.139743e+003,6.808739e-003
1.141671e+003,6.983210e-003
1.143600e+003,7.086832e-003
1.145528e+003,7.246653e-003
1.147457e+003,7.450768e-003
1.149385e+003,7.821840e-003
1.151314e+003,8.228509e-003
1.153242e+003,8.696914e-003
1.155171e+003,9.034971e-003
1.157099e+003,9.311419e-003
1.159028e+003,9.502324e-003
1.160956e+003,9.676020e-003
1.162885e+003,9.625748e-003
1.164813e+003,9.481543e-003
1.166742e+003,9.229770e-003
1.168670e+003,8.976614e-003
1.170599e+003,8.647995e-003
1.172527e+003,8.380316e-003
1.174456e+003,8.130290e-003
1.176384e+003,7.944397e-003
1.178313e+003,7.589622e-003
1.180241e+003,7.295316e-003
1.182170e+003,7.057378e-003
1.184098e+003,6.920673e-003
1.186027e+003,6.804232e-003
1.187955e+003,6.813916e-003
1.189884e+003,6.826476e-003
1.191812e+003,6.865621e-003
1.193740e+003,6.845009e-003
1.195669e+003,6.903432e-003
1.197598e+003,6.935174e-003
1.199526e+003,7.065893e-003
1.201455e+003,7.157725e-003
1.203383e+003,7.316026e-003
1.205312e+003,7.491443e-003
1.207240e+003,7.761877e-003
1.209168e+003,8.009633e-003
1.211097e+003,8.315018e-003
1.213026e+003,8.473428e-003
1.214954e+003,8.684471e-003
1.216883e+003,8.877229e-003
1.218811e+003,9.101974e-003
1.220740e+003,9.296527e-003
1.222668e+003,9.531816e-003
1.224596e+003,9.716299e-003
1.226525e+003,9.946266e-003
1.228453e+003,1.008472e-002
1.230382e+003,1.031745e-002
1.232311e+003,1.048947e-002
1.234239e+003,1.064006e-002
1.236167e+003,1.069568e-002
1.238096e+003,1.074792e-002
1.240025e+003,1.071749e-002
1.241953e+003,1.069497e-002
1.243882e+003,1.056457e-002
1.245810e+003,1.041935e-002
1.247739e+003,1.018721e-002
1.249667e+003,9.959334e-003
1.251595e+003,9.683707e-003
1.253524e+003,9.564336e-003
1.255453e+003,9.416849e-003
1.257381e+003,9.305839e-003
1.259310e+003,9.130012e-003
1.261238e+003,8.991726e-003
1.263167e+003,8.802225e-003
1.265095e+003,8.661361e-003
1.267023e+003,8.493811e-003
1.268952e+003,8.479818e-003
1.270880e+003,8.433693e-003
1.272809e+003,8.457918e-003
1.274738e+003,8.448432e-003
1.276666e+003,8.509617e-003
1.278594e+003,8.549182e-003
1.280523e+003,8.661526e-003
1.282451e+003,8.714039e-003
1.284380e+003,8.862402e-003
1.286308e+003,9.009273e-003
1.288237e+003,9.291039e-003
1.290166e+003,9.525181e-003
1.292094e+003,9.953420e-003
1.294022e+003,1.034759e-002
1.295951e+003,1.083255e-002
1.297879e+003,1.117999e-002
1.299808e+003,1.147250e-002
1.301736e+003,1.157248e-002
1.303665e+003,1.165279e-002
1.305594e+003,1.155182e-002
1.307522e+003,1.143316e-002
1.309450e+003,1.110526e-002
1.311379e+003,1.082322e-002
1.313307e+003,1.039448e-002
1.315236e+003,9.954846e-003
1.317164e+003,9.468012e-003
1.319093e+003,9.088879e-003
1.321021e+003,8.573243e-003
1.322950e+003,8.231500e-003
1.324878e+003,7.886001e-003
1.326807e+003,7.743708e-003
1.328735e+003,7.650214e-003
1.330664e+003,7.739464e-003
1.332592e+003,7.874624e-003
1.334521e+003,8.305293e-003
1.336449e+003,8.904538e-003
1.338378e+003,9.928179e-003
1.340306e+003,1.071697e-002
1.342235e+003,1.106993e-002
1.344163e+003,1.139435e-002
1.346092e+003,1.207120e-002
1.348021e+003,1.278489e-002
1.349949e+003,1.356959e-002
1.351877e+003,1.390551e-002
1.353806e+003,1.399408e-002
1.355734e+003,1.375197e-002
1.357663e+003,1.376036e-002
1.359591e+003,1.407156e-002
1.361520e+003,1.506878e-002
1.363448e+003,1.634256e-002
1.365377e+003,1.741438e-002
1.367305e+003,1.815218e-002
1.369234e+003,1.817710e-002
1.371162e+003,1.701367e-002
1.373091e+003,1.595036e-002
1.375019e+003,1.563057e-002
1.376948e+003,1.561976e-002
1.378876e+003,1.393124e-002
1.380805e+003,1.111228e-002
1.382733e+003,8.878535e-003
1.384662e+003,7.917602e-003
1.386590e+003,7.484034e-003
1.388519e+003,7.295380e-003
1.390447e+003,6.845860e-003
1.392376e+003,6.761235e-003
1.394304e+003,6.794367e-003
1.396233e+003,6.994303e-003
1.398161e+003,6.918813e-003
1.400090e+003,7.080543e-003
1.402018e+003,6.769607e-003
1.403947e+003,6.986726e-003
1.405875e+003,7.025883e-003
1.407804e+003,7.246678e-003
1.409732e+003,7.319721e-003
1.411661e+003,7.722992e-003
1.413589e+003,7.848337e-003
1.415518e+003,8.407036e-003
1.417446e+003,8.845736e-003
1.419375e+003,9.848038e-003
1.421303e+003,9.968374e-003
1.423232e+003,1.094790e-002
1.425160e+003,1.230631e-002
1.427089e+003,1.423103e-002
1.429017e+003,1.677434e-002
1.430946e+003,2.063813e-002
1.432874e+003,2.357461e-002
1.434803e+003,2.642908e-002
1.436731e+003,2.964951e-002
1.438660e+003,3.244749e-002
1.440588e+003,3.370304e-002
1.442517e+003,3.571292e-002
1.444445e+003,3.721208e-002
1.446374e+003,3.973424e-002
1.448302e+003,4.333926e-002
1.450231e+003,4.883494e-002
1.452159e+003,5.686700e-002
1.454088e+003,6.762129e-002
1.456016e+003,7.857640e-002
1.457945e+003,1.047833e-001
1.459873e+003,1.509272e-001
1.461802e+003,1.984423e-001
1.463730e+003,1.990836e-001
1.465659e+003,1.565752e-001
1.467587e+003,1.453281e-001
1.469516e+003,1.465851e-001
1.471444e+003,1.692212e-001
1.473373e+003,1.477172e-001
1.475301e+003,7.972760e-002
1.477230e+003,3.601744e-002
1.479158e+003,2.330732e-002
1.481087e+003,1.733631e-002
1.483015e+003,1.446256e-002
1.484944e+003,1.221884e-002
1.486872e+003,1.179336e-002
1.488801e+003,1.066923e-002
1.490729e+003,1.046867e-002
1.492658e+003,8.937923e-003
1.494586e+003,8.780614e-003
1.496515e+003,8.146890e-003
1.498443e+003,8.275510e-003
1.500372e+003,7.508407e-003
1.502300e+003,7.333940e-003
1.504229e+003,6.482325e-003
1.506157e+003,7.116770e-003
1.508086e+003,7.376051e-003
1.510014e+003,7.417577e-003
1.511943e+003,6.587615e-003
1.513871e+003,6.535897e-003
1.515800e+003,6.219075e-003
1.517728e+003,6.468409e-003
1.519657e+003,6.028937e-003
1.521585e+003,6.681308e-003
1.523514e+003,6.179733e-003
1.525442e+003,6.259059e-003
1.527371e+003,5.978912e-003
1.529299e+003,5.950215e-003
1.531228e+003,5.557830e-003
1.533156e+003,6.029777e-003
1.535085e+003,5.638568e-003
1.537013e+003,5.367530e-003
1.538942e+003,5.099730e-003
1.540870e+003,6.532761e-003
1.542799e+003,6.163141e-003
1.544727e+003,6.188561e-003
1.546656e+003,5.400178e-003
1.548584e+003,5.396452e-003
1.550513e+003,5.263519e-003
1.552441e+003,5.178474e-003
1.554370e+003,4.920088e-003
1.556298e+003,4.855241e-003
1.558227e+003,4.511118e-003
1.560155e+003,5.819804e-003
1.562084e+003,4.949532e-003
1.564012e+003,4.746314e-003
1.565941e+003,4.521517e-003
1.567869e+003,4.587099e-003
1.569798e+003,4.734896e-003
1.571726e+003,4.737879e-003
1.573655e+003,4.341768e-003
1.575583e+003,4.715567e-003
1.577512e+003,5.064050e-003
1.579440e+003,4.874242e-003
1.581369e+003,4.507235e-003
1.583297e+003,4.538715e-003
1.585226e+003,4.453622e-003
1.587154e+003,4.545936e-003
1.589083e+003,4.565693e-003
1.591011e+003,4.656874e-003
1.592940e+003,4.470619e-003
1.594868e+003,4.580892e-003
1.596797e+003,4.572462e-003
1.598725e+003,4.569639e-003
1.600654e+003,4.404775e-003
1.602582e+003,4.465038e-003
1.604511e+003,4.466253e-003
1.606439e+003,4.715444e-003
1.608368e+003,4.715065e-003
1.610296e+003,4.711924e-003
1.612225e+003,4.561474e-003
1.614153e+003,4.539495e-003
1.616082e+003,4.702451e-003
1.618010e+003,5.090813e-003
1.619939e+003,4.780809e-003
1.621867e+003,4.856571e-003
1.623796e+003,5.124976e-003
1.625724e+003,5.268137e-003
1.627653e+003,5.327919e-003
1.629581e+003,5.385792e-003
1.631510e+003,5.058851e-003
1.633438e+003,4.876755e-003
1.635367e+003,5.374646e-003
1.637295e+003,6.267359e-003
1.639224e+003,5.908874e-003
1.641152e+003,5.834558e-003
1.643081e+003,5.747126e-003
1.645009e+003,5.673649e-003
1.646938e+003,5.943245e-003
1.648866e+003,5.894885e-003
1.650795e+003,5.123172e-003
1.652723e+003,4.951403e-003
1.654652e+003,5.816501e-003
1.656580e+003,5.438397e-003
1.658509e+003,4.970106e-003
1.660437e+003,4.782246e-003
1.662366e+003,4.639723e-003
1.664294e+003,4.759423e-003
1.666223e+003,4.486753e-003
1.668151e+003,4.478328e-003
1.670080e+003,4.580122e-003
1.672008e+003,4.426292e-003
1.673937e+003,4.193455e-003
1.675865e+003,4.286558e-003
1.677794e+003,3.956325e-003
1.679722e+003,3.859364e-003
1.681651e+003,3.564355e-003
1.683579e+003,3.739350e-003
1.685508e+003,4.022932e-003
1.687436e+003,3.884749e-003
1.689365e+003,3.669080e-003
1.691293e+003,3.383687e-003
1.693222e+003,2.898520e-003
1.695150e+003,3.002068e-003
1.697079e+003,3.381616e-003
1.699007e+003,3.274825e-003
1.700936e+003,3.334040e-003
1.702864e+003,3.499834e-003
1.704793e+003,3.315847e-003
1.706721e+003,3.574284e-003
1.708650e+003,3.394034e-003
1.710578e+003,3.266974e-003
1.712507e+003,3.042848e-003
1.714435e+003,3.255052e-003
1.716364e+003,3.454545e-003
1.718292e+003,4.117201e-003
1.720221e+003,3.887686e-003
1.722149e+003,3.785217e-003
1.724078e+003,3.834907e-003
1.726006e+003,3.888019e-003
1.727935e+003,3.950377e-003
1.729863e+003,4.582422e-003
1.731792e+003,4.843176e-003
1.733720e+003,5.679633e-003
1.735649e+003,6.397389e-003
1.737577e+003,6.565833e-003
1.739506e+003,7.283121e-003
1.741434e+003,8.372322e-003
1.743363e+003,9.163336e-003
1.745291e+003,9.900765e-003
1.747220e+003,1.030891e-002
1.749148e+003,1.036925e-002
1.751077e+003,9.571087e-003
1.753005e+003,8.102037e-003
1.754934e+003,6.658438e-003
1.756862e+003,5.431367e-003
1.758791e+003,4.254922e-003
1.760719e+003,3.647685e-003
1.762648e+003,3.132918e-003
1.764576e+003,2.580341e-003
1.766505e+003,2.113326e-003
1.768433e+003,2.009870e-003
1.770362e+003,1.864470e-003
1.772290e+003,2.066044e-003
1.774219e+003,1.955682e-003
1.776147e+003,1.601361e-003
1.778076e+003,1.244104e-003
1.780004e+003,1.426182e-003
1.781933e+003,1.380959e-003
1.783861e+003,1.380309e-003
1.785790e+003,1.301588e-003
1.787718e+003,1.231252e-003
1.789646e+003,1.002034e-003
1.791575e+003,1.143422e-003
1.793504e+003,1.165340e-003
1.795432e+003,1.149234e-003
1.797361e+003,9.118943e-004
1.799289e+003,1.030706e-003
1.801218e+003,1.075999e-003
1.803146e+003,1.076587e-003
1.805074e+003,8.560456e-004
1.807003e+003,7.705642e-004
1.808932e+003,6.515244e-004
1.810860e+003,7.556845e-004
1.812789e+003,5.765418e-004
1.814717e+003,2.519609e-004
1.816646e+003,-3.421027e-005
1.818574e+003,3.061555e-004
1.820502e+003,4.535802e-004
1.822431e+003,4.067924e-004
1.824360e+003,2.389671e-004
1.826288e+003,2.467884e-004
1.828217e+003,-4.180521e-005
1.830145e+003,1.276331e-004
1.832073e+003,-1.534494e-004
1.834002e+003,-3.107088e-004
1.835931e+003,-3.869543e-004
1.837859e+003,-3.459407e-004
1.839788e+003,-4.577935e-004
1.841716e+003,-4.534759e-004
1.843645e+003,-6.743930e-004
1.845573e+003,-3.334656e-004
1.847501e+003,-4.373444e-004
1.849430e+003,-4.657786e-004
1.851359e+003,-6.522946e-004
1.853287e+003,-5.770344e-004
1.855216e+003,-7.851440e-004
1.857144e+003,-8.173920e-004
1.859073e+003,-9.275526e-004
1.861001e+003,-8.404125e-004
1.862929e+003,-1.102492e-003
1.864858e+003,-9.842012e-004
1.866787e+003,-1.109963e-003
1.868715e+003,-1.056988e-003
1.870644e+003,-1.109110e-003
1.872572e+003,-9.538084e-004
1.874500e+003,-1.181560e-003
1.876429e+003,-1.169596e-003
1.878357e+003,-1.425058e-003
1.880286e+003,-1.290895e-003
1.882215e+003,-1.271021e-003
1.884143e+003,-1.113957e-003
1.886072e+003,-1.454635e-003
1.888000e+003,-1.324516e-003
1.889928e+003,-9.222981e-004
1.891857e+003,-5.499851e-004
1.893785e+003,-8.380450e-004
1.895714e+003,-3.482960e-004
1.897643e+003,-4.310012e-004
1.899571e+003,-6.039832e-004
1.901500e+003,-5.978234e-004
1.903428e+003,-5.916748e-004
1.905356e+003,-5.855355e-004
1.907285e+003,-5.794093e-004
1.909213e+003,-5.732924e-004
1.911142e+003,-5.671866e-004
1.913071e+003,-5.610939e-004
1.914999e+003,-5.550105e-004
1.916927e+003,-5.489402e-004
1.918856e+003,-5.428772e-004
1.920784e+003,-5.368274e-004
1.922713e+003,-5.307905e-004
1.924641e+003,-5.247630e-004
1.926570e+003,-5.187467e-004
1.928499e+003,-5.127415e-004
1.930427e+003,-5.067457e-004
1.932355e+003,-5.007647e-004
1.934284e+003,-4.947912e-004
1.936212e+003,-4.888326e-004
1.938141e+003,-4.828814e-004
1.940070e+003,-4.769415e-004
1.941998e+003,-4.710164e-004
1.943927e+003,-4.650988e-004
1.945855e+003,-4.591942e-004
1.947783e+003,-4.532989e-004
1.949712e+003,-4.474167e-004
1.951640e+003,-4.415456e-004
1.953569e+003,-4.356839e-004
1.955498e+003,-4.298370e-004
1.957426e+003,-4.239958e-004
1.959354e+003,-4.181676e-004
1.961283e+003,-4.123524e-004
1.963211e+003,-4.065447e-004
1.965140e+003,-4.007537e-004
1.967068e+003,-3.949683e-004
1.968997e+003,-3.891960e-004
1.970926e+003,-3.834348e-004
1.972854e+003,-3.776848e-004
1.974782e+003,-3.719460e-004
1.976711e+003,-3.662203e-004
1.978639e+003,-3.605019e-004
1.980568e+003,-3.547985e-004
1.982496e+003,-3.491007e-004
1.984425e+003,-3.434196e-004
1.986354e+003,-3.377479e-004
1.988282e+003,-3.320854e-004
1.990210e+003,-3.264360e-004
1.992139e+003,-3.207996e-004
1.994067e+003,-3.151707e-004
1.995996e+003,-3.095530e-004
1.997924e+003,-3.039483e-004
1.999853e+003,-2.983548e-004
2.001781e+003,-2.927706e-004
2.003710e+003,-2.871975e-004
2.005638e+003,-2.816375e-004
2.007567e+003,-2.760869e-004
2.009495e+003,-2.705473e-004
2.011424e+003,-2.650190e-004
2.013352e+003,-2.595037e-004
2.015281e+003,-2.539977e-004
2.017209e+003,-2.485011e-004
2.019138e+003,-2.430193e-004
2.021066e+003,-2.375469e-004
2.022995e+003,-2.320874e-004
2.024923e+003,-2.266355e-004
2.026852e+003,-2.211947e-004
2.028781e+003,-2.157688e-004
2.030709e+003,-2.103522e-004
2.032637e+003,-2.049468e-004
2.034566e+003,-1.995489e-004
2.036494e+003,-1.941677e-004
2.038423e+003,-1.887958e-004
2.040351e+003,-1.834333e-004
2.042280e+003,-1.780838e-004
2.044208e+003,-1.727454e-004
2.046137e+003,-1.674164e-004
2.048065e+003,-1.620986e-004
2.049994e+003,-1.567937e-004
2.051922e+003,-1.514982e-004
2.053851e+003,-1.462158e-004
2.055779e+003,-1.409426e-004
2.057708e+003,-1.356788e-004
2.059636e+003,-1.304317e-004
2.061565e+003,-1.251921e-004
2.063493e+003,-1.199618e-004
2.065422e+003,-1.147445e-004
2.067350e+003,-1.095403e-004
2.069279e+003,-1.043454e-004
2.071207e+003,-9.916350e-005
2.073136e+003,-9.398907e-005
2.075064e+003,-8.882768e-005
2.076993e+003,-8.367561e-005
2.078921e+003,-7.853657e-005
2.080850e+003,-7.340871e-005
2.082778e+003,-6.829202e-005
2.084707e+003,-6.318465e-005
2.086635e+003,-5.809031e-005
2.088564e+003,-5.300902e-005
2.090492e+003,-4.793331e-005
2.092421e+003,-4.287437e-005
2.094349e+003,-3.782101e-005
2.096278e+003,-3.278069e-005
2.098206e+003,-2.775341e-005
2.100135e+003,-2.273731e-005
2.102063e+003,-1.773052e-005
2.103992e+003,-1.273677e-005
2.105920e+003,-7.750466e-006
2.107849e+003,-2.777204e-006
2.109777e+003,2.183020e-006
2.111706e+003,7.132068e-006
2.113634e+003,1.207367e-005
2.115563e+003,1.700222e-005
2.117491e+003,2.191775e-005
2.119420e+003,2.682582e-005
2.121348e+003,3.172085e-005
2.123277e+003,3.660657e-005
2.125205e+003,4.147738e-005
2.127134e+003,4.633889e-005
2.129062e+003,5.119108e-005
2.130991e+003,5.602650e-005
2.132919e+003,6.085634e-005
2.134848e+003,6.567687e-005
2.136776e+003,7.048249e-005
2.138705e+003,7.527694e-005
2.140633e+003,8.006021e-005
2.142562e+003,8.483417e-005
2.144490e+003,8.959696e-005
2.146419e+003,9.434484e-005
2.148347e+003,9.908713e-005
2.150276e+003,1.038145e-004
2.152204e+003,1.085326e-004
2.154133e+003,1.132395e-004
2.156061e+003,1.179334e-004
2.157990e+003,1.226179e-004
2.159918e+003,1.272913e-004
2.161847e+003,1.319535e-004
2.163775e+003,1.366064e-004
2.165704e+003,1.412462e-004
2.167632e+003,1.458749e-004
2.169561e+003,1.504906e-004
2.171489e+003,1.550987e-004
2.173418e+003,1.596957e-004
2.175346e+003,1.642779e-004
2.177275e+003,1.688506e-004
2.179203e+003,1.734123e-004
2.181132e+003,1.779627e-004
2.183060e+003,1.825057e-004
2.184989e+003,1.870319e-004
2.186917e+003,1.915488e-004
2.188846e+003,1.960564e-004
2.190774e+003,2.005529e-004
2.192703e+003,2.050381e-004
2.194631e+003,2.095103e-004
2.196560e+003,2.139751e-004
2.198488e+003,2.184231e-004
2.200417e+003,2.228636e-004
2.202345e+003,2.272930e-004
2.204274e+003,2.317093e-004
2.206202e+003,2.361163e-004
2.208131e+003,2.405122e-004
2.210059e+003,2.448987e-004
2.211988e+003,2.492722e-004
2.213916e+003,2.536345e-004
2.215845e+003,2.579875e-004
2.217773e+003,2.623256e-004
2.219702e+003,2.666544e-004
2.221630e+003,2.709720e-004
2.223559e+003,2.752785e-004
2.225487e+003,2.795737e-004
2.227416e+003,2.838578e-004
2.229344e+003,2.881326e-004
2.231273e+003,2.923943e-004
2.233201e+003,2.966449e-004
2.235130e+003,3.008861e-004
2.237058e+003,3.051143e-004
2.238987e+003,3.093332e-004
2.240915e+003,3.135428e-004
2.242844e+003,3.177375e-004
2.244772e+003,3.219210e-004
2.246701e+003,3.260933e-004
2.248629e+003,3.302563e-004
2.250558e+003,3.344081e-004
2.252486e+003,3.385488e-004
2.254415e+003,3.426783e-004
2.256343e+003,3.467929e-004
2.258272e+003,3.509019e-004
2.260200e+003,3.549997e-004
2.262129e+003,3.590826e-004
2.264057e+003,3.631581e-004
2.265986e+003,3.672186e-004
2.267914e+003,3.712717e-004
2.269843e+003,3.753137e-004
2.271771e+003,3.793426e-004
2.273700e+003,3.833603e-004
2.275628e+003,3.873650e-004
2.277557e+003,3.913622e-004
2.279485e+003,3.953483e-004
2.281414e+003,3.993213e-004
2.283342e+003,4.032850e-004
2.285271e+003,4.072357e-004
2.287199e+003,4.111771e-004
2.289128e+003,4.151072e-004
2.291056e+003,4.190225e-004
2.292985e+003,4.229322e-004
2.294913e+003,4.268251e-004
2.296842e+003,4.307125e-004
2.298770e+003,4.345868e-004
2.300699e+003,4.384499e-004
2.302627e+003,4.423000e-004
2.304556e+003,4.461389e-004
2.306484e+003,4.499704e-004
2.308413e+003,4.537906e-004
2.310341e+003,4.575960e-004
2.312270e+003,4.613940e-004
2.314198e+003,4.651770e-004
2.316127e+003,4.689526e-004
2.318055e+003,4.727170e-004
2.319984e+003,4.764702e-004
2.321912e+003,4.802085e-004
2.323841e+003,4.839357e-004
2.325769e+003,4.876554e-004
2.327698e+003,4.913639e-004
2.329626e+003,4.950613e-004
2.331555e+003,4.987437e-004
2.333483e+003,5.024187e-004
2.335412e+003,5.060807e-004
2.337340e+003,5.097333e-004
2.339269e+003,5.133748e-004
2.341197e+003,5.170051e-004
2.343126e+003,5.206224e-004
2.345054e+003,5.242303e-004
2.346983e+003,5.278271e-004
2.348911e+003,5.314127e-004
2.350840e+003,5.349871e-004
2.352768e+003,5.385522e-004
2.354697e+003,5.421005e-004
2.356625e+003,5.456433e-004
2.358554e+003,5.491730e-004
2.360482e+003,5.526897e-004
2.362411e+003,5.561989e-004
2.364339e+003,5.596932e-004
2.366268e+003,5.631801e-004
2.368196e+003,5.666576e-004
2.370125e+003,5.701184e-004
2.372053e+003,5.735699e-004
2.373982e+003,5.770121e-004
2.375910e+003,5.804431e-004
2.377839e+003,5.838592e-004
2.379767e+003,5.872659e-004
2.381696e+003,5.906653e-004
2.383624e+003,5.940497e-004
2.385553e+003,5.974248e-004
2.387481e+003,6.007887e-004
2.389410e+003,6.041396e-004
2.391338e+003,6.074812e-004
2.393267e+003,6.108098e-004
2.395195e+003,6.141327e-004
2.397124e+003,6.174389e-004
2.399052e+003,6.207339e-004
2.400981e+003,6.584786e-004
2.402909e+003,5.641468e-004
2.404838e+003,5.692430e-004
2.406766e+003,9.402297e-004
2.408695e+003,1.243822e-003
2.410623e+003,1.161123e-003
2.412552e+003,1.176594e-003
2.414480e+003,1.175569e-003
2.416409e+003,1.224047e-003
2.418337e+003,1.234230e-003
2.420266e+003,1.209728e-003
2.422194e+003,1.154726e-003
2.424123e+003,1.122694e-003
2.426051e+003,1.047065e-003
2.427979e+003,9.404719e-004
2.429908e+003,9.912699e-004
2.431837e+003,1.185037e-003
2.433765e+003,1.139624e-003
2.435694e+003,1.058435e-003
2.437622e+003,9.300355e-004
2.439551e+003,9.290334e-004
2.441479e+003,9.964034e-004
2.443407e+003,9.683818e-004
2.445336e+003,8.918885e-004
2.447265e+003,9.210296e-004
2.449193e+003,1.039317e-003
2.451122e+003,1.212489e-003
2.453050e+003,1.134939e-003
2.454979e+003,1.113890e-003
2.456907e+003,1.194919e-003
2.458836e+003,1.068221e-003
2.460764e+003,8.604731e-004
2.462693e+003,9.382479e-004
2.464621e+003,1.061101e-003
2.466550e+003,1.064833e-003
2.468478e+003,1.040028e-003
2.470406e+003,1.070695e-003
2.472335e+003,1.260716e-003
2.474264e+003,1.520721e-003
2.476192e+003,1.507374e-003
2.478121e+003,1.477847e-003
2.480049e+003,1.438569e-003
2.481978e+003,1.498539e-003
2.483906e+003,1.661973e-003
2.485835e+003,1.736954e-003
2.487763e+003,1.675829e-003
2.489692e+003,1.634076e-003
2.491620e+003,1.544347e-003
2.493549e+003,1.634959e-003
2.495477e+003,1.725545e-003
2.497406e+003,1.968924e-003
2.499334e+003,1.925724e-003
2.501263e+003,1.827575e-003
2.503191e+003,2.056260e-003
2.505120e+003,1.952235e-003
2.507048e+003,1.906656e-003
2.508977e+003,2.233524e-003
2.510905e+003,2.269693e-003
2.512833e+003,2.218312e-003
2.514762e+003,2.351118e-003
2.516691e+003,2.408296e-003
2.518619e+003,2.129368e-003
2.520548e+003,2.149364e-003
2.522476e+003,2.314903e-003
2.524405e+003,2.652893e-003
2.526333e+003,2.872955e-003
2.528261e+003,2.883499e-003
2.530190e+003,2.877958e-003
2.532119e+003,3.000716e-003
2.534047e+003,2.985889e-003
2.535976e+003,2.803637e-003
2.537904e+003,2.679659e-003
2.539833e+003,2.825785e-003
2.541761e+003,2.958631e-003
2.543689e+003,3.199605e-003
2.545618e+003,3.603311e-003
2.547547e+003,3.967578e-003
2.549475e+003,4.007442e-003
2.551404e+003,4.076697e-003
2.553332e+003,4.192259e-003
2.555260e+003,4.269597e-003
2.557189e+003,4.226904e-003
2.559117e+003,4.307046e-003
2.561046e+003,4.464376e-003
2.562975e+003,4.523623e-003
2.564903e+003,4.732583e-003
2.566832e+003,4.969329e-003
2.568760e+003,5.008680e-003
2.570688e+003,5.182899e-003
2.572617e+003,5.257453e-003
2.574546e+003,5.416811e-003
2.576474e+003,5.584763e-003
2.578403e+003,5.890910e-003
2.580331e+003,6.072693e-003
2.582260e+003,6.264484e-003
2.584188e+003,6.478069e-003
2.586116e+003,6.796750e-003
2.588045e+003,7.127003e-003
2.589974e+003,7.421858e-003
2.591902e+003,7.671091e-003
2.593831e+003,7.841415e-003
2.595759e+003,7.937894e-003
2.597688e+003,8.259598e-003
2.599616e+003,8.462330e-003
2.601544e+003,8.449186e-003
2.603473e+003,8.605314e-003
2.605402e+003,8.955608e-003
2.607330e+003,9.200166e-003
2.609259e+003,9.485973e-003
2.611187e+003,9.829782e-003
2.613115e+003,1.023907e-002
2.615044e+003,1.069325e-002
2.616972e+003,1.119042e-002
2.618901e+003,1.151766e-002
2.620830e+003,1.190374e-002
2.622758e+003,1.235003e-002
2.624687e+003,1.271999e-002
2.626615e+003,1.314931e-002
2.628543e+003,1.371959e-002
2.630472e+003,1.418754e-002
2.632400e+003,1.460800e-002
2.634329e+003,1.485338e-002
2.636258e+003,1.497376e-002
2.638186e+003,1.499147e-002
2.640115e+003,1.494884e-002
2.642043e+003,1.488644e-002
2.643971e+003,1.481155e-002
2.645900e+003,1.482265e-002
2.647828e+003,1.495624e-002
2.649757e+003,1.508374e-002
2.651686e+003,1.522400e-002
2.653614e+003,1.541900e-002
2.655542e+003,1.560098e-002
2.657471e+003,1.557137e-002
2.659399e+003,1.556328e-002
2.661328e+003,1.555999e-002
2.663256e+003,1.538912e-002
2.665185e+003,1.512316e-002
2.667114e+003,1.495334e-002
2.669042e+003,1.484101e-002
2.670970e+003,1.469372e-002
2.672899e+003,1.453194e-002
2.674827e+003,1.438035e-002
2.676756e+003,1.422421e-002
2.678685e+003,1.403210e-002
2.680613e+003,1.388239e-002
2.682542e+003,1.379582e-002
2.684470e+003,1.361521e-002
2.686398e+003,1.342693e-002
2.688327e+003,1.328450e-002
2.690255e+003,1.316835e-002
2.692184e+003,1.302854e-002
2.694113e+003,1.287878e-002
2.696041e+003,1.284513e-002
2.697969e+003,1.289170e-002
2.699898e+003,1.296604e-002
2.701826e+003,1.309776e-002
2.703755e+003,1.320162e-002
2.705683e+003,1.337306e-002
2.707612e+003,1.359264e-002
2.709541e+003,1.375534e-002
2.711469e+003,1.386781e-002
2.713397e+003,1.401797e-002
2.715326e+003,1.415932e-002
2.717254e+003,1.433023e-002
2.719183e+003,1.452854e-002
2.721111e+003,1.476168e-002
2.723040e+003,1.503127e-002
2.724969e+003,1.533139e-002
2.726897e+003,1.561202e-002
2.728825e+003,1.588400e-002
2.730754e+003,1.611936e-002
2.732682e+003,1.627957e-002
2.734611e+003,1.644236e-002
2.736539e+003,1.670161e-002
2.738468e+003,1.684459e-002
2.740396e+003,1.690569e-002
2.742325e+003,1.694638e-002
2.744253e+003,1.702056e-002
2.746182e+003,1.698045e-002
2.748110e+003,1.689771e-002
2.750039e+003,1.691636e-002
2.751967e+003,1.706761e-002
2.753896e+003,1.724100e-002
2.755824e+003,1.752198e-002
2.757753e+003,1.792415e-002
2.759681e+003,1.829387e-002
2.761610e+003,1.871917e-002
2.763538e+003,1.916522e-002
2.765467e+003,1.958292e-002
2.767395e+003,2.002468e-002
2.769324e+003,2.050948e-002
2.771252e+003,2.112734e-002
2.773181e+003,2.184426e-002
2.775109e+003,2.263117e-002
2.777038e+003,2.351341e-002
2.778966e+003,2.454928e-002
2.780895e+003,2.571461e-002
2.782823e+003,2.687040e-002
2.784752e+003,2.810412e-002
2.786680e+003,2.959233e-002
2.788609e+003,3.119327e-002
2.790537e+003,3.285795e-002
2.792466e+003,3.464034e-002
2.794394e+003,3.647959e-002
2.796323e+003,3.825624e-002
2.798251e+003,4.016600e-002
2.800180e+003,4.226773e-002
2.802108e+003,4.444733e-002
2.804037e+003,4.678134e-002
2.805965e+003,4.931431e-002
2.807894e+003,5.211674e-002
2.809822e+003,5.522584e-002
2.811751e+003,5.869658e-002
2.813679e+003,6.260513e-002
2.815608e+003,6.717031e-002
2.817536e+003,7.251987e-002
2.819465e+003,7.883683e-002
2.821393e+003,8.639042e-002
2.823322e+003,9.558610e-002
2.825250e+003,1.070104e-001
2.827179e+003,1.214704e-001
2.829107e+003,1.402032e-001
2.831036e+003,1.652104e-001
2.832964e+003,1.994219e-001
2.834893e+003,2.477798e-001
2.836821e+003,3.173038e-001
2.838750e+003,4.191747e-001
2.840678e+003,5.722827e-001
2.842607e+003,8.009044e-001
2.844535e+003,1.118355e+000
2.846464e+003,1.444610e+000
2.848392e+003,1.489422e+000
2.850321e+003,1.189376e+000
2.852249e+003,8.660797e-001
2.854178e+003,6.439015e-001
2.856106e+003,4.944682e-001
2.858035e+003,3.884732e-001
2.859963e+003,3.126324e-001
2.861892e+003,2.594838e-001
2.863820e+003,2.238648e-001
2.865749e+003,2.020010e-001
2.867677e+003,1.906721e-001
2.869606e+003,1.869170e-001
2.871534e+003,1.880357e-001
2.873463e+003,1.934228e-001
2.875391e+003,2.045781e-001
2.877320e+003,2.225034e-001
2.879248e+003,2.467166e-001
2.881177e+003,2.760206e-001
2.883105e+003,3.092528e-001
2.885034e+003,3.457451e-001
2.886962e+003,3.849773e-001
2.888891e+003,4.260392e-001
2.890819e+003,4.678512e-001
2.892748e+003,5.096469e-001
2.894676e+003,5.511015e-001
2.896605e+003,5.929339e-001
2.898533e+003,6.370345e-001
2.900462e+003,6.868541e-001
2.902390e+003,7.474043e-001
2.904319e+003,8.264460e-001
2.906247e+003,9.345484e-001
2.908176e+003,1.083006e+000
2.910104e+003,1.277997e+000
2.912033e+003,1.498288e+000
2.913961e+003,1.658339e+000
2.915890e+003,1.646540e+000
2.917818e+003,1.469407e+000
2.919747e+003,1.239224e+000
2.921675e+003,1.029884e+000
2.923604e+003,8.588006e-001
2.925532e+003,7.226116e-001
2.927461e+003,6.123549e-001
2.929389e+003,5.201730e-001
2.931318e+003,4.414348e-001
2.933246e+003,3.737925e-001
2.935175e+003,3.157855e-001
2.937103e+003,2.663617e-001
2.939032e+003,2.245581e-001
2.940960e+003,1.897975e-001
2.942889e+003,1.614374e-001
2.944817e+003,1.392263e-001
2.946746e+003,1.228035e-001
2.948674e+003,1.113671e-001
2.950603e+003,1.037160e-001
2.952531e+003,9.805728e-002
2.954460e+003,9.271939e-002
2.956388e+003,8.691493e-002
2.958317e+003,8.054689e-002
2.960245e+003,7.388830e-002
2.962174e+003,6.693657e-002
2.964102e+003,5.998485e-002
2.966031e+003,5.340707e-002
2.967959e+003,4.756227e-002
2.969888e+003,4.250123e-002
2.971816e+003,3.824887e-002
2.973745e+003,3.470740e-002
2.975673e+003,3.178242e-002
2.977602e+003,2.928260e-002
2.979530e+003,2.714454e-002
2.981459e+003,2.536811e-002
2.983387e+003,2.390481e-002
2.985316e+003,2.264986e-002
2.987244e+003,2.151471e-002
2.989173e+003,2.044585e-002
2.991101e+003,1.958172e-002
2.993030e+003,1.893339e-002
2.994958e+003,1.838595e-002
2.996887e+003,1.780764e-002
2.998815e+003,1.735941e-002
3.000744e+003,1.695897e-002
3.002672e+003,1.656694e-002
3.004601e+003,1.617798e-002
3.006529e+003,1.579437e-002
3.008458e+003,1.538280e-002
3.010386e+003,1.500554e-002
3.012315e+003,1.462789e-002
3.014243e+003,1.419535e-002
3.016172e+003,1.377888e-002
3.018100e+003,1.337817e-002
3.020029e+003,1.306313e-002
3.021957e+003,1.284457e-002
3.023886e+003,1.261242e-002
3.025814e+003,1.232538e-002
3.027743e+003,1.202050e-002
3.029671e+003,1.181240e-002
3.031600e+003,1.165277e-002
3.033528e+003,1.137591e-002
3.035457e+003,1.096242e-002
3.037385e+003,1.058353e-002
3.039314e+003,1.026943e-002
3.041242e+003,1.003236e-002
3.043171e+003,9.611246e-003
3.045099e+003,9.188028e-003
3.047028e+003,8.959877e-003
3.048956e+003,8.827266e-003
3.050885e+003,8.589634e-003
3.052813e+003,8.357941e-003
3.054742e+003,8.239948e-003
3.056670e+003,7.993355e-003
3.058599e+003,7.795303e-003
3.060527e+003,7.617277e-003
3.062456e+003,7.407130e-003
3.064384e+003,7.212707e-003
3.066313e+003,7.067373e-003
3.068241e+003,7.057329e-003
3.070170e+003,6.984109e-003
3.072098e+003,6.792174e-003
3.074027e+003,6.609075e-003
3.075955e+003,6.484777e-003
3.077884e+003,6.345917e-003
3.079812e+003,6.226342e-003
3.081741e+003,6.106824e-003
3.083669e+003,5.942451e-003
3.085598e+003,5.738908e-003
3.087526e+003,5.569478e-003
3.089455e+003,5.411474e-003
3.091383e+003,5.214853e-003
3.093312e+003,4.984220e-003
3.095240e+003,4.669731e-003
3.097169e+003,4.323330e-003
3.099097e+003,4.070461e-003
3.101026e+003,3.968718e-003
3.102954e+003,3.811592e-003
3.104883e+003,3.495427e-003
3.106811e+003,3.324553e-003
3.108740e+003,3.154702e-003
3.110668e+003,3.035955e-003
3.112597e+003,2.962403e-003
3.114525e+003,2.865264e-003
3.116454e+003,2.850534e-003
3.118382e+003,2.774378e-003
3.120311e+003,2.664201e-003
3.122239e+003,2.675602e-003
3.124168e+003,2.578586e-003
3.126096e+003,2.486862e-003
3.128025e+003,2.402475e-003
3.129953e+003,2.245445e-003
3.131882e+003,2.243409e-003
3.133810e+003,2.373224e-003
3.135739e+003,2.366647e-003
3.137667e+003,2.327792e-003
3.139596e+003,2.211919e-003
3.141524e+003,2.105962e-003
3.143453e+003,2.127297e-003
3.145381e+003,2.124736e-003
3.147310e+003,2.095453e-003
3.149238e+003,2.168508e-003
3.151167e+003,2.243813e-003
3.153095e+003,2.253648e-003
3.155024e+003,2.228472e-003
3.156952e+003,2.231803e-003
3.158881e+003,2.202241e-003
3.160809e+003,2.168722e-003
3.162738e+003,2.120294e-003
3.164666e+003,2.196273e-003
3.166594e+003,2.247630e-003
3.168523e+003,2.267819e-003
3.170452e+003,2.270952e-003
3.172380e+003,2.315300e-003
3.174309e+003,2.307577e-003
3.176237e+003,2.357071e-003
3.178166e+003,2.395835e-003
3.180094e+003,2.380339e-003
3.182022e+003,2.348932e-003
3.183951e+003,2.333073e-003
3.185880e+003,2.386872e-003
3.187808e+003,2.389528e-003
3.189737e+003,2.290443e-003
3.191665e+003,2.340654e-003
3.193594e+003,2.410527e-003
3.195522e+003,2.414018e-003
3.197450e+003,2.414171e-003
3.199379e+003,2.361672e-003
3.201308e+003,2.307648e-003
3.203236e+003,2.319748e-003
3.205165e+003,2.355820e-003
3.207093e+003,2.363035e-003
3.209021e+003,2.279837e-003
3.210950e+003,2.156813e-003
3.212878e+003,2.204498e-003
3.214807e+003,2.301767e-003
3.216736e+003,2.293508e-003
3.218664e+003,2.301626e-003
3.220593e+003,2.271377e-003
3.222521e+003,2.193321e-003
3.224449e+003,2.141062e-003
3.226378e+003,2.060726e-003
3.228307e+003,2.093362e-003
3.230235e+003,2.178026e-003
3.232164e+003,2.218051e-003
3.234092e+003,2.230136e-003
3.236021e+003,2.145147e-003
3.237949e+003,2.105610e-003
3.239877e+003,2.251964e-003
3.241806e+003,2.387712e-003
3.243735e+003,2.365492e-003
3.245663e+003,2.348755e-003
3.247592e+003,2.357120e-003
3.249520e+003,2.308415e-003
3.251448e+003,2.234595e-003
3.253377e+003,2.395326e-003
3.255305e+003,2.521394e-003
3.257234e+003,2.537522e-003
3.259163e+003,2.552394e-003
3.261091e+003,2.607429e-003
3.263020e+003,2.618087e-003
3.264948e+003,2.625126e-003
3.266876e+003,2.578076e-003
3.268805e+003,2.481654e-003
3.270733e+003,2.568185e-003
3.272662e+003,2.679083e-003
3.274591e+003,2.752466e-003
3.276519e+003,2.837598e-003
3.278448e+003,2.820136e-003
3.280376e+003,2.813688e-003
3.282304e+003,2.877768e-003
3.284233e+003,2.942350e-003
3.286161e+003,2.818940e-003
3.288090e+003,2.763588e-003
3.290019e+003,2.844535e-003
3.291947e+003,2.784822e-003
3.293875e+003,2.721803e-003
3.295804e+003,2.778629e-003
3.297732e+003,2.845326e-003
3.299661e+003,2.877174e-003
3.301589e+003,2.887271e-003
3.303518e+003,2.840606e-003
3.305447e+003,2.808573e-003
3.307375e+003,2.853960e-003
3.309303e+003,2.953881e-003
3.311232e+003,2.958294e-003
3.313160e+003,2.883367e-003
3.315089e+003,2.835644e-003
3.317018e+003,2.840742e-003
3.318946e+003,2.781440e-003
3.320875e+003,2.719028e-003
3.322803e+003,2.803065e-003
3.324731e+003,2.876990e-003
3.326660e+003,2.903836e-003
3.328588e+003,2.905915e-003
3.330517e+003,2.890913e-003
3.332446e+003,2.955573e-003
3.334374e+003,3.035452e-003
3.336302e+003,2.987456e-003
3.338231e+003,2.909953e-003
3.340159e+003,2.881024e-003
3.342088e+003,2.906866e-003
3.344016e+003,2.936335e-003
3.345945e+003,2.921022e-003
3.347874e+003,2.884248e-003
3.349802e+003,2.918346e-003
3.351730e+003,2.886990e-003
3.353659e+003,2.910817e-003
3.355587e+003,2.924033e-003
3.357516e+003,2.895795e-003
3.359444e+003,2.900667e-003
3.361373e+003,2.940791e-003
3.363302e+003,2.965901e-003
3.365230e+003,2.898574e-003
3.367158e+003,2.878141e-003
3.369087e+003,2.962682e-003
3.371015e+003,2.910970e-003
3.372944e+003,2.811922e-003
3.374872e+003,2.848482e-003
3.376801e+003,2.796385e-003
3.378729e+003,2.722152e-003
3.380658e+003,2.706688e-003
3.382586e+003,2.724577e-003
3.384515e+003,2.731429e-003
3.386443e+003,2.573894e-003
3.388372e+003,2.556859e-003
3.390300e+003,2.653755e-003
3.392229e+003,2.799306e-003
3.394157e+003,2.773376e-003
3.396086e+003,2.691381e-003
3.398014e+003,2.587760e-003
3.399943e+003,2.529107e-003
3.401871e+003,2.430940e-003
3.403800e+003,2.309542e-003
3.405728e+003,2.245961e-003
3.407657e+003,2.204230e-003
3.409585e+003,2.124809e-003
3.411514e+003,2.046190e-003
3.413442e+003,2.073711e-003
3.415371e+003,1.991179e-003
3.417299e+003,1.779456e-003
3.419228e+003,1.888571e-003
3.421156e+003,2.080042e-003
3.423085e+003,1.982108e-003
3.425013e+003,1.921307e-003
3.426942e+003,1.989342e-003
3.428870e+003,1.895884e-003
3.430799e+003,1.863033e-003
3.432727e+003,1.867699e-003
3.434656e+003,1.762904e-003
3.436584e+003,1.737997e-003
3.438513e+003,1.735287e-003
3.440441e+003,1.714712e-003
3.442370e+003,1.828868e-003
3.444298e+003,1.715647e-003
3.446227e+003,1.814961e-003
3.448155e+003,1.896374e-003
3.450084e+003,1.627982e-003
3.452012e+003,1.453197e-003
3.453941e+003,1.523575e-003
3.455869e+003,1.345383e-003
3.457798e+003,1.192510e-003
3.459726e+003,1.170691e-003
3.461655e+003,1.307370e-003
3.463583e+003,1.323685e-003
3.465512e+003,1.169654e-003
3.467440e+003,1.113806e-003
3.469369e+003,1.106136e-003
3.471297e+003,1.062308e-003
3.473226e+003,1.040081e-003
3.475154e+003,9.587388e-004
3.477083e+003,7.675756e-004
3.479011e+003,7.277746e-004
3.480940e+003,9.936132e-004
3.482868e+003,1.167709e-003
3.484797e+003,1.146467e-003
3.486725e+003,1.002863e-003
3.488654e+003,8.662827e-004
3.490582e+003,8.570179e-004
3.492511e+003,8.352082e-004
3.494439e+003,7.508788e-004
3.496368e+003,8.112453e-004
3.498296e+003,7.494073e-004
3.500225e+003,5.770531e-004
3.502153e+003,8.626692e-004
3.504082e+003,1.062874e-003
3.506010e+003,6.507747e-004
3.507939e+003,5.530640e-004
3.509867e+003,7.695258e-004
3.511796e+003,6.287936e-004
3.513724e+003,4.090331e-004
3.515653e+003,3.459640e-004
3.517581e+003,3.699306e-004
3.519510e+003,3.603902e-004
3.521438e+003,4.873350e-004
3.523367e+003,8.396860e-004
3.525295e+003,7.843561e-004
3.527224e+003,7.951520e-004
3.529152e+003,6.684400e-004
3.531081e+003,2.420414e-004
3.533009e+003,-1.386199e-004
3.534938e+003,1.122169e-004
3.536866e+003,3.504399e-004
3.538795e+003,8.219108e-005
3.540723e+003,-1.223255e-004
3.542652e+003,3.360398e-005
3.544580e+003,3.812332e-004
3.546509e+003,8.256212e-004
3.548437e+003,5.829707e-004
3.550366e+003,1.754817e-004
3.552294e+003,1.099557e-004
3.554223e+003,8.923374e-005
3.556151e+003,-7.618405e-005
3.558080e+003,-8.902885e-005
3.560008e+003,1.212154e-004
3.561937e+003,1.747161e-005
3.563865e+003,-2.623852e-004
3.565794e+003,4.924461e-004
3.567722e+003,1.474116e-003
3.569651e+003,6.329156e-004
3.571579e+003,-3.000796e-004
3.573508e+003,-6.643832e-004
3.575436e+003,-4.968978e-004
3.577365e+003,-9.057671e-005
3.579293e+003,2.476182e-004
3.581222e+003,2.038684e-004
3.583150e+003,-2.017245e-004
3.585079e+003,-3.306586e-004
3.587007e+003,1.079710e-003
3.588936e+003,1.596680e-003
3.590864e+003,7.036347e-004
3.592793e+003,4.154835e-004
3.594721e+003,9.900853e-004
3.596650e+003,1.482127e-003
3.598578e+003,1.943706e-003
3.600507e+003,2.778439e-003
3.602435e+003,2.753953e-003
3.604364e+003,1.991449e-003
3.606292e+003,1.969453e-003
3.608221e+003,3.038714e-003
3.610149e+003,2.728719e-003
3.612078e+003,2.075359e-003
3.614006e+003,1.829974e-003
3.615935e+003,1.116645e-003
3.617863e+003,1.936795e-003
3.619792e+003,3.021285e-003
3.621720e+003,1.863407e-003
3.623649e+003,5.984399e-004
3.625577e+003,-3.508851e-004
3.627506e+003,-5.272776e-005
3.629434e+003,2.945516e-003
3.631363e+003,2.353061e-003
3.633291e+003,1.104364e-003
3.635220e+003,4.638694e-004
3.637148e+003,1.896601e-004
3.639077e+003,6.086491e-004
3.641005e+003,1.179898e-003
3.642934e+003,9.682998e-004
3.644862e+003,1.909286e-004
3.646791e+003,4.103538e-004
3.648719e+003,3.026607e-003
3.650648e+003,4.222386e-003
3.652576e+003,1.606993e-003
3.654505e+003,-5.498901e-005
3.656433e+003,2.390686e-004
3.658362e+003,5.467460e-004
3.660290e+003,3.392287e-004
3.662219e+003,1.852922e-004
3.664147e+003,-1.413226e-004
3.666076e+003,-8.489639e-004
3.668004e+003,-8.976813e-004
3.669933e+003,1.297953e-003
3.671861e+003,4.808195e-004
3.673790e+003,-9.336751e-004
3.675718e+003,1.570562e-003
3.677647e+003,2.047598e-003
3.679575e+003,1.229696e-003
3.681504e+003,4.522037e-004
3.683432e+003,-4.000086e-004
3.685361e+003,-1.047639e-003
3.687289e+003,-9.649303e-004
3.689218e+003,1.052698e-003
3.691146e+003,2.259111e-003
3.693075e+003,1.381224e-003
3.695003e+003,3.354773e-004
3.696932e+003,-3.740769e-004
3.698860e+003,-8.287951e-004
3.700789e+003,-1.286771e-004
3.702717e+003,6.050058e-004
3.704646e+003,2.139248e-005
3.706574e+003,-7.928461e-004
3.708503e+003,-1.004927e-003
3.710431e+003,7.323399e-004
3.712360e+003,2.148753e-003
3.714288e+003,1.037201e-003
3.716217e+003,-3.741588e-004
3.718145e+003,-8.412376e-004
3.720074e+003,-7.504188e-004
3.722002e+003,-1.013316e-004
3.723931e+003,9.206440e-004
3.725859e+003,1.514988e-003
3.727788e+003,7.358454e-004
3.729716e+003,-9.111706e-004
3.731645e+003,-9.349007e-004
3.733573e+003,7.145386e-004
3.735502e+003,1.992341e-003
3.737430e+003,1.923386e-003
3.739359e+003,1.108821e-003
3.741287e+003,-3.893673e-004
3.743216e+003,-1.056734e-003
3.745144e+003,1.214219e-003
3.747073e+003,9.295531e-004
3.749001e+003,4.364233e-004
3.750930e+003,2.238901e-003
3.752858e+003,1.965413e-003
3.754787e+003,6.603766e-004
3.756715e+003,-6.167591e-005
3.758644e+003,5.063508e-004
3.760572e+003,8.718930e-004
3.762501e+003,-1.572445e-005
3.764429e+003,-3.914796e-004
3.766358e+003,-2.877470e-004
3.768286e+003,-2.412144e-004
3.770215e+003,7.712208e-004
3.772143e+003,4.578363e-004
3.774072e+003,-1.895335e-004
3.776000e+003,-4.945584e-004
3.777929e+003,-4.819334e-004
3.779857e+003,3.187153e-004
3.781786e+003,1.275688e-004
3.783714e+003,-7.684715e-005
3.785643e+003,3.538541e-004
3.787571e+003,8.143298e-005
3.789500e+003,-1.290124e-004
3.791428e+003,-1.838561e-004
3.793357e+003,-9.104069e-004
3.795285e+003,-4.320666e-004
3.797214e+003,5.206186e-004
3.799142e+003,-3.098063e-004
3.801071e+003,3.788657e-004
3.802999e+003,1.047777e-003
3.804927e+003,1.101140e-004
3.806856e+003,6.565079e-004
3.808785e+003,6.761495e-004
3.810713e+003,1.066346e-004
3.812642e+003,-6.155651e-004
3.814570e+003,-8.463841e-004
3.816499e+003,1.876988e-005
3.818427e+003,-5.782004e-004
3.820355e+003,2.293587e-004
3.822284e+003,1.954231e-003
3.824213e+003,7.441305e-004
3.826141e+003,5.803201e-004
3.828070e+003,5.892478e-004
3.829998e+003,-3.065336e-004
3.831927e+003,-1.912415e-004
3.833855e+003,3.491417e-004
3.835783e+003,3.557056e-004
3.837712e+003,1.096297e-003
3.839641e+003,1.840854e-003
3.841569e+003,1.680698e-003
3.843498e+003,1.750752e-003
3.845426e+003,9.327903e-004
3.847354e+003,-3.522113e-004
3.849283e+003,-1.157979e-003
3.851211e+003,-1.476450e-003
3.853140e+003,2.203353e-003
3.855069e+003,3.601685e-003
3.856997e+003,1.992576e-003
3.858926e+003,4.690811e-004
3.860854e+003,-1.761690e-004
3.862782e+003,2.481043e-004
3.864711e+003,1.522800e-003
3.866640e+003,5.014632e-004
3.868568e+003,-8.876249e-005
3.870497e+003,1.535233e-003
3.872425e+003,1.605822e-003
3.874354e+003,1.845032e-003
3.876282e+003,9.901263e-004
3.878210e+003,-5.078930e-004
3.880139e+003,3.536399e-004
3.882068e+003,9.143557e-004
3.883996e+003,4.627239e-004
3.885925e+003,1.182415e-003
3.887853e+003,5.283393e-004
3.889781e+003,-2.428479e-004
3.891710e+003,1.361793e-003
3.893638e+003,1.516372e-003
3.895567e+003,3.050826e-004
3.897496e+003,-2.848301e-004
3.899424e+003,2.259109e-004
3.901353e+003,6.919466e-004
3.903281e+003,1.755830e-003
3.905209e+003,2.441991e-003
3.907138e+003,1.310483e-003
3.909066e+003,1.237039e-004
3.910995e+003,-1.631491e-004
3.912924e+003,-2.326909e-004
3.914852e+003,-1.063496e-004
3.916781e+003,4.738532e-004
3.918709e+003,6.761197e-004
3.920637e+003,5.911924e-004
3.922566e+003,5.216841e-004
3.924494e+003,7.665828e-004
3.926423e+003,4.001614e-004
3.928352e+003,-1.630690e-004
3.930280e+003,1.885425e-004
3.932208e+003,9.244289e-004
3.934137e+003,7.263198e-004
3.936065e+003,1.564864e-004
3.937994e+003,-1.424160e-004
3.939922e+003,-5.098712e-004
3.941851e+003,-1.600385e-004
3.943780e+003,3.766008e-004
3.945708e+003,7.922947e-005
3.947636e+003,-1.238845e-005
3.949565e+003,2.241749e-004
3.951493e+003,9.058230e-005
3.953422e+003,-1.187865e-004
3.955351e+003,-2.442636e-004
3.957279e+003,-4.438907e-004
3.959208e+003,-4.944000e-004
3.961136e+003,-2.533104e-004
3.963064e+003,-2.033617e-004
3.964993e+003,-4.844144e-004
3.966921e+003,-5.992912e-004
3.968850e+003,-3.627241e-004
3.970779e+003,-3.589001e-004
3.972707e+003,-3.635082e-004
3.974635e+003,-1.073647e-004
3.976564e+003,-2.614222e-005
3.978492e+003,-2.458915e-004
3.980421e+003,-3.194790e-004
3.982349e+003,-3.871564e-004
3.984278e+003,-5.133059e-004
3.986207e+003,-5.646180e-004
3.988135e+003,-5.226061e-004
3.990063e+003,-3.407560e-004
3.991992e+003,-2.605338e-004
3.993920e+003,-3.643893e-004
3.995849e+003,-4.278943e-004
3.997777e+003,-4.427694e-004
3.999706e+003,-5.118586e-004
4.001635e+003,0.000000e+000
