3.991992e+002,0.000000e+000
4.011277e+002,0.000000e+000
4.030562e+002,0.000000e+000
4.049846e+002,0.000000e+000
4.069131e+002,0.000000e+000
4.088416e+002,0.000000e+000
4.107701e+002,0.000000e+000
4.126986e+002,0.000000e+000
4.146271e+002,0.000000e+000
4.165556e+002,0.000000e+000
4.184841e+002,0.000000e+000
4.204126e+002,0.000000e+000
4.223411e+002,0.000000e+000
4.242697e+002,0.000000e+000
4.261982e+002,0.000000e+000
4.281266e+002,0.000000e+000
4.300551e+002,0.000000e+000
4.319836e+002,0.000000e+000
4.339121e+002,0.000000e+000
4.358406e+002,0.000000e+000
4.377691e+002,0.000000e+000
4.396976e+002,0.000000e+000
4.416261e+002,0.000000e+000
4.435546e+002,0.000000e+000
4.454831e+002,0.000000e+000
4.474116e+002,0.000000e+000
4.493401e+002,0.000000e+000
4.512686e+002,0.000000e+000
4.531971e+002,0.000000e+000
4.551256e+002,0.000000e+000
4.570541e+002,0.000000e+000
4.589826e+002,0.000000e+000
4.609111e+002,0.000000e+000
4.628396e+002,0.000000e+000
4.647681e+002,0.000000e+000
4.666966e+002,0.000000e+000
4.686251e+002,0.000000e+000
4.705536e+002,0.000000e+000
4.724821e+002,0.000000e+000
4.744106e+002,0.000000e+000
4.763391e+002,0.000000e+000
4.782676e+002,0.000000e+000
4.801961e+002,0.000000e+000
4.821246e+002,0.000000e+000
4.840531e+002,0.000000e+000
4.859816e+002,0.000000e+000
4.879101e+002,0.000000e+000
4.898386e+002,0.000000e+000
4.917671e+002,0.000000e+000
4.936956e+002,0.000000e+000
4.956241e+002,0.000000e+000
4.975526e+002,0.000000e+000
4.994811e+002,0.000000e+000
5.014096e+002,0.000000e+000
5.033381e+002,0.000000e+000
5.052666e+002,0.000000e+000
5.071951e+002,0.000000e+000
5.091236e+002,0.000000e+000
5.110521e+002,0.000000e+000
5.129806e+002,0.000000e+000
5.149091e+002,0.000000e+000
5.168376e+002,0.000000e+000
5.187661e+002,0.000000e+000
5.206946e+002,0.000000e+000
5.226230e+002,0.000000e+000
5.245516e+002,6.813360e-004
5.264800e+002,7.155724e-004
5.284086e+002,5.992735e-004
5.303370e+002,5.099382e-004
5.322656e+002,3.721621e-004
5.341940e+002,2.674656e-004
5.361226e+002,9.422936e-005
5.380510e+002,-2.611615e-005
5.399796e+002,-3.367476e-005
5.419081e+002,4.245155e-005
5.438365e+002,1.654960e-006
5.457650e+002,-1.774393e-004
5.476935e+002,-2.591060e-004
5.496221e+002,-5.959254e-005
5.515505e+002,2.137572e-005
5.534790e+002,2.037734e-004
5.554075e+002,2.789972e-004
5.573361e+002,1.996420e-004
5.592645e+002,1.203269e-006
5.611931e+002,-1.368765e-004
5.631215e+002,-2.409881e-004
5.650500e+002,-1.175320e-004
5.669785e+002,-1.550019e-004
5.689070e+002,-2.233544e-004
5.708355e+002,-2.635987e-004
5.727640e+002,-2.082707e-004
5.746925e+002,-3.324309e-004
5.766210e+002,-2.919836e-004
5.785495e+002,-1.610899e-004
5.804780e+002,-1.273947e-004
5.824065e+002,-1.297807e-004
5.843350e+002,-7.127970e-005
5.862635e+002,-2.186531e-004
5.881920e+002,-1.565125e-004
5.901205e+002,-1.291214e-004
5.920490e+002,-8.116476e-005
5.939775e+002,-1.811422e-004
5.959060e+002,-1.446167e-004
5.978345e+002,-1.878273e-004
5.997630e+002,-1.374921e-004
6.016915e+002,-2.020942e-004
6.036200e+002,-1.275195e-004
6.055485e+002,-2.140552e-005
6.074770e+002,-3.520586e-005
6.094055e+002,-9.690132e-005
6.113340e+002,3.413297e-006
6.132625e+002,-3.550947e-005
6.151910e+002,-1.270901e-004
6.171195e+002,-1.378702e-004
6.190480e+002,-2.900138e-005
6.209765e+002,2.435129e-005
6.229050e+002,8.998998e-005
6.248335e+002,1.427224e-004
6.267620e+002,2.155351e-004
6.286905e+002,2.391785e-004
6.306190e+002,3.384594e-004
6.325475e+002,3.747186e-004
6.344760e+002,4.262486e-004
6.364045e+002,4.085535e-004
6.383330e+002,4.757391e-004
6.402615e+002,4.471755e-004
6.421899e+002,3.540209e-004
6.441185e+002,2.702689e-004
6.460470e+002,4.077191e-004
6.479755e+002,4.191380e-004
6.499039e+002,3.298558e-004
6.518325e+002,2.728505e-004
6.537610e+002,2.119765e-004
6.556895e+002,9.963941e-005
6.576179e+002,1.560589e-004
6.595464e+002,2.153702e-004
6.614750e+002,2.752505e-004
6.634034e+002,3.150702e-004
6.653319e+002,3.398275e-004
6.672604e+002,3.014365e-004
6.691890e+002,3.408641e-004
6.711174e+002,2.290439e-004
6.730460e+002,1.971051e-004
6.749745e+002,1.586964e-004
6.769030e+002,1.634369e-004
6.788314e+002,1.322581e-004
6.807599e+002,2.695201e-004
6.826885e+002,2.557663e-004
6.846169e+002,2.264623e-004
6.865454e+002,2.381969e-004
6.884739e+002,2.770657e-004
6.904025e+002,3.387947e-004
6.923309e+002,4.353365e-004
6.942594e+002,3.955634e-004
6.961879e+002,3.983472e-004
6.981165e+002,4.017362e-004
7.000449e+002,4.551131e-004
7.019734e+002,4.439903e-004
7.039019e+002,4.652906e-004
7.058304e+002,4.198467e-004
7.077589e+002,4.099030e-004
7.096874e+002,4.148493e-004
7.116159e+002,5.017733e-004
7.135444e+002,5.091839e-004
7.154729e+002,5.303742e-004
7.174014e+002,5.156584e-004
7.193299e+002,4.960159e-004
7.212584e+002,4.962767e-004
7.231869e+002,5.968390e-004
7.251154e+002,5.789315e-004
7.270439e+002,5.897079e-004
7.289724e+002,5.803136e-004
7.309009e+002,5.669240e-004
7.328294e+002,4.964974e-004
7.347579e+002,5.637202e-004
7.366864e+002,5.770279e-004
7.386149e+002,5.659303e-004
7.405434e+002,5.981410e-004
7.424719e+002,6.639529e-004
7.444004e+002,6.046016e-004
7.463289e+002,6.017936e-004
7.482574e+002,5.335566e-004
7.501859e+002,5.655084e-004
7.521144e+002,5.774368e-004
7.540428e+002,6.499831e-004
7.559714e+002,6.642640e-004
7.578999e+002,7.274225e-004
7.598284e+002,7.564966e-004
7.617568e+002,8.029882e-004
7.636854e+002,7.668585e-004
7.656139e+002,8.064881e-004
7.675424e+002,8.698888e-004
7.694709e+002,1.000538e-003
7.713994e+002,1.034578e-003
7.733279e+002,1.072902e-003
7.752563e+002,1.032948e-003
7.771849e+002,1.049612e-003
7.791134e+002,1.108522e-003
7.810419e+002,1.244178e-003
7.829703e+002,1.369692e-003
7.848989e+002,1.625268e-003
7.868274e+002,1.866827e-003
7.887559e+002,2.181478e-003
7.906843e+002,2.385164e-003
7.926129e+002,2.697773e-003
7.945414e+002,3.012151e-003
7.964698e+002,3.401389e-003
7.983983e+002,3.784038e-003
8.003268e+002,4.293568e-003
8.022554e+002,5.039826e-003
8.041838e+002,6.519048e-003
8.061123e+002,8.769952e-003
8.080408e+002,1.070377e-002
8.099694e+002,1.054983e-002
8.118978e+002,8.567430e-003
8.138263e+002,6.213173e-003
8.157548e+002,4.757160e-003
8.176833e+002,4.064154e-003
8.196118e+002,3.800258e-003
8.215403e+002,3.614167e-003
8.234689e+002,3.655013e-003
8.253973e+002,3.732681e-003
8.273258e+002,3.945339e-003
8.292543e+002,4.288679e-003
8.311829e+002,4.868362e-003
8.331113e+002,5.570028e-003
8.350398e+002,6.957348e-003
8.369683e+002,1.075150e-002
8.388969e+002,1.918117e-002
8.408253e+002,2.410960e-002
8.427538e+002,1.750152e-002
8.446823e+002,9.583835e-003
8.466108e+002,6.035991e-003
8.485393e+002,4.589243e-003
8.504678e+002,3.987446e-003
8.523963e+002,3.558548e-003
8.543248e+002,3.288222e-003
8.562533e+002,3.089357e-003
8.581818e+002,2.957536e-003
8.601103e+002,2.798095e-003
8.620388e+002,2.743244e-003
8.639673e+002,2.609080e-003
8.658958e+002,2.555897e-003
8.678243e+002,2.463143e-003
8.697528e+002,2.403546e-003
8.716813e+002,2.339108e-003
8.736098e+002,2.301767e-003
8.755383e+002,2.286786e-003
8.774668e+002,2.325157e-003
8.793953e+002,2.332997e-003
8.813238e+002,2.404692e-003
8.832523e+002,2.449721e-003
8.851808e+002,2.606716e-003
8.871093e+002,2.845917e-003
8.890378e+002,3.128678e-003
8.909663e+002,3.429102e-003
8.928948e+002,4.212100e-003
8.948232e+002,5.804300e-003
8.967518e+002,8.100463e-003
8.986803e+002,9.609997e-003
9.006088e+002,8.925494e-003
9.025372e+002,6.556921e-003
9.044658e+002,4.507154e-003
9.063943e+002,3.313471e-003
9.083228e+002,2.840132e-003
9.102512e+002,2.622880e-003
9.121797e+002,2.502462e-003
9.141083e+002,2.437573e-003
9.160367e+002,2.435187e-003
9.179653e+002,2.273314e-003
9.198937e+002,2.231078e-003
9.218223e+002,2.288429e-003
9.237507e+002,2.342338e-003
9.256793e+002,2.339602e-003
9.276077e+002,2.372039e-003
9.295363e+002,2.359306e-003
9.314647e+002,2.563501e-003
9.333932e+002,2.806712e-003
9.353217e+002,3.193611e-003
9.372502e+002,3.884137e-003
9.391787e+002,4.594199e-003
9.411072e+002,4.571937e-003
9.430358e+002,4.165931e-003
9.449642e+002,3.741415e-003
9.468928e+002,3.567824e-003
9.488212e+002,3.586143e-003
9.507498e+002,3.797648e-003
9.526782e+002,3.983011e-003
9.546068e+002,4.270842e-003
9.565352e+002,4.663009e-003
9.584637e+002,5.229130e-003
9.603922e+002,5.926404e-003
9.623207e+002,6.836081e-003
9.642492e+002,8.184319e-003
9.661777e+002,1.078205e-002
9.681062e+002,1.587196e-002
9.700347e+002,2.416969e-002
9.719632e+002,3.052724e-002
9.738917e+002,2.855485e-002
9.758202e+002,2.138457e-002
9.777487e+002,1.481153e-002
9.796772e+002,1.036188e-002
9.816057e+002,7.912634e-003
9.835342e+002,6.792387e-003
9.854627e+002,6.582284e-003
9.873912e+002,6.968755e-003
9.893197e+002,8.167079e-003
9.912482e+002,1.052322e-002
9.931767e+002,1.500708e-002
9.951052e+002,2.177690e-002
9.970337e+002,2.693573e-002
9.989622e+002,2.459788e-002
1.000891e+003,1.732009e-002
1.002819e+003,1.143022e-002
1.004748e+003,8.283800e-003
1.006676e+003,6.606586e-003
1.008605e+003,5.755965e-003
1.010533e+003,5.236106e-003
1.012462e+003,4.958918e-003
1.014390e+003,4.726244e-003
1.016319e+003,4.582558e-003
1.018247e+003,4.512509e-003
1.020176e+003,4.466124e-003
1.022104e+003,4.350195e-003
1.024033e+003,4.319785e-003
1.025961e+003,4.296485e-003
1.027890e+003,4.329553e-003
1.029818e+003,4.379787e-003
1.031747e+003,4.571302e-003
1.033675e+003,4.690176e-003
1.035604e+003,4.831508e-003
1.037532e+003,4.938327e-003
1.039461e+003,5.157433e-003
1.041389e+003,5.561195e-003
1.043318e+003,6.051967e-003
1.045246e+003,6.054301e-003
1.047175e+003,5.588232e-003
1.049103e+003,5.064577e-003
1.051032e+003,4.748141e-003
1.052960e+003,4.535027e-003
1.054889e+003,4.473576e-003
1.056817e+003,4.387394e-003
1.058746e+003,4.382402e-003
1.060674e+003,4.366538e-003
1.062603e+003,4.330184e-003
1.064531e+003,4.229385e-003
1.066460e+003,4.260380e-003
1.068388e+003,4.321912e-003
1.070317e+003,4.395531e-003
1.072245e+003,4.384216e-003
1.074174e+003,4.449980e-003
1.076102e+003,4.491920e-003
1.078031e+003,4.606098e-003
1.079959e+003,4.718842e-003
1.081888e+003,4.865438e-003
1.083816e+003,4.913919e-003
1.085745e+003,5.050857e-003
1.087673e+003,5.150313e-003
1.089602e+003,5.312376e-003
1.091530e+003,5.504213e-003
1.093459e+003,5.857816e-003
1.095387e+003,6.283730e-003
1.097316e+003,6.898794e-003
1.099244e+003,7.652828e-003
1.101173e+003,8.434568e-003
1.103101e+003,8.570293e-003
1.105030e+003,7.925756e-003
1.106958e+003,6.925926e-003
1.108887e+003,6.253920e-003
1.110815e+003,5.874023e-003
1.112744e+003,5.630907e-003
1.114672e+003,5.425652e-003
1.116601e+003,5.315032e-003
1.118529e+003,5.169032e-003
1.120458e+003,5.125895e-003
1.122386e+003,5.029874e-003
1.124315e+003,5.032253e-003
1.126243e+003,5.019685e-003
1.128172e+003,5.097564e-003
1.130100e+003,5.213855e-003
1.132029e+003,5.414266e-003
1.133957e+003,5.637584e-003
1.135885e+003,6.031483e-003
1.137814e+003,6.505815e-003
1.139743e+003,7.219568e-003
1.141671e+003,8.142790e-003
1.143600e+003,9.368934e-003
1.145528e+003,1.078983e-002
1.147457e+003,1.267834e-002
1.149385e+003,1.493805e-002
1.151314e+003,1.714177e-002
1.153242e+003,1.854465e-002
1.155171e+003,1.942836e-002
1.157099e+003,2.024387e-002
1.159028e+003,2.151553e-002
1.160956e+003,2.342840e-002
1.162885e+003,2.636209e-002
1.164813e+003,2.979933e-002
1.166742e+003,3.176571e-002
1.168670e+003,2.914466e-002
1.170599e+003,2.274051e-002
1.172527e+003,1.627695e-002
1.174456e+003,1.187777e-002
1.176384e+003,9.146396e-003
1.178313e+003,7.554136e-003
1.180241e+003,6.611951e-003
1.182170e+003,6.138034e-003
1.184098e+003,5.855994e-003
1.186027e+003,5.752468e-003
1.187955e+003,5.723052e-003
1.189884e+003,5.845768e-003
1.191812e+003,5.950321e-003
1.193740e+003,6.165756e-003
1.195669e+003,6.370192e-003
1.197598e+003,6.646488e-003
1.199526e+003,6.920092e-003
1.201455e+003,7.392960e-003
1.203383e+003,7.910503e-003
1.205312e+003,8.516734e-003
1.207240e+003,9.063711e-003
1.209168e+003,9.652220e-003
1.211097e+003,1.017563e-002
1.213026e+003,1.077740e-002
1.214954e+003,1.139391e-002
1.216883e+003,1.200356e-002
1.218811e+003,1.234204e-002
1.220740e+003,1.242791e-002
1.222668e+003,1.216792e-002
1.224596e+003,1.192861e-002
1.226525e+003,1.180969e-002
1.228453e+003,1.188689e-002
1.230382e+003,1.195038e-002
1.232311e+003,1.215657e-002
1.234239e+003,1.235346e-002
1.236167e+003,1.258662e-002
1.238096e+003,1.277440e-002
1.240025e+003,1.299590e-002
1.241953e+003,1.308843e-002
1.243882e+003,1.320728e-002
1.245810e+003,1.315865e-002
1.247739e+003,1.312212e-002
1.249667e+003,1.316993e-002
1.251595e+003,1.368717e-002
1.253524e+003,1.450971e-002
1.255453e+003,1.451662e-002
1.257381e+003,1.272606e-002
1.259310e+003,1.055544e-002
1.261238e+003,8.839829e-003
1.263167e+003,7.704429e-003
1.265095e+003,6.836424e-003
1.267023e+003,6.271485e-003
1.268952e+003,5.829431e-003
1.270880e+003,5.619967e-003
1.272809e+003,5.469767e-003
1.274738e+003,5.478362e-003
1.276666e+003,5.463244e-003
1.278594e+003,5.602842e-003
1.280523e+003,5.676439e-003
1.282451e+003,5.850008e-003
1.284380e+003,6.011399e-003
1.286308e+003,6.308617e-003
1.288237e+003,6.659426e-003
1.290166e+003,7.263636e-003
1.292094e+003,7.971622e-003
1.294022e+003,8.738372e-003
1.295951e+003,9.028062e-003
1.297879e+003,9.057347e-003
1.299808e+003,9.199433e-003
1.301736e+003,1.029918e-002
1.303665e+003,1.158329e-002
1.305594e+003,1.087345e-002
1.307522e+003,8.394741e-003
1.309450e+003,6.857304e-003
1.311379e+003,6.258300e-003
1.313307e+003,6.195039e-003
1.315236e+003,6.225098e-003
1.317164e+003,6.492540e-003
1.319093e+003,6.764298e-003
1.321021e+003,7.302027e-003
1.322950e+003,7.913467e-003
1.324878e+003,8.872718e-003
1.326807e+003,9.526920e-003
1.328735e+003,1.001242e-002
1.330664e+003,9.786705e-003
1.332592e+003,9.233292e-003
1.334521e+003,8.623360e-003
1.336449e+003,8.534515e-003
1.338378e+003,8.589016e-003
1.340306e+003,9.143269e-003
1.342235e+003,9.547802e-003
1.344163e+003,1.038400e-002
1.346092e+003,1.140836e-002
1.348021e+003,1.308749e-002
1.349949e+003,1.518587e-002
1.351877e+003,1.852068e-002
1.353806e+003,2.331206e-002
1.355734e+003,3.025870e-002
1.357663e+003,3.530272e-002
1.359591e+003,3.569275e-002
1.361520e+003,3.159439e-002
1.363448e+003,2.823291e-002
1.365377e+003,2.800151e-002
1.367305e+003,3.328032e-002
1.369234e+003,4.818508e-002
1.371162e+003,7.605816e-002
1.373091e+003,1.161116e-001
1.375019e+003,1.504640e-001
1.376948e+003,1.325424e-001
1.378876e+003,8.923166e-002
1.380805e+003,5.420335e-002
1.382733e+003,3.251950e-002
1.384662e+003,2.022486e-002
1.386590e+003,1.356795e-002
1.388519e+003,1.017679e-002
1.390447e+003,8.583838e-003
1.392376e+003,7.942455e-003
1.394304e+003,7.307850e-003
1.396233e+003,7.207323e-003
1.398161e+003,6.953184e-003
1.400090e+003,6.937740e-003
1.402018e+003,6.778868e-003
1.403947e+003,6.877536e-003
1.405875e+003,6.914146e-003
1.407804e+003,7.035088e-003
1.409732e+003,7.103847e-003
1.411661e+003,7.376321e-003
1.413589e+003,7.515844e-003
1.415518e+003,7.750863e-003
1.417446e+003,8.001570e-003
1.419375e+003,8.624054e-003
1.421303e+003,9.066636e-003
1.423232e+003,9.657852e-003
1.425160e+003,1.068491e-002
1.427089e+003,1.182136e-002
1.429017e+003,1.412599e-002
1.430946e+003,1.916097e-002
1.432874e+003,2.640680e-002
1.434803e+003,3.234717e-002
1.436731e+003,3.328425e-002
1.438660e+003,3.258157e-002
1.440588e+003,3.506272e-002
1.442517e+003,4.144195e-002
1.444445e+003,5.209935e-002
1.446374e+003,6.545456e-002
1.448302e+003,8.039404e-002
1.450231e+003,8.735402e-002
1.452159e+003,8.936854e-002
1.454088e+003,8.926874e-002
1.456016e+003,8.935899e-002
1.457945e+003,8.625357e-002
1.459873e+003,8.334502e-002
1.461802e+003,7.891370e-002
1.463730e+003,7.184470e-002
1.465659e+003,5.745540e-002
1.467587e+003,4.566839e-002
1.469516e+003,3.598149e-002
1.471444e+003,2.770785e-002
1.473373e+003,1.819276e-002
1.475301e+003,1.392331e-002
1.477230e+003,1.074684e-002
1.479158e+003,8.938268e-003
1.481087e+003,7.466614e-003
1.483015e+003,6.393529e-003
1.484944e+003,5.588884e-003
1.486872e+003,5.091935e-003
1.488801e+003,4.723480e-003
1.490729e+003,4.423436e-003
1.492658e+003,3.981860e-003
1.494586e+003,3.795639e-003
1.496515e+003,3.677493e-003
1.498443e+003,3.624836e-003
1.500372e+003,3.351882e-003
1.502300e+003,3.144290e-003
1.504229e+003,2.964593e-003
1.506157e+003,3.244147e-003
1.508086e+003,3.580946e-003
1.510014e+003,3.284516e-003
1.511943e+003,3.079781e-003
1.513871e+003,3.003798e-003
1.515800e+003,2.966296e-003
1.517728e+003,2.962627e-003
1.519657e+003,2.863815e-003
1.521585e+003,2.985893e-003
1.523514e+003,2.949208e-003
1.525442e+003,2.974555e-003
1.527371e+003,2.984369e-003
1.529299e+003,2.817374e-003
1.531228e+003,2.721526e-003
1.533156e+003,2.885960e-003
1.535085e+003,2.874723e-003
1.537013e+003,2.724605e-003
1.538942e+003,2.722109e-003
1.540870e+003,3.231267e-003
1.542799e+003,3.260870e-003
1.544727e+003,3.112240e-003
1.546656e+003,2.910011e-003
1.548584e+003,2.822818e-003
1.550513e+003,2.855089e-003
1.552441e+003,2.805782e-003
1.554370e+003,2.727088e-003
1.556298e+003,2.663611e-003
1.558227e+003,2.835669e-003
1.560155e+003,3.028572e-003
1.562084e+003,2.713554e-003
1.564012e+003,2.565525e-003
1.565941e+003,2.497042e-003
1.567869e+003,2.501100e-003
1.569798e+003,2.628386e-003
1.571726e+003,2.504405e-003
1.573655e+003,2.351345e-003
1.575583e+003,2.410557e-003
1.577512e+003,2.567228e-003
1.579440e+003,2.477519e-003
1.581369e+003,2.405766e-003
1.583297e+003,2.412571e-003
1.585226e+003,2.418218e-003
1.587154e+003,2.403580e-003
1.589083e+003,2.423672e-003
1.591011e+003,2.475480e-003
1.592940e+003,2.496224e-003
1.594868e+003,2.559923e-003
1.596797e+003,2.622053e-003
1.598725e+003,2.639733e-003
1.600654e+003,2.665311e-003
1.602582e+003,2.724690e-003
1.604511e+003,2.760908e-003
1.606439e+003,2.766127e-003
1.608368e+003,2.898481e-003
1.610296e+003,3.017191e-003
1.612225e+003,2.974741e-003
1.614153e+003,2.950696e-003
1.616082e+003,3.148887e-003
1.618010e+003,3.359379e-003
1.619939e+003,3.303556e-003
1.621867e+003,3.346160e-003
1.623796e+003,3.551548e-003
1.625724e+003,3.628137e-003
1.627653e+003,3.791515e-003
1.629581e+003,3.882634e-003
1.631510e+003,3.849063e-003
1.633438e+003,3.895758e-003
1.635367e+003,4.254507e-003
1.637295e+003,4.447199e-003
1.639224e+003,4.330475e-003
1.641152e+003,4.263433e-003
1.643081e+003,4.231520e-003
1.645009e+003,4.381588e-003
1.646938e+003,4.823809e-003
1.648866e+003,4.653687e-003
1.650795e+003,4.377263e-003
1.652723e+003,4.566133e-003
1.654652e+003,4.833864e-003
1.656580e+003,4.544247e-003
1.658509e+003,4.288191e-003
1.660437e+003,4.220514e-003
1.662366e+003,4.336903e-003
1.664294e+003,4.211247e-003
1.666223e+003,3.994484e-003
1.668151e+003,3.981376e-003
1.670080e+003,4.060812e-003
1.672008e+003,3.896184e-003
1.673937e+003,3.738273e-003
1.675865e+003,3.726076e-003
1.677794e+003,3.573831e-003
1.679722e+003,3.465636e-003
1.681651e+003,3.411457e-003
1.683579e+003,3.687952e-003
1.685508e+003,3.529528e-003
1.687436e+003,3.199862e-003
1.689365e+003,3.037428e-003
1.691293e+003,2.910681e-003
1.693222e+003,2.792804e-003
1.695150e+003,2.887964e-003
1.697079e+003,2.923718e-003
1.699007e+003,2.964364e-003
1.700936e+003,2.965840e-003
1.702864e+003,2.523923e-003
1.704793e+003,2.424251e-003
1.706721e+003,2.438137e-003
1.708650e+003,2.246629e-003
1.710578e+003,2.130371e-003
1.712507e+003,2.063518e-003
1.714435e+003,2.102558e-003
1.716364e+003,2.191912e-003
1.718292e+003,2.273677e-003
1.720221e+003,2.076909e-003
1.722149e+003,1.964917e-003
1.724078e+003,1.880651e-003
1.726006e+003,1.830285e-003
1.727935e+003,1.829812e-003
1.729863e+003,1.911059e-003
1.731792e+003,1.910646e-003
1.733720e+003,2.175217e-003
1.735649e+003,2.098264e-003
1.737577e+003,1.924178e-003
1.739506e+003,2.063032e-003
1.741434e+003,2.097728e-003
1.743363e+003,1.999374e-003
1.745291e+003,1.992380e-003
1.747220e+003,2.024464e-003
1.749148e+003,2.047712e-003
1.751077e+003,1.928953e-003
1.753005e+003,1.728708e-003
1.754934e+003,1.583336e-003
1.756862e+003,1.470760e-003
1.758791e+003,1.262201e-003
1.760719e+003,1.130067e-003
1.762648e+003,1.074143e-003
1.764576e+003,9.668171e-004
1.766505e+003,8.771457e-004
1.768433e+003,8.603837e-004
1.770362e+003,8.582491e-004
1.772290e+003,1.013687e-003
1.774219e+003,8.810945e-004
1.776147e+003,7.789563e-004
1.778076e+003,7.459186e-004
1.780004e+003,8.357503e-004
1.781933e+003,8.878596e-004
1.783861e+003,8.490719e-004
1.785790e+003,7.865056e-004
1.787718e+003,6.981902e-004
1.789646e+003,6.839521e-004
1.791575e+003,8.839890e-004
1.793504e+003,9.111576e-004
1.795432e+003,6.890446e-004
1.797361e+003,4.845671e-004
1.799289e+003,4.757568e-004
1.801218e+003,5.529784e-004
1.803146e+003,5.027466e-004
1.805074e+003,3.211945e-004
1.807003e+003,2.302602e-004
1.808932e+003,2.319477e-004
1.810860e+003,2.491921e-004
1.812789e+003,2.471358e-005
1.814717e+003,-2.871156e-004
1.816646e+003,-3.302284e-004
1.818574e+003,4.605949e-005
1.820502e+003,2.549328e-004
1.822431e+003,3.428236e-004
1.824360e+003,4.321001e-004
1.826288e+003,4.706867e-004
1.828217e+003,4.159026e-004
1.830145e+003,4.923828e-004
1.832073e+003,3.229640e-004
1.834002e+003,1.810081e-004
1.835931e+003,2.802350e-004
1.837859e+003,3.333762e-004
1.839788e+003,1.965389e-004
1.841716e+003,1.795217e-004
1.843645e+003,1.528598e-004
1.845573e+003,1.693070e-004
1.847501e+003,1.043156e-004
1.849430e+003,8.863583e-005
1.851359e+003,8.491427e-005
1.853287e+003,6.213412e-005
1.855216e+003,-4.882738e-005
1.857144e+003,-5.016103e-005
1.859073e+003,-1.086332e-004
1.861001e+003,-1.111999e-005
1.862929e+003,-7.425994e-005
1.864858e+003,-2.142414e-005
1.866787e+003,8.200109e-005
1.868715e+003,2.933368e-004
1.870644e+003,5.329773e-005
1.872572e+003,-2.011955e-004
1.874500e+003,-2.265424e-004
1.876429e+003,-3.020987e-004
1.878357e+003,-3.789179e-004
1.880286e+003,-2.514124e-004
1.882215e+003,-2.719536e-004
1.884143e+003,-1.804642e-004
1.886072e+003,-1.408234e-004
1.888000e+003,-9.009987e-005
1.889928e+003,-1.341142e-004
1.891857e+003,-1.741871e-004
1.893785e+003,-3.803410e-004
1.895714e+003,-4.030354e-004
1.897643e+003,-4.224442e-004
1.899571e+003,-2.722032e-004
1.901500e+003,-2.636053e-004
1.903428e+003,-2.550073e-004
1.905356e+003,-2.464242e-004
1.907285e+003,-2.378374e-004
1.909213e+003,-2.292544e-004
1.911142e+003,-2.206750e-004
1.913071e+003,-2.121031e-004
1.914999e+003,-2.035312e-004
1.916927e+003,-1.949556e-004
1.918856e+003,-1.863874e-004
1.920784e+003,-1.778267e-004
1.922713e+003,-1.692660e-004
1.924641e+003,-1.607090e-004
1.926570e+003,-1.521558e-004
1.928499e+003,-1.436062e-004
1.930427e+003,-1.350567e-004
1.932355e+003,-1.265146e-004
1.934284e+003,-1.179725e-004
1.936212e+003,-1.094341e-004
1.938141e+003,-1.008958e-004
1.940070e+003,-9.236485e-005
1.941998e+003,-8.383766e-005
1.943927e+003,-7.531047e-005
1.945855e+003,-6.678700e-005
1.947783e+003,-5.827099e-005
1.949712e+003,-4.975125e-005
1.951640e+003,-4.123896e-005
1.953569e+003,-3.273413e-005
1.955498e+003,-2.422556e-005
1.957426e+003,-1.572073e-005
1.959354e+003,-7.219613e-006
1.961283e+003,1.274049e-006
1.963211e+003,9.771436e-006
1.965140e+003,1.826137e-005
1.967068e+003,2.674758e-005
1.968997e+003,3.523007e-005
1.970926e+003,4.371256e-005
1.972854e+003,5.219132e-005
1.974782e+003,6.066263e-005
1.976711e+003,6.913766e-005
1.978639e+003,7.760525e-005
1.980568e+003,8.607283e-005
1.982496e+003,9.453297e-005
1.984425e+003,1.029968e-004
1.986354e+003,1.114495e-004
1.988282e+003,1.198985e-004
1.990210e+003,1.283512e-004
1.992139e+003,1.368001e-004
1.994067e+003,1.452416e-004
1.995996e+003,1.536794e-004
1.997924e+003,1.621172e-004
1.999853e+003,1.705512e-004
2.001781e+003,1.789816e-004
2.003710e+003,1.874082e-004
2.005638e+003,1.958311e-004
2.007567e+003,2.042539e-004
2.009495e+003,2.126731e-004
2.011424e+003,2.210885e-004
2.013352e+003,2.294965e-004
2.015281e+003,2.379045e-004
2.017209e+003,2.463125e-004
2.019138e+003,2.547130e-004
2.021066e+003,2.631098e-004
2.022995e+003,2.715029e-004
2.024923e+003,2.798997e-004
2.026852e+003,2.882853e-004
2.028781e+003,2.966747e-004
2.030709e+003,3.050566e-004
2.032637e+003,3.134385e-004
2.034566e+003,3.218092e-004
2.036494e+003,3.301874e-004
2.038423e+003,3.385581e-004
2.040351e+003,3.469214e-004
2.042280e+003,3.552884e-004
2.044208e+003,3.636517e-004
2.046137e+003,3.720075e-004
2.048065e+003,3.803596e-004
2.049994e+003,3.887080e-004
2.051922e+003,3.970563e-004
2.053851e+003,4.054084e-004
2.055779e+003,4.137456e-004
2.057708e+003,4.220903e-004
2.059636e+003,4.304238e-004
2.061565e+003,4.387572e-004
2.063493e+003,4.470795e-004
2.065422e+003,4.554093e-004
2.067350e+003,4.637279e-004
2.069279e+003,4.720539e-004
2.071207e+003,4.803687e-004
2.073136e+003,4.886799e-004
2.075064e+003,4.969873e-004
2.076993e+003,5.052947e-004
2.078921e+003,5.136020e-004
2.080850e+003,5.218983e-004
2.082778e+003,5.301982e-004
2.084707e+003,5.384944e-004
2.086635e+003,5.467869e-004
2.088564e+003,5.550720e-004
2.090492e+003,5.633533e-004
2.092421e+003,5.716383e-004
2.094349e+003,5.799122e-004
2.096278e+003,5.881861e-004
2.098206e+003,5.964674e-004
2.100135e+003,6.047338e-004
2.102063e+003,6.130002e-004
2.103992e+003,6.212629e-004
2.105920e+003,6.295219e-004
2.107849e+003,6.377771e-004
2.109777e+003,6.460249e-004
2.111706e+003,6.542765e-004
2.113634e+003,6.625280e-004
2.115563e+003,6.707683e-004
2.117491e+003,6.790087e-004
2.119420e+003,6.872490e-004
2.121348e+003,6.954782e-004
2.123277e+003,7.037073e-004
2.125205e+003,7.119402e-004
2.127134e+003,7.201619e-004
2.129062e+003,7.283874e-004
2.130991e+003,7.366054e-004
2.132919e+003,7.448196e-004
2.134848e+003,7.530302e-004
2.136776e+003,7.612370e-004
2.138705e+003,7.694401e-004
2.140633e+003,7.776469e-004
2.142562e+003,7.858463e-004
2.144490e+003,7.940382e-004
2.146419e+003,8.022375e-004
2.148347e+003,8.104257e-004
2.150276e+003,8.186102e-004
2.152204e+003,8.267947e-004
2.154133e+003,8.349717e-004
2.156061e+003,8.431524e-004
2.157990e+003,8.513257e-004
2.159918e+003,8.594953e-004
2.161847e+003,8.676611e-004
2.163775e+003,8.758269e-004
2.165704e+003,8.839890e-004
2.167632e+003,8.921437e-004
2.169561e+003,9.002946e-004
2.171489e+003,9.084493e-004
2.173418e+003,9.166040e-004
2.175346e+003,9.247474e-004
2.177275e+003,9.328872e-004
2.179203e+003,9.410270e-004
2.181132e+003,9.491630e-004
2.183060e+003,9.572953e-004
2.184989e+003,9.654202e-004
2.186917e+003,9.735525e-004
2.188846e+003,9.816773e-004
2.190774e+003,9.897910e-004
2.192703e+003,9.979121e-004
2.194631e+003,1.006026e-003
2.196560e+003,1.014132e-003
2.198488e+003,1.022238e-003
2.200417e+003,1.030348e-003
2.202345e+003,1.038447e-003
2.204274e+003,1.046546e-003
2.206202e+003,1.054641e-003
2.208131e+003,1.062736e-003
2.210059e+003,1.070816e-003
2.211988e+003,1.078904e-003
2.213916e+003,1.086984e-003
2.215845e+003,1.095060e-003
2.217773e+003,1.103137e-003
2.219702e+003,1.111217e-003
2.221630e+003,1.119282e-003
2.223559e+003,1.127347e-003
2.225487e+003,1.135409e-003
2.227416e+003,1.143470e-003
2.229344e+003,1.151528e-003
2.231273e+003,1.159582e-003
2.233201e+003,1.167636e-003
2.235130e+003,1.175676e-003
2.237058e+003,1.183722e-003
2.238987e+003,1.191758e-003
2.240915e+003,1.199797e-003
2.242844e+003,1.207829e-003
2.244772e+003,1.215864e-003
2.246701e+003,1.223896e-003
2.248629e+003,1.231920e-003
2.250558e+003,1.239941e-003
2.252486e+003,1.247957e-003
2.254415e+003,1.255974e-003
2.256343e+003,1.263984e-003
2.258272e+003,1.271989e-003
2.260200e+003,1.279995e-003
2.262129e+003,1.288004e-003
2.264057e+003,1.296002e-003
2.265986e+003,1.303997e-003
2.267914e+003,1.311995e-003
2.269843e+003,1.319978e-003
2.271771e+003,1.327965e-003
2.273700e+003,1.335945e-003
2.275628e+003,1.343939e-003
2.277557e+003,1.351912e-003
2.279485e+003,1.359884e-003
2.281414e+003,1.367856e-003
2.283342e+003,1.375820e-003
2.285271e+003,1.383785e-003
2.287199e+003,1.391742e-003
2.289128e+003,1.399707e-003
2.291056e+003,1.407664e-003
2.292985e+003,1.415610e-003
2.294913e+003,1.423564e-003
2.296842e+003,1.431510e-003
2.298770e+003,1.439448e-003
2.300699e+003,1.447387e-003
2.302627e+003,1.455333e-003
2.304556e+003,1.463261e-003
2.306484e+003,1.471192e-003
2.308413e+003,1.479115e-003
2.310341e+003,1.487039e-003
2.312270e+003,1.494959e-003
2.314198e+003,1.502875e-003
2.316127e+003,1.510788e-003
2.318055e+003,1.518700e-003
2.319984e+003,1.526609e-003
2.321912e+003,1.534514e-003
2.323841e+003,1.542415e-003
2.325769e+003,1.550309e-003
2.327698e+003,1.558207e-003
2.329626e+003,1.566101e-003
2.331555e+003,1.573984e-003
2.333483e+003,1.581874e-003
2.335412e+003,1.589756e-003
2.337340e+003,1.597635e-003
2.339269e+003,1.605507e-003
2.341197e+003,1.613382e-003
2.343126e+003,1.621250e-003
2.345054e+003,1.629114e-003
2.346983e+003,1.636982e-003
2.348911e+003,1.644846e-003
2.350840e+003,1.652703e-003
2.352768e+003,1.660548e-003
2.354697e+003,1.668401e-003
2.356625e+003,1.676250e-003
2.358554e+003,1.684092e-003
2.360482e+003,1.691930e-003
2.362411e+003,1.699772e-003
2.364339e+003,1.707613e-003
2.366268e+003,1.715440e-003
2.368196e+003,1.723267e-003
2.370125e+003,1.731094e-003
2.372053e+003,1.738917e-003
2.373982e+003,1.746733e-003
2.375910e+003,1.754548e-003
2.377839e+003,1.762364e-003
2.379767e+003,1.770172e-003
2.381696e+003,1.777977e-003
2.383624e+003,1.785781e-003
2.385553e+003,1.793582e-003
2.387481e+003,1.801375e-003
2.389410e+003,1.809172e-003
2.391338e+003,1.816966e-003
2.393267e+003,1.824751e-003
2.395195e+003,1.832530e-003
2.397124e+003,1.840316e-003
2.399052e+003,1.848090e-003
2.400981e+003,1.862820e-003
2.402909e+003,1.908790e-003
2.404838e+003,1.934376e-003
2.406766e+003,1.999412e-003
2.408695e+003,2.195787e-003
2.410623e+003,2.217915e-003
2.412552e+003,2.212223e-003
2.414480e+003,2.174389e-003
2.416409e+003,2.237190e-003
2.418337e+003,2.280690e-003
2.420266e+003,2.390921e-003
2.422194e+003,2.585802e-003
2.424123e+003,2.702251e-003
2.426051e+003,2.564941e-003
2.427979e+003,2.565730e-003
2.429908e+003,2.645452e-003
2.431837e+003,2.676956e-003
2.433765e+003,2.635159e-003
2.435694e+003,2.624843e-003
2.437622e+003,2.473488e-003
2.439551e+003,2.395160e-003
2.441479e+003,2.386723e-003
2.443407e+003,2.573006e-003
2.445336e+003,2.726369e-003
2.447265e+003,2.673149e-003
2.449193e+003,2.578359e-003
2.451122e+003,2.751142e-003
2.453050e+003,2.898015e-003
2.454979e+003,2.974667e-003
2.456907e+003,2.844676e-003
2.458836e+003,2.632737e-003
2.460764e+003,2.463520e-003
2.462693e+003,2.448093e-003
2.464621e+003,2.403762e-003
2.466550e+003,2.302516e-003
2.468478e+003,2.213303e-003
2.470406e+003,2.358593e-003
2.472335e+003,2.445593e-003
2.474264e+003,2.421394e-003
2.476192e+003,2.373457e-003
2.478121e+003,2.450295e-003
2.480049e+003,2.520047e-003
2.481978e+003,2.450515e-003
2.483906e+003,2.377711e-003
2.485835e+003,2.644442e-003
2.487763e+003,2.867442e-003
2.489692e+003,2.799980e-003
2.491620e+003,2.655599e-003
2.493549e+003,2.545379e-003
2.495477e+003,2.598591e-003
2.497406e+003,2.822202e-003
2.499334e+003,2.796225e-003
2.501263e+003,2.717033e-003
2.503191e+003,2.719209e-003
2.505120e+003,2.732556e-003
2.507048e+003,2.725381e-003
2.508977e+003,2.782527e-003
2.510905e+003,2.904523e-003
2.512833e+003,3.022105e-003
2.514762e+003,2.979185e-003
2.516691e+003,2.940807e-003
2.518619e+003,2.996404e-003
2.520548e+003,3.100619e-003
2.522476e+003,3.088377e-003
2.524405e+003,3.084231e-003
2.526333e+003,3.178354e-003
2.528261e+003,3.351294e-003
2.530190e+003,3.581319e-003
2.532119e+003,3.734563e-003
2.534047e+003,3.762845e-003
2.535976e+003,3.848895e-003
2.537904e+003,3.875460e-003
2.539833e+003,3.984481e-003
2.541761e+003,3.964905e-003
2.543689e+003,3.980588e-003
2.545618e+003,4.153356e-003
2.547547e+003,4.357431e-003
2.549475e+003,4.484896e-003
2.551404e+003,4.658569e-003
2.553332e+003,4.711308e-003
2.555260e+003,4.793674e-003
2.557189e+003,4.841443e-003
2.559117e+003,4.940335e-003
2.561046e+003,4.992176e-003
2.562975e+003,5.103212e-003
2.564903e+003,5.205356e-003
2.566832e+003,5.264249e-003
2.568760e+003,5.459037e-003
2.570688e+003,5.773790e-003
2.572617e+003,5.943540e-003
2.574546e+003,6.140884e-003
2.576474e+003,6.401069e-003
2.578403e+003,6.731272e-003
2.580331e+003,6.912824e-003
2.582260e+003,7.111497e-003
2.584188e+003,7.043738e-003
2.586116e+003,6.737161e-003
2.588045e+003,6.377611e-003
2.589974e+003,6.157141e-003
2.591902e+003,6.006014e-003
2.593831e+003,5.947892e-003
2.595759e+003,5.940862e-003
2.597688e+003,6.087244e-003
2.599616e+003,6.225560e-003
2.601544e+003,6.288495e-003
2.603473e+003,6.428789e-003
2.605402e+003,6.647285e-003
2.607330e+003,6.990660e-003
2.609259e+003,7.348124e-003
2.611187e+003,7.500298e-003
2.613115e+003,7.587224e-003
2.615044e+003,7.597480e-003
2.616972e+003,7.685855e-003
2.618901e+003,7.806826e-003
2.620830e+003,7.851981e-003
2.622758e+003,7.745881e-003
2.624687e+003,7.735357e-003
2.626615e+003,7.843349e-003
2.628543e+003,7.897742e-003
2.630472e+003,7.943805e-003
2.632400e+003,7.900283e-003
2.634329e+003,7.819455e-003
2.636258e+003,7.899024e-003
2.638186e+003,8.111969e-003
2.640115e+003,8.331217e-003
2.642043e+003,8.448947e-003
2.643971e+003,8.593384e-003
2.645900e+003,8.751743e-003
2.647828e+003,8.898005e-003
2.649757e+003,9.040248e-003
2.651686e+003,9.172373e-003
2.653614e+003,9.335782e-003
2.655542e+003,9.423003e-003
2.657471e+003,9.462953e-003
2.659399e+003,9.456728e-003
2.661328e+003,9.309962e-003
2.663256e+003,9.064436e-003
2.665185e+003,8.803409e-003
2.667114e+003,8.637853e-003
2.669042e+003,8.583661e-003
2.670970e+003,8.633379e-003
2.672899e+003,8.708980e-003
2.674827e+003,8.776955e-003
2.676756e+003,8.816570e-003
2.678685e+003,8.892160e-003
2.680613e+003,8.853391e-003
2.682542e+003,8.732170e-003
2.684470e+003,8.735918e-003
2.686398e+003,8.873660e-003
2.688327e+003,8.923333e-003
2.690255e+003,8.917097e-003
2.692184e+003,8.878563e-003
2.694113e+003,8.900244e-003
2.696041e+003,9.022441e-003
2.697969e+003,9.152781e-003
2.699898e+003,9.303760e-003
2.701826e+003,9.547170e-003
2.703755e+003,9.766724e-003
2.705683e+003,9.980202e-003
2.707612e+003,1.025617e-002
2.709541e+003,1.066124e-002
2.711469e+003,1.108333e-002
2.713397e+003,1.160318e-002
2.715326e+003,1.225828e-002
2.717254e+003,1.306024e-002
2.719183e+003,1.385787e-002
2.721111e+003,1.438154e-002
2.723040e+003,1.433083e-002
2.724969e+003,1.383462e-002
2.726897e+003,1.318533e-002
2.728825e+003,1.255922e-002
2.730754e+003,1.210384e-002
2.732682e+003,1.178786e-002
2.734611e+003,1.149464e-002
2.736539e+003,1.123517e-002
2.738468e+003,1.091485e-002
2.740396e+003,1.061724e-002
2.742325e+003,1.039109e-002
2.744253e+003,1.020348e-002
2.746182e+003,1.015275e-002
2.748110e+003,1.019634e-002
2.750039e+003,1.018911e-002
2.751967e+003,1.023228e-002
2.753896e+003,1.032827e-002
2.755824e+003,1.047922e-002
2.757753e+003,1.068198e-002
2.759681e+003,1.086391e-002
2.761610e+003,1.107726e-002
2.763538e+003,1.135056e-002
2.765467e+003,1.156516e-002
2.767395e+003,1.176487e-002
2.769324e+003,1.190672e-002
2.771252e+003,1.208197e-002
2.773181e+003,1.242042e-002
2.775109e+003,1.285477e-002
2.777038e+003,1.320118e-002
2.778966e+003,1.362576e-002
2.780895e+003,1.422869e-002
2.782823e+003,1.483524e-002
2.784752e+003,1.551915e-002
2.786680e+003,1.634993e-002
2.788609e+003,1.722143e-002
2.790537e+003,1.812928e-002
2.792466e+003,1.899384e-002
2.794394e+003,1.962459e-002
2.796323e+003,2.010615e-002
2.798251e+003,2.074572e-002
2.800180e+003,2.165944e-002
2.802108e+003,2.291819e-002
2.804037e+003,2.442124e-002
2.805965e+003,2.598035e-002
2.807894e+003,2.741677e-002
2.809822e+003,2.872618e-002
2.811751e+003,3.000007e-002
2.813679e+003,3.138576e-002
2.815608e+003,3.299730e-002
2.817536e+003,3.504335e-002
2.819465e+003,3.767558e-002
2.821393e+003,4.092347e-002
2.823322e+003,4.505639e-002
2.825250e+003,5.068100e-002
2.827179e+003,5.868020e-002
2.829107e+003,7.051001e-002
2.831036e+003,8.794931e-002
2.832964e+003,1.111953e-001
2.834893e+003,1.354789e-001
2.836821e+003,1.515833e-001
2.838750e+003,1.529509e-001
2.840678e+003,1.402809e-001
2.842607e+003,1.199659e-001
2.844535e+003,9.925310e-002
2.846464e+003,8.249231e-002
2.848392e+003,7.075869e-002
2.850321e+003,6.360701e-002
2.852249e+003,6.032281e-002
2.854178e+003,6.062734e-002
2.856106e+003,6.514710e-002
2.858035e+003,7.532763e-002
2.859963e+003,9.297097e-002
2.861892e+003,1.173857e-001
2.863820e+003,1.408947e-001
2.865749e+003,1.524395e-001
2.867677e+003,1.505714e-001
2.869606e+003,1.433488e-001
2.871534e+003,1.376084e-001
2.873463e+003,1.361999e-001
2.875391e+003,1.386848e-001
2.877320e+003,1.407091e-001
2.879248e+003,1.388947e-001
2.881177e+003,1.346379e-001
2.883105e+003,1.305357e-001
2.885034e+003,1.275877e-001
2.886962e+003,1.257271e-001
2.888891e+003,1.249974e-001
2.890819e+003,1.260683e-001
2.892748e+003,1.299147e-001
2.894676e+003,1.372468e-001
2.896605e+003,1.482626e-001
2.898533e+003,1.622632e-001
2.900462e+003,1.781634e-001
2.902390e+003,1.950416e-001
2.904319e+003,2.113438e-001
2.906247e+003,2.253092e-001
2.908176e+003,2.376966e-001
2.910104e+003,2.528556e-001
2.912033e+003,2.754442e-001
2.913961e+003,3.029834e-001
2.915890e+003,3.223737e-001
2.917818e+003,3.207554e-001
2.919747e+003,3.010591e-001
2.921675e+003,2.760978e-001
2.923604e+003,2.526492e-001
2.925532e+003,2.291459e-001
2.927461e+003,2.029213e-001
2.929389e+003,1.752270e-001
2.931318e+003,1.500038e-001
2.933246e+003,1.303147e-001
2.935175e+003,1.176470e-001
2.937103e+003,1.128889e-001
2.939032e+003,1.170304e-001
2.940960e+003,1.321734e-001
2.942889e+003,1.596217e-001
2.944817e+003,1.966971e-001
2.946746e+003,2.340872e-001
2.948674e+003,2.567548e-001
2.950603e+003,2.535509e-001
2.952531e+003,2.303140e-001
2.954460e+003,2.055830e-001
2.956388e+003,1.927301e-001
2.958317e+003,1.910736e-001
2.960245e+003,1.888311e-001
2.962174e+003,1.744384e-001
2.964102e+003,1.496216e-001
2.966031e+003,1.236207e-001
2.967959e+003,1.002447e-001
2.969888e+003,7.948124e-002
2.971816e+003,6.186767e-002
2.973745e+003,4.767714e-002
2.975673e+003,3.669650e-002
2.977602e+003,2.846953e-002
2.979530e+003,2.225250e-002
2.981459e+003,1.754442e-002
2.983387e+003,1.389579e-002
2.985316e+003,1.112723e-002
2.987244e+003,9.040449e-003
2.989173e+003,7.388543e-003
2.991101e+003,6.060332e-003
2.993030e+003,4.991207e-003
2.994958e+003,4.118692e-003
2.996887e+003,3.396150e-003
2.998815e+003,2.748698e-003
3.000744e+003,2.174102e-003
3.002672e+003,1.793582e-003
3.004601e+003,1.478538e-003
3.006529e+003,1.225289e-003
3.008458e+003,9.936728e-004
3.010386e+003,7.680282e-004
3.012315e+003,5.911589e-004
3.014243e+003,4.483946e-004
3.016172e+003,2.808087e-004
3.018100e+003,1.648627e-004
3.020029e+003,1.195706e-004
3.021957e+003,5.597994e-005
3.023886e+003,-6.490946e-005
3.025814e+003,-1.132526e-004
3.027743e+003,-1.650006e-004
3.029671e+003,-1.921616e-004
3.031600e+003,-1.623072e-004
3.033528e+003,-1.844876e-004
3.035457e+003,-2.574511e-004
3.037385e+003,-3.363639e-004
3.039314e+003,-3.656112e-004
3.041242e+003,-2.717413e-004
3.043171e+003,-1.503676e-004
3.045099e+003,-1.019947e-004
3.047028e+003,-8.928031e-005
3.048956e+003,1.489744e-005
3.050885e+003,1.728535e-005
3.052813e+003,3.356859e-005
3.054742e+003,1.124218e-004
3.056670e+003,1.750514e-004
3.058599e+003,1.541190e-004
3.060527e+003,1.420230e-004
3.062456e+003,1.486093e-004
3.064384e+003,2.618022e-004
3.066313e+003,3.165752e-004
3.068241e+003,2.282485e-004
3.070170e+003,1.973063e-004
3.072098e+003,2.218299e-004
3.074027e+003,2.299510e-004
3.075955e+003,2.766810e-004
3.077884e+003,3.218837e-004
3.079812e+003,3.060773e-004
3.081741e+003,2.736524e-004
3.083669e+003,3.020205e-004
3.085598e+003,3.936291e-004
3.087526e+003,4.232749e-004
3.089455e+003,4.257821e-004
3.091383e+003,4.604943e-004
3.093312e+003,5.140267e-004
3.095240e+003,6.467216e-004
3.097169e+003,6.317385e-004
3.099097e+003,5.313344e-004
3.101026e+003,6.015003e-004
3.102954e+003,7.067434e-004
3.104883e+003,8.646175e-004
3.106811e+003,9.457543e-004
3.108740e+003,8.481815e-004
3.110668e+003,7.771030e-004
3.112597e+003,8.241720e-004
3.114525e+003,9.253249e-004
3.116454e+003,9.717681e-004
3.118382e+003,9.800903e-004
3.120311e+003,9.980984e-004
3.122239e+003,1.069993e-003
3.124168e+003,1.205582e-003
3.126096e+003,1.299925e-003
3.128025e+003,1.343746e-003
3.129953e+003,1.409773e-003
3.131882e+003,1.449931e-003
3.133810e+003,1.557633e-003
3.135739e+003,1.657907e-003
3.137667e+003,1.683228e-003
3.139596e+003,1.732651e-003
3.141524e+003,1.802292e-003
3.143453e+003,1.797467e-003
3.145381e+003,1.797192e-003
3.147310e+003,1.916226e-003
3.149238e+003,2.023555e-003
3.151167e+003,1.918092e-003
3.153095e+003,1.846030e-003
3.155024e+003,1.822129e-003
3.156952e+003,1.766820e-003
3.158881e+003,1.742937e-003
3.160809e+003,1.782320e-003
3.162738e+003,1.760706e-003
3.164666e+003,1.826685e-003
3.166594e+003,1.995742e-003
3.168523e+003,2.024855e-003
3.170452e+003,1.933370e-003
3.172380e+003,1.937833e-003
3.174309e+003,2.095301e-003
3.176237e+003,2.195492e-003
3.178166e+003,2.244003e-003
3.180094e+003,2.265137e-003
3.182022e+003,2.309788e-003
3.183951e+003,2.400346e-003
3.185880e+003,2.462406e-003
3.187808e+003,2.515968e-003
3.189737e+003,2.531897e-003
3.191665e+003,2.562948e-003
3.193594e+003,2.640251e-003
3.195522e+003,2.732996e-003
3.197450e+003,2.825636e-003
3.199379e+003,2.787832e-003
3.201308e+003,2.704211e-003
3.203236e+003,2.694178e-003
3.205165e+003,2.692550e-003
3.207093e+003,2.620786e-003
3.209021e+003,2.581630e-003
3.210950e+003,2.579138e-003
3.212878e+003,2.519149e-003
3.214807e+003,2.517827e-003
3.216736e+003,2.474509e-003
3.218664e+003,2.355538e-003
3.220593e+003,2.315067e-003
3.222521e+003,2.302028e-003
3.224449e+003,2.227068e-003
3.226378e+003,2.208039e-003
3.228307e+003,2.213638e-003
3.230235e+003,2.173163e-003
3.232164e+003,2.082746e-003
3.234092e+003,2.120987e-003
3.236021e+003,2.090763e-003
3.237949e+003,2.054684e-003
3.239877e+003,2.050340e-003
3.241806e+003,2.053931e-003
3.243735e+003,2.035115e-003
3.245663e+003,2.127573e-003
3.247592e+003,2.241217e-003
3.249520e+003,2.303708e-003
3.251448e+003,2.280485e-003
3.253377e+003,2.278477e-003
3.255305e+003,2.228569e-003
3.257234e+003,2.182756e-003
3.259163e+003,2.273064e-003
3.261091e+003,2.378806e-003
3.263020e+003,2.481397e-003
3.264948e+003,2.483193e-003
3.266876e+003,2.429914e-003
3.268805e+003,2.543677e-003
3.270733e+003,2.711117e-003
3.272662e+003,2.787307e-003
3.274591e+003,2.693679e-003
3.276519e+003,2.712898e-003
3.278448e+003,2.749462e-003
3.280376e+003,2.810534e-003
3.282304e+003,2.946869e-003
3.284233e+003,2.894111e-003
3.286161e+003,2.862163e-003
3.288090e+003,2.927862e-003
3.290019e+003,2.925787e-003
3.291947e+003,2.974875e-003
3.293875e+003,2.994783e-003
3.295804e+003,2.920765e-003
3.297732e+003,2.965823e-003
3.299661e+003,3.046967e-003
3.301589e+003,3.066946e-003
3.303518e+003,3.044251e-003
3.305447e+003,2.868034e-003
3.307375e+003,2.795488e-003
3.309303e+003,2.859820e-003
3.311232e+003,2.788782e-003
3.313160e+003,2.814937e-003
3.315089e+003,2.880748e-003
3.317018e+003,2.880625e-003
3.318946e+003,2.921317e-003
3.320875e+003,2.828166e-003
3.322803e+003,2.795976e-003
3.324731e+003,2.899732e-003
3.326660e+003,3.011540e-003
3.328588e+003,3.046654e-003
3.330517e+003,3.043387e-003
3.332446e+003,2.995655e-003
3.334374e+003,2.941184e-003
3.336302e+003,2.979208e-003
3.338231e+003,3.056709e-003
3.340159e+003,3.077295e-003
3.342088e+003,3.054362e-003
3.344016e+003,3.058448e-003
3.345945e+003,3.023099e-003
3.347874e+003,3.001127e-003
3.349802e+003,3.038503e-003
3.351730e+003,2.991144e-003
3.353659e+003,2.955776e-003
3.355587e+003,2.985056e-003
3.357516e+003,2.957646e-003
3.359444e+003,2.855916e-003
3.361373e+003,2.939988e-003
3.363302e+003,3.009748e-003
3.365230e+003,2.949130e-003
3.367158e+003,2.884835e-003
3.369087e+003,2.847012e-003
3.371015e+003,2.760459e-003
3.372944e+003,2.703972e-003
3.374872e+003,2.696864e-003
3.376801e+003,2.652068e-003
3.378729e+003,2.640348e-003
3.380658e+003,2.717711e-003
3.382586e+003,2.594672e-003
3.384515e+003,2.567928e-003
3.386443e+003,2.560921e-003
3.388372e+003,2.473157e-003
3.390300e+003,2.463855e-003
3.392229e+003,2.631571e-003
3.394157e+003,2.729144e-003
3.396086e+003,2.648279e-003
3.398014e+003,2.522614e-003
3.399943e+003,2.440497e-003
3.401871e+003,2.372965e-003
3.403800e+003,2.381533e-003
3.405728e+003,2.399869e-003
3.407657e+003,2.425861e-003
3.409585e+003,2.473194e-003
3.411514e+003,2.511047e-003
3.413442e+003,2.465218e-003
3.415371e+003,2.442107e-003
3.417299e+003,2.337668e-003
3.419228e+003,2.308436e-003
3.421156e+003,2.273258e-003
3.423085e+003,2.229288e-003
3.425013e+003,2.256472e-003
3.426942e+003,2.206050e-003
3.428870e+003,2.169419e-003
3.430799e+003,2.263300e-003
3.432727e+003,2.197020e-003
3.434656e+003,2.115365e-003
3.436584e+003,2.009187e-003
3.438513e+003,1.901340e-003
3.440441e+003,1.944810e-003
3.442370e+003,2.009246e-003
3.444298e+003,1.947351e-003
3.446227e+003,1.926076e-003
3.448155e+003,1.979049e-003
3.450084e+003,1.873542e-003
3.452012e+003,1.804870e-003
3.453941e+003,1.767471e-003
3.455869e+003,1.780130e-003
3.457798e+003,1.841757e-003
3.459726e+003,1.790807e-003
3.461655e+003,1.809832e-003
3.463583e+003,1.810811e-003
3.465512e+003,1.721721e-003
3.467440e+003,1.619842e-003
3.469369e+003,1.571734e-003
3.471297e+003,1.511708e-003
3.473226e+003,1.525462e-003
3.475154e+003,1.674049e-003
3.477083e+003,1.707107e-003
3.479011e+003,1.520809e-003
3.480940e+003,1.452163e-003
3.482868e+003,1.587313e-003
3.484797e+003,1.508772e-003
3.486725e+003,1.382355e-003
3.488654e+003,1.321059e-003
3.490582e+003,1.155879e-003
3.492511e+003,1.046561e-003
3.494439e+003,1.083255e-003
3.496368e+003,1.129635e-003
3.498296e+003,1.103882e-003
3.500225e+003,1.042824e-003
3.502153e+003,1.129247e-003
3.504082e+003,1.272596e-003
3.506010e+003,1.213469e-003
3.507939e+003,1.136344e-003
3.509867e+003,1.152031e-003
3.511796e+003,1.107875e-003
3.513724e+003,1.070689e-003
3.515653e+003,1.012731e-003
3.517581e+003,9.958409e-004
3.519510e+003,9.908341e-004
3.521438e+003,9.108670e-004
3.523367e+003,9.179525e-004
3.525295e+003,9.345561e-004
3.527224e+003,1.009811e-003
3.529152e+003,9.642318e-004
3.531081e+003,8.115210e-004
3.533009e+003,7.868856e-004
3.534938e+003,8.118451e-004
3.536866e+003,8.503683e-004
3.538795e+003,7.058196e-004
3.540723e+003,5.565956e-004
3.542652e+003,4.242063e-004
3.544580e+003,4.625805e-004
3.546509e+003,6.728806e-004
3.548437e+003,5.749613e-004
3.550366e+003,3.803298e-004
3.552294e+003,4.836991e-004
3.554223e+003,4.926585e-004
3.556151e+003,2.483577e-004
3.558080e+003,1.525283e-004
3.560008e+003,3.567748e-004
3.561937e+003,2.892651e-004
3.563865e+003,-4.448742e-005
3.565794e+003,4.743785e-005
3.567722e+003,6.978661e-004
3.569651e+003,4.323870e-004
3.571579e+003,-1.183115e-004
3.573508e+003,-2.163388e-004
3.575436e+003,-1.178719e-004
3.577365e+003,-1.951791e-004
3.579293e+003,-2.346709e-004
3.581222e+003,-1.568049e-004
3.583150e+003,-2.491996e-004
3.585079e+003,-2.590232e-004
3.587007e+003,2.106689e-004
3.588936e+003,2.679229e-004
3.590864e+003,-9.762868e-005
3.592793e+003,-9.252504e-005
3.594721e+003,2.211034e-004
3.596650e+003,3.092363e-004
3.598578e+003,6.587058e-005
3.600507e+003,1.942366e-005
3.602435e+003,-3.978610e-006
3.604364e+003,-2.066083e-004
3.606292e+003,-1.249611e-004
3.608221e+003,1.423992e-004
3.610149e+003,-6.310642e-005
3.612078e+003,-1.868755e-004
3.614006e+003,5.482137e-005
3.615935e+003,5.315244e-005
3.617863e+003,9.265542e-005
3.619792e+003,5.159602e-004
3.621720e+003,4.289672e-004
3.623649e+003,1.648068e-005
3.625577e+003,-2.930984e-004
3.627506e+003,6.937236e-005
3.629434e+003,9.849444e-004
3.631363e+003,5.217493e-004
3.633291e+003,3.457442e-004
3.635220e+003,1.175478e-004
3.637148e+003,2.520531e-005
3.639077e+003,2.111495e-005
3.641005e+003,-5.543232e-005
3.642934e+003,-6.817281e-006
3.644862e+003,-2.718419e-004
3.646791e+003,-3.490299e-004
3.648719e+003,8.088425e-004
3.650648e+003,1.146838e-003
3.652576e+003,3.671050e-004
3.654505e+003,8.740276e-005
3.656433e+003,5.237758e-004
3.658362e+003,3.530905e-004
3.660290e+003,-7.212162e-006
3.662219e+003,-1.151785e-004
3.664147e+003,-1.410097e-004
3.666076e+003,-2.546012e-004
3.668004e+003,-8.841604e-005
3.669933e+003,9.176955e-004
3.671861e+003,7.238537e-004
3.673790e+003,3.371015e-004
3.675718e+003,1.284666e-003
3.677647e+003,9.712502e-004
3.679575e+003,8.180067e-004
3.681504e+003,5.556643e-004
3.683432e+003,2.698451e-004
3.685361e+003,1.105890e-004
3.687289e+003,2.867430e-004
3.689218e+003,1.082413e-003
3.691146e+003,1.477696e-003
3.693075e+003,1.155615e-003
3.695003e+003,8.961111e-004
3.696932e+003,8.132607e-004
3.698860e+003,6.702319e-004
3.700789e+003,7.918328e-004
3.702717e+003,9.508729e-004
3.704646e+003,7.753223e-004
3.706574e+003,4.672930e-004
3.708503e+003,4.268289e-004
3.710431e+003,1.149602e-003
3.712360e+003,1.490042e-003
3.714288e+003,1.225300e-003
3.716217e+003,9.258389e-004
3.718145e+003,7.112697e-004
3.720074e+003,6.276518e-004
3.722002e+003,7.601827e-004
3.723931e+003,8.494258e-004
3.725859e+003,1.346059e-003
3.727788e+003,1.449496e-003
3.729716e+003,9.622648e-004
3.731645e+003,8.865967e-004
3.733573e+003,1.429774e-003
3.735502e+003,2.521761e-003
3.737430e+003,2.219945e-003
3.739359e+003,1.342863e-003
3.741287e+003,7.785708e-004
3.743216e+003,7.865205e-004
3.745144e+003,1.991868e-003
3.747073e+003,1.549542e-003
3.749001e+003,1.132868e-003
3.750930e+003,1.856662e-003
3.752858e+003,2.384394e-003
3.754787e+003,1.796447e-003
3.756715e+003,1.368992e-003
3.758644e+003,1.607910e-003
3.760572e+003,1.910329e-003
3.762501e+003,1.494177e-003
3.764429e+003,1.364268e-003
3.766358e+003,1.535676e-003
3.768286e+003,1.491629e-003
3.770215e+003,1.789920e-003
3.772143e+003,1.799449e-003
3.774072e+003,1.457915e-003
3.776000e+003,1.127824e-003
3.777929e+003,1.204036e-003
3.779857e+003,1.569539e-003
3.781786e+003,1.344815e-003
3.783714e+003,1.348257e-003
3.785643e+003,1.528867e-003
3.787571e+003,1.508340e-003
3.789500e+003,1.489513e-003
3.791428e+003,1.340307e-003
3.793357e+003,1.240857e-003
3.795285e+003,1.472019e-003
3.797214e+003,1.543410e-003
3.799142e+003,1.176938e-003
3.801071e+003,1.857378e-003
3.802999e+003,2.023377e-003
3.804927e+003,1.436487e-003
3.806856e+003,1.863740e-003
3.808785e+003,2.058648e-003
3.810713e+003,1.693554e-003
3.812642e+003,1.332514e-003
3.814570e+003,1.296051e-003
3.816499e+003,1.749836e-003
3.818427e+003,1.408949e-003
3.820355e+003,1.839004e-003
3.822284e+003,2.390780e-003
3.824213e+003,1.787610e-003
3.826141e+003,1.612037e-003
3.828070e+003,1.542121e-003
3.829998e+003,1.496747e-003
3.831927e+003,1.613460e-003
3.833855e+003,1.535371e-003
3.835783e+003,1.723468e-003
3.837712e+003,2.037495e-003
3.839641e+003,2.146125e-003
3.841569e+003,2.021022e-003
3.843498e+003,1.938529e-003
3.845426e+003,1.897380e-003
3.847354e+003,1.617655e-003
3.849283e+003,1.224905e-003
3.851211e+003,9.239465e-004
3.853140e+003,2.322994e-003
3.855069e+003,2.846561e-003
3.856997e+003,2.248101e-003
3.858926e+003,1.655906e-003
3.860854e+003,1.553670e-003
3.862782e+003,1.887880e-003
3.864711e+003,2.148680e-003
3.866640e+003,1.858801e-003
3.868568e+003,1.619011e-003
3.870497e+003,1.978785e-003
3.872425e+003,1.972608e-003
3.874354e+003,2.007082e-003
3.876282e+003,1.659431e-003
3.878210e+003,1.496859e-003
3.880139e+003,1.931235e-003
3.882068e+003,2.083436e-003
3.883996e+003,1.874268e-003
3.885925e+003,1.947694e-003
3.887853e+003,1.593851e-003
3.889781e+003,1.574956e-003
3.891710e+003,2.134018e-003
3.893638e+003,2.243355e-003
3.895567e+003,1.915514e-003
3.897496e+003,1.781143e-003
3.899424e+003,2.028570e-003
3.901353e+003,2.254970e-003
3.903281e+003,2.255715e-003
3.905209e+003,2.354108e-003
3.907138e+003,2.101250e-003
3.909066e+003,1.886249e-003
3.910995e+003,1.849003e-003
3.912924e+003,1.604639e-003
3.914852e+003,1.470059e-003
3.916781e+003,1.831263e-003
3.918709e+003,2.153248e-003
3.920637e+003,2.036825e-003
3.922566e+003,1.873568e-003
3.924494e+003,2.263002e-003
3.926423e+003,2.264135e-003
3.928352e+003,1.924269e-003
3.930280e+003,1.883432e-003
3.932208e+003,2.018772e-003
3.934137e+003,2.078168e-003
3.936065e+003,1.988962e-003
3.937994e+003,1.942366e-003
3.939922e+003,1.810692e-003
3.941851e+003,1.949303e-003
3.943780e+003,2.119109e-003
3.945708e+003,1.962245e-003
3.947636e+003,1.807280e-003
3.949565e+003,1.840763e-003
3.951493e+003,1.957484e-003
3.953422e+003,2.036497e-003
3.955351e+003,2.006620e-003
3.957279e+003,1.984097e-003
3.959208e+003,1.973152e-003
3.961136e+003,1.932800e-003
3.963064e+003,1.929618e-003
3.964993e+003,1.907133e-003
3.966921e+003,1.945302e-003
3.968850e+003,1.918539e-003
3.970779e+003,1.973473e-003
3.972707e+003,2.010740e-003
3.974635e+003,1.972169e-003
3.976564e+003,1.949079e-003
3.978492e+003,1.944639e-003
3.980421e+003,1.995027e-003
3.982349e+003,2.021112e-003
3.984278e+003,1.948193e-003
3.986207e+003,1.903832e-003
3.988135e+003,2.067327e-003
3.990063e+003,2.304159e-003
3.991992e+003,2.373330e-003
3.993920e+003,2.292790e-003
3.995849e+003,2.183467e-003
3.997777e+003,2.142243e-003
3.999706e+003,2.201781e-003
4.001635e+003,0.000000e+000
