3.991992e+002,0.000000e+000
4.011277e+002,0.000000e+000
4.030562e+002,0.000000e+000
4.049846e+002,0.000000e+000
4.069131e+002,0.000000e+000
4.088416e+002,0.000000e+000
4.107701e+002,0.000000e+000
4.126986e+002,0.000000e+000
4.146271e+002,0.000000e+000
4.165556e+002,0.000000e+000
4.184841e+002,0.000000e+000
4.204126e+002,0.000000e+000
4.223411e+002,0.000000e+000
4.242697e+002,0.000000e+000
4.261982e+002,0.000000e+000
4.281266e+002,0.000000e+000
4.300551e+002,0.000000e+000
4.319836e+002,0.000000e+000
4.339121e+002,0.000000e+000
4.358406e+002,0.000000e+000
4.377691e+002,0.000000e+000
4.396976e+002,0.000000e+000
4.416261e+002,0.000000e+000
4.435546e+002,0.000000e+000
4.454831e+002,0.000000e+000
4.474116e+002,0.000000e+000
4.493401e+002,0.000000e+000
4.512686e+002,0.000000e+000
4.531971e+002,0.000000e+000
4.551256e+002,0.000000e+000
4.570541e+002,0.000000e+000
4.589826e+002,0.000000e+000
4.609111e+002,0.000000e+000
4.628396e+002,0.000000e+000
4.647681e+002,0.000000e+000
4.666966e+002,0.000000e+000
4.686251e+002,0.000000e+000
4.705536e+002,0.000000e+000
4.724821e+002,0.000000e+000
4.744106e+002,0.000000e+000
4.763391e+002,0.000000e+000
4.782676e+002,0.000000e+000
4.801961e+002,0.000000e+000
4.821246e+002,0.000000e+000
4.840531e+002,0.000000e+000
4.859816e+002,0.000000e+000
4.879101e+002,0.000000e+000
4.898386e+002,0.000000e+000
4.917671e+002,0.000000e+000
4.936956e+002,0.000000e+000
4.956241e+002,0.000000e+000
4.975526e+002,0.000000e+000
4.994811e+002,0.000000e+000
5.014096e+002,0.000000e+000
5.033381e+002,0.000000e+000
5.052666e+002,0.000000e+000
5.071951e+002,0.000000e+000
5.091236e+002,0.000000e+000
5.110521e+002,0.000000e+000
5.129806e+002,0.000000e+000
5.149091e+002,0.000000e+000
5.168376e+002,0.000000e+000
5.187661e+002,0.000000e+000
5.206946e+002,0.000000e+000
5.226230e+002,0.000000e+000
5.245516e+002,4.217299e-004
5.264800e+002,6.520227e-004
5.284086e+002,6.304672e-004
5.303370e+002,5.459515e-004
5.322656e+002,3.686482e-004
5.341940e+002,2.022814e-004
5.361226e+002,2.967753e-005
5.380510e+002,7.248484e-006
5.399796e+002,-5.458388e-005
5.419081e+002,-1.292117e-005
5.438365e+002,-6.807782e-005
5.457650e+002,-4.208926e-005
5.476935e+002,-1.400542e-004
5.496221e+002,-4.286692e-005
5.515505e+002,-2.977625e-005
5.534790e+002,9.618700e-006
5.554075e+002,-1.208903e-004
5.573361e+002,-1.585037e-004
5.592645e+002,-1.844410e-004
5.611931e+002,-1.206426e-004
5.631215e+002,-1.022331e-004
5.650500e+002,-9.348337e-005
5.669785e+002,-8.769985e-005
5.689070e+002,8.498784e-005
5.708355e+002,-1.519267e-005
5.727640e+002,-1.924206e-005
5.746925e+002,-4.789047e-005
5.766210e+002,-4.032440e-005
5.785495e+002,-1.005307e-004
5.804780e+002,-7.777009e-005
5.824065e+002,-1.484947e-004
5.843350e+002,-1.286650e-004
5.862635e+002,-1.118984e-004
5.881920e+002,-6.329361e-005
5.901205e+002,-1.869323e-004
5.920490e+002,-1.901649e-004
5.939775e+002,-1.623807e-004
5.959060e+002,-1.125075e-004
5.978345e+002,-1.037223e-004
5.997630e+002,4.304573e-006
6.016915e+002,7.923879e-005
6.036200e+002,1.293700e-004
6.055485e+002,1.857718e-004
6.074770e+002,1.853239e-004
6.094055e+002,2.812315e-005
6.113340e+002,7.245783e-005
6.132625e+002,2.068747e-005
6.151910e+002,-5.046930e-005
6.171195e+002,-2.363883e-005
6.190480e+002,9.824149e-005
6.209765e+002,1.168521e-004
6.229050e+002,1.579802e-004
6.248335e+002,1.286976e-004
6.267620e+002,1.514992e-004
6.286905e+002,9.131152e-005
6.306190e+002,1.124768e-004
6.325475e+002,1.911344e-004
6.344760e+002,2.909927e-004
6.364045e+002,3.282521e-004
6.383330e+002,4.104134e-004
6.402615e+002,4.232777e-004
6.421899e+002,4.748162e-004
6.441185e+002,4.060743e-004
6.460470e+002,4.311670e-004
6.479755e+002,4.095575e-004
6.499039e+002,4.168740e-004
6.518325e+002,3.680298e-004
6.537610e+002,4.069405e-004
6.556895e+002,4.645344e-004
6.576179e+002,5.127434e-004
6.595464e+002,4.347721e-004
6.614750e+002,4.535066e-004
6.634034e+002,4.406283e-004
6.653319e+002,4.125098e-004
6.672604e+002,4.345477e-004
6.691890e+002,5.191648e-004
6.711174e+002,3.699325e-004
6.730460e+002,3.996454e-004
6.749745e+002,3.547817e-004
6.769030e+002,3.183605e-004
6.788314e+002,2.618534e-004
6.807599e+002,3.524721e-004
6.826885e+002,4.578894e-004
6.846169e+002,4.829727e-004
6.865454e+002,4.437240e-004
6.884739e+002,5.404335e-004
6.904025e+002,5.135164e-004
6.923309e+002,5.261768e-004
6.942594e+002,5.467078e-004
6.961879e+002,6.327769e-004
6.981165e+002,6.449074e-004
7.000449e+002,6.975001e-004
7.019734e+002,7.035676e-004
7.039019e+002,7.687602e-004
7.058304e+002,7.940223e-004
7.077589e+002,8.496223e-004
7.096874e+002,9.083338e-004
7.116159e+002,9.642774e-004
7.135444e+002,9.285649e-004
7.154729e+002,9.515155e-004
7.174014e+002,1.001078e-003
7.193299e+002,1.076417e-003
7.212584e+002,1.068891e-003
7.231869e+002,1.122164e-003
7.251154e+002,1.068105e-003
7.270439e+002,1.043088e-003
7.289724e+002,1.000877e-003
7.309009e+002,1.055535e-003
7.328294e+002,1.036511e-003
7.347579e+002,1.036713e-003
7.366864e+002,1.038230e-003
7.386149e+002,1.078618e-003
7.405434e+002,1.055510e-003
7.424719e+002,1.060945e-003
7.444004e+002,1.018664e-003
7.463289e+002,1.060935e-003
7.482574e+002,1.045645e-003
7.501859e+002,1.044065e-003
7.521144e+002,1.012732e-003
7.540428e+002,1.069008e-003
7.559714e+002,1.086025e-003
7.578999e+002,1.194693e-003
7.598284e+002,1.210446e-003
7.617568e+002,1.240149e-003
7.636854e+002,1.247590e-003
7.656139e+002,1.314016e-003
7.675424e+002,1.373141e-003
7.694709e+002,1.429341e-003
7.713994e+002,1.448347e-003
7.733279e+002,1.508924e-003
7.752563e+002,1.497116e-003
7.771849e+002,1.540181e-003
7.791134e+002,1.623327e-003
7.810419e+002,1.836071e-003
7.829703e+002,2.003581e-003
7.848989e+002,2.256799e-003
7.868274e+002,2.506567e-003
7.887559e+002,2.867200e-003
7.906843e+002,3.185072e-003
7.926129e+002,3.515211e-003
7.945414e+002,3.824273e-003
7.964698e+002,4.213041e-003
7.983983e+002,4.651646e-003
8.003268e+002,5.254732e-003
8.022554e+002,6.030500e-003
8.041838e+002,7.609564e-003
8.061123e+002,1.007627e-002
8.080408e+002,1.219779e-002
8.099694e+002,1.205222e-002
8.118978e+002,9.847648e-003
8.138263e+002,7.223452e-003
8.157548e+002,5.679321e-003
8.176833e+002,4.989090e-003
8.196118e+002,4.723374e-003
8.215403e+002,4.500774e-003
8.234689e+002,4.499326e-003
8.253973e+002,4.635697e-003
8.273258e+002,4.922953e-003
8.292543e+002,5.208267e-003
8.311829e+002,5.715473e-003
8.331113e+002,6.487563e-003
8.350398e+002,8.105725e-003
8.369683e+002,1.219323e-002
8.388969e+002,2.121573e-002
8.408253e+002,2.657697e-002
8.427538e+002,1.942895e-002
8.446823e+002,1.089145e-002
8.466108e+002,7.186882e-003
8.485393e+002,5.680926e-003
8.504678e+002,4.928776e-003
8.523963e+002,4.482618e-003
8.543248e+002,4.205819e-003
8.562533e+002,3.963984e-003
8.581818e+002,3.792311e-003
8.601103e+002,3.589564e-003
8.620388e+002,3.512832e-003
8.639673e+002,3.435476e-003
8.658958e+002,3.435871e-003
8.678243e+002,3.332825e-003
8.697528e+002,3.254228e-003
8.716813e+002,3.162074e-003
8.736098e+002,3.086402e-003
8.755383e+002,2.991077e-003
8.774668e+002,3.088118e-003
8.793953e+002,3.122752e-003
8.813238e+002,3.141132e-003
8.832523e+002,3.212282e-003
8.851808e+002,3.401013e-003
8.871093e+002,3.562617e-003
8.890378e+002,3.786301e-003
8.909663e+002,4.116813e-003
8.928948e+002,4.993107e-003
8.948232e+002,6.647336e-003
8.967518e+002,9.203032e-003
8.986803e+002,1.094152e-002
9.006088e+002,1.011740e-002
9.025372e+002,7.520420e-003
9.044658e+002,5.302788e-003
9.063943e+002,3.967224e-003
9.083228e+002,3.387637e-003
9.102512e+002,3.125776e-003
9.121797e+002,3.027203e-003
9.141083e+002,2.923192e-003
9.160367e+002,2.889554e-003
9.179653e+002,2.813252e-003
9.198937e+002,2.808217e-003
9.218223e+002,2.813394e-003
9.237507e+002,2.904692e-003
9.256793e+002,2.878150e-003
9.276077e+002,2.888908e-003
9.295363e+002,2.970509e-003
9.314647e+002,3.170325e-003
9.333932e+002,3.361581e-003
9.353217e+002,3.797727e-003
9.372502e+002,4.576697e-003
9.391787e+002,5.305525e-003
9.411072e+002,5.293427e-003
9.430358e+002,4.816607e-003
9.449642e+002,4.343198e-003
9.468928e+002,4.248307e-003
9.488212e+002,4.274442e-003
9.507498e+002,4.433027e-003
9.526782e+002,4.624183e-003
9.546068e+002,4.938400e-003
9.565352e+002,5.290783e-003
9.584637e+002,5.891269e-003
9.603922e+002,6.620250e-003
9.623207e+002,7.633849e-003
9.642492e+002,9.191245e-003
9.661777e+002,1.198883e-002
9.681062e+002,1.741391e-002
9.700347e+002,2.635538e-002
9.719632e+002,3.330516e-002
9.738917e+002,3.118688e-002
9.758202e+002,2.340396e-002
9.777487e+002,1.629441e-002
9.796772e+002,1.145091e-002
9.816057e+002,8.761524e-003
9.835342e+002,7.504543e-003
9.854627e+002,7.248192e-003
9.873912e+002,7.664508e-003
9.893197e+002,8.993375e-003
9.912482e+002,1.156483e-002
9.931767e+002,1.641542e-002
9.951052e+002,2.378796e-002
9.970337e+002,2.948852e-002
9.989622e+002,2.702169e-002
1.000891e+003,1.905333e-002
1.002819e+003,1.255871e-002
1.004748e+003,9.159740e-003
1.006676e+003,7.401234e-003
1.008605e+003,6.442219e-003
1.010533e+003,5.872785e-003
1.012462e+003,5.599742e-003
1.014390e+003,5.380855e-003
1.016319e+003,5.266390e-003
1.018247e+003,5.114156e-003
1.020176e+003,5.000555e-003
1.022104e+003,4.841802e-003
1.024033e+003,4.728915e-003
1.025961e+003,4.673518e-003
1.027890e+003,4.703460e-003
1.029818e+003,4.684045e-003
1.031747e+003,4.798098e-003
1.033675e+003,4.960321e-003
1.035604e+003,5.107970e-003
1.037532e+003,5.169244e-003
1.039461e+003,5.392262e-003
1.041389e+003,5.820904e-003
1.043318e+003,6.372483e-003
1.045246e+003,6.414613e-003
1.047175e+003,5.915248e-003
1.049103e+003,5.277190e-003
1.051032e+003,4.894746e-003
1.052960e+003,4.636077e-003
1.054889e+003,4.578943e-003
1.056817e+003,4.493126e-003
1.058746e+003,4.424490e-003
1.060674e+003,4.358133e-003
1.062603e+003,4.373882e-003
1.064531e+003,4.331730e-003
1.066460e+003,4.373055e-003
1.068388e+003,4.350947e-003
1.070317e+003,4.408709e-003
1.072245e+003,4.440201e-003
1.074174e+003,4.554325e-003
1.076102e+003,4.666379e-003
1.078031e+003,4.787594e-003
1.079959e+003,4.912416e-003
1.081888e+003,5.121211e-003
1.083816e+003,5.189037e-003
1.085745e+003,5.244012e-003
1.087673e+003,5.339514e-003
1.089602e+003,5.588539e-003
1.091530e+003,5.795680e-003
1.093459e+003,6.097065e-003
1.095387e+003,6.548312e-003
1.097316e+003,7.275783e-003
1.099244e+003,8.113902e-003
1.101173e+003,8.948116e-003
1.103101e+003,9.043762e-003
1.105030e+003,8.286826e-003
1.106958e+003,7.259076e-003
1.108887e+003,6.550975e-003
1.110815e+003,6.081409e-003
1.112744e+003,5.889220e-003
1.114672e+003,5.719544e-003
1.116601e+003,5.674693e-003
1.118529e+003,5.561996e-003
1.120458e+003,5.497674e-003
1.122386e+003,5.419262e-003
1.124315e+003,5.411769e-003
1.126243e+003,5.380914e-003
1.128172e+003,5.429546e-003
1.130100e+003,5.512917e-003
1.132029e+003,5.746356e-003
1.133957e+003,6.020932e-003
1.135885e+003,6.494434e-003
1.137814e+003,7.040679e-003
1.139743e+003,7.799875e-003
1.141671e+003,8.687521e-003
1.143600e+003,9.830753e-003
1.145528e+003,1.113885e-002
1.147457e+003,1.279786e-002
1.149385e+003,1.462961e-002
1.151314e+003,1.629299e-002
1.153242e+003,1.723574e-002
1.155171e+003,1.785552e-002
1.157099e+003,1.864057e-002
1.159028e+003,2.002318e-002
1.160956e+003,2.209488e-002
1.162885e+003,2.538902e-002
1.164813e+003,2.942723e-002
1.166742e+003,3.198390e-002
1.168670e+003,2.958895e-002
1.170599e+003,2.290726e-002
1.172527e+003,1.612172e-002
1.174456e+003,1.157847e-002
1.176384e+003,8.922241e-003
1.178313e+003,7.443073e-003
1.180241e+003,6.536848e-003
1.182170e+003,6.103420e-003
1.184098e+003,5.782220e-003
1.186027e+003,5.660639e-003
1.187955e+003,5.632401e-003
1.189884e+003,5.697001e-003
1.191812e+003,5.686119e-003
1.193740e+003,5.781629e-003
1.195669e+003,5.819329e-003
1.197598e+003,5.902136e-003
1.199526e+003,5.966074e-003
1.201455e+003,6.092997e-003
1.203383e+003,6.232902e-003
1.205312e+003,6.500812e-003
1.207240e+003,6.725536e-003
1.209168e+003,7.007348e-003
1.211097e+003,7.290907e-003
1.213026e+003,7.739006e-003
1.214954e+003,8.244338e-003
1.216883e+003,8.779252e-003
1.218811e+003,9.023834e-003
1.220740e+003,8.939529e-003
1.222668e+003,8.491721e-003
1.224596e+003,8.095438e-003
1.226525e+003,7.881716e-003
1.228453e+003,7.870898e-003
1.230382e+003,7.848823e-003
1.232311e+003,7.891515e-003
1.234239e+003,7.905975e-003
1.236167e+003,8.011896e-003
1.238096e+003,8.068781e-003
1.240025e+003,8.180831e-003
1.241953e+003,8.207159e-003
1.243882e+003,8.324340e-003
1.245810e+003,8.431651e-003
1.247739e+003,8.691475e-003
1.249667e+003,9.156236e-003
1.251595e+003,1.025421e-002
1.253524e+003,1.184555e-002
1.255453e+003,1.260726e-002
1.257381e+003,1.140014e-002
1.259310e+003,9.783214e-003
1.261238e+003,8.636553e-003
1.263167e+003,7.999733e-003
1.265095e+003,7.410651e-003
1.267023e+003,6.963393e-003
1.268952e+003,6.581943e-003
1.270880e+003,6.428702e-003
1.272809e+003,6.288005e-003
1.274738e+003,6.314278e-003
1.276666e+003,6.332876e-003
1.278594e+003,6.468767e-003
1.280523e+003,6.566850e-003
1.282451e+003,6.751573e-003
1.284380e+003,6.913066e-003
1.286308e+003,7.245779e-003
1.288237e+003,7.645845e-003
1.290166e+003,8.297460e-003
1.292094e+003,9.056408e-003
1.294022e+003,9.890951e-003
1.295951e+003,1.027208e-002
1.297879e+003,1.031503e-002
1.299808e+003,1.042180e-002
1.301736e+003,1.163672e-002
1.303665e+003,1.306755e-002
1.305594e+003,1.234882e-002
1.307522e+003,9.682428e-003
1.309450e+003,7.935761e-003
1.311379e+003,7.265054e-003
1.313307e+003,7.225880e-003
1.315236e+003,7.272309e-003
1.317164e+003,7.570446e-003
1.319093e+003,7.818906e-003
1.321021e+003,8.387545e-003
1.322950e+003,9.069297e-003
1.324878e+003,1.013930e-002
1.326807e+003,1.089698e-002
1.328735e+003,1.142967e-002
1.330664e+003,1.110492e-002
1.332592e+003,1.045779e-002
1.334521e+003,9.789947e-003
1.336449e+003,9.682579e-003
1.338378e+003,9.725457e-003
1.340306e+003,1.029708e-002
1.342235e+003,1.074840e-002
1.344163e+003,1.171984e-002
1.346092e+003,1.288669e-002
1.348021e+003,1.472664e-002
1.349949e+003,1.702539e-002
1.351877e+003,2.066792e-002
1.353806e+003,2.589032e-002
1.355734e+003,3.345894e-002
1.357663e+003,3.904314e-002
1.359591e+003,3.950810e-002
1.361520e+003,3.498194e-002
1.363448e+003,3.123571e-002
1.365377e+003,3.095574e-002
1.367305e+003,3.678298e-002
1.369234e+003,5.330358e-002
1.371162e+003,8.408330e-002
1.373091e+003,1.278997e-001
1.375019e+003,1.649833e-001
1.376948e+003,1.449409e-001
1.378876e+003,9.765261e-002
1.380805e+003,5.978761e-002
1.382733e+003,3.630130e-002
1.384662e+003,2.285202e-002
1.386590e+003,1.545886e-002
1.388519e+003,1.163513e-002
1.390447e+003,9.855401e-003
1.392376e+003,9.160064e-003
1.394304e+003,8.494888e-003
1.396233e+003,8.259205e-003
1.398161e+003,7.904232e-003
1.400090e+003,7.932667e-003
1.402018e+003,7.791506e-003
1.403947e+003,7.895896e-003
1.405875e+003,7.889574e-003
1.407804e+003,8.026231e-003
1.409732e+003,8.113198e-003
1.411661e+003,8.398112e-003
1.413589e+003,8.618498e-003
1.415518e+003,8.944068e-003
1.417446e+003,9.212118e-003
1.419375e+003,9.766614e-003
1.421303e+003,1.018826e-002
1.423232e+003,1.081726e-002
1.425160e+003,1.194046e-002
1.427089e+003,1.324809e-002
1.429017e+003,1.585457e-002
1.430946e+003,2.145248e-002
1.432874e+003,2.951661e-002
1.434803e+003,3.604775e-002
1.436731e+003,3.699130e-002
1.438660e+003,3.622286e-002
1.440588e+003,3.903078e-002
1.442517e+003,4.617777e-002
1.444445e+003,5.805008e-002
1.446374e+003,7.282464e-002
1.448302e+003,8.916879e-002
1.450231e+003,9.666918e-002
1.452159e+003,9.883346e-002
1.454088e+003,9.864388e-002
1.456016e+003,9.852177e-002
1.457945e+003,9.532058e-002
1.459873e+003,9.231971e-002
1.461802e+003,8.752438e-002
1.463730e+003,7.977834e-002
1.465659e+003,6.416995e-002
1.467587e+003,5.128465e-002
1.469516e+003,4.058246e-002
1.471444e+003,3.136773e-002
1.473373e+003,2.068618e-002
1.475301e+003,1.586701e-002
1.477230e+003,1.231710e-002
1.479158e+003,1.031525e-002
1.481087e+003,8.734912e-003
1.483015e+003,7.615656e-003
1.484944e+003,6.749706e-003
1.486872e+003,6.151218e-003
1.488801e+003,5.502090e-003
1.490729e+003,5.131848e-003
1.492658e+003,4.756024e-003
1.494586e+003,4.545169e-003
1.496515e+003,4.283052e-003
1.498443e+003,4.139151e-003
1.500372e+003,3.921108e-003
1.502300e+003,3.807284e-003
1.504229e+003,3.663454e-003
1.506157e+003,3.685271e-003
1.508086e+003,3.414365e-003
1.510014e+003,3.283059e-003
1.511943e+003,3.176404e-003
1.513871e+003,3.159693e-003
1.515800e+003,3.193364e-003
1.517728e+003,3.209101e-003
1.519657e+003,3.080176e-003
1.521585e+003,2.992855e-003
1.523514e+003,2.853585e-003
1.525442e+003,2.883829e-003
1.527371e+003,2.861235e-003
1.529299e+003,2.795616e-003
1.531228e+003,2.780637e-003
1.533156e+003,2.933171e-003
1.535085e+003,2.956992e-003
1.537013e+003,2.925828e-003
1.538942e+003,3.079250e-003
1.540870e+003,3.060525e-003
1.542799e+003,2.846820e-003
1.544727e+003,2.838729e-003
1.546656e+003,2.811160e-003
1.548584e+003,2.849642e-003
1.550513e+003,2.939085e-003
1.552441e+003,2.941843e-003
1.554370e+003,3.030153e-003
1.556298e+003,2.956435e-003
1.558227e+003,2.687538e-003
1.560155e+003,2.738275e-003
1.562084e+003,2.704334e-003
1.564012e+003,2.715388e-003
1.565941e+003,2.724249e-003
1.567869e+003,2.709392e-003
1.569798e+003,2.736188e-003
1.571726e+003,2.694363e-003
1.573655e+003,2.668312e-003
1.575583e+003,2.713980e-003
1.577512e+003,2.708111e-003
1.579440e+003,2.636081e-003
1.581369e+003,2.630446e-003
1.583297e+003,2.632588e-003
1.585226e+003,2.653981e-003
1.587154e+003,2.681443e-003
1.589083e+003,2.716139e-003
1.591011e+003,2.760543e-003
1.592940e+003,2.746679e-003
1.594868e+003,2.736697e-003
1.596797e+003,2.756907e-003
1.598725e+003,2.777535e-003
1.600654e+003,2.790466e-003
1.602582e+003,2.845442e-003
1.604511e+003,2.857519e-003
1.606439e+003,2.822243e-003
1.608368e+003,2.849823e-003
1.610296e+003,2.942182e-003
1.612225e+003,2.965186e-003
1.614153e+003,2.912275e-003
1.616082e+003,2.860608e-003
1.618010e+003,2.906429e-003
1.619939e+003,2.922660e-003
1.621867e+003,3.004676e-003
1.623796e+003,3.090996e-003
1.625724e+003,3.089583e-003
1.627653e+003,3.178859e-003
1.629581e+003,3.171485e-003
1.631510e+003,3.142945e-003
1.633438e+003,3.166417e-003
1.635367e+003,3.234573e-003
1.637295e+003,3.233269e-003
1.639224e+003,3.152160e-003
1.641152e+003,3.164496e-003
1.643081e+003,3.213931e-003
1.645009e+003,3.273103e-003
1.646938e+003,3.375176e-003
1.648866e+003,3.334772e-003
1.650795e+003,3.194002e-003
1.652723e+003,3.199918e-003
1.654652e+003,3.151761e-003
1.656580e+003,3.010841e-003
1.658509e+003,3.001176e-003
1.660437e+003,3.048675e-003
1.662366e+003,3.031539e-003
1.664294e+003,2.957648e-003
1.666223e+003,2.891796e-003
1.668151e+003,2.953477e-003
1.670080e+003,2.973832e-003
1.672008e+003,2.832446e-003
1.673937e+003,2.810955e-003
1.675865e+003,2.967430e-003
1.677794e+003,2.939804e-003
1.679722e+003,3.008718e-003
1.681651e+003,3.031658e-003
1.683579e+003,3.139675e-003
1.685508e+003,2.997831e-003
1.687436e+003,2.823502e-003
1.689365e+003,2.829958e-003
1.691293e+003,2.858123e-003
1.693222e+003,2.854284e-003
1.695150e+003,2.954124e-003
1.697079e+003,2.977489e-003
1.699007e+003,2.785694e-003
1.700936e+003,2.693150e-003
1.702864e+003,2.663793e-003
1.704793e+003,2.672337e-003
1.706721e+003,2.634631e-003
1.708650e+003,2.563907e-003
1.710578e+003,2.566233e-003
1.712507e+003,2.556782e-003
1.714435e+003,2.646483e-003
1.716364e+003,2.633477e-003
1.718292e+003,2.515078e-003
1.720221e+003,2.358465e-003
1.722149e+003,2.338341e-003
1.724078e+003,2.394887e-003
1.726006e+003,2.421491e-003
1.727935e+003,2.473978e-003
1.729863e+003,2.617715e-003
1.731792e+003,2.603086e-003
1.733720e+003,2.636284e-003
1.735649e+003,2.909813e-003
1.737577e+003,3.043989e-003
1.739506e+003,3.460431e-003
1.741434e+003,3.882544e-003
1.743363e+003,4.259234e-003
1.745291e+003,4.660033e-003
1.747220e+003,4.897360e-003
1.749148e+003,4.892837e-003
1.751077e+003,4.543087e-003
1.753005e+003,4.075825e-003
1.754934e+003,3.641782e-003
1.756862e+003,3.188074e-003
1.758791e+003,2.730435e-003
1.760719e+003,2.413213e-003
1.762648e+003,2.042023e-003
1.764576e+003,1.833674e-003
1.766505e+003,1.732722e-003
1.768433e+003,1.619769e-003
1.770362e+003,1.499802e-003
1.772290e+003,1.519499e-003
1.774219e+003,1.312621e-003
1.776147e+003,1.192007e-003
1.778076e+003,1.240715e-003
1.780004e+003,1.398958e-003
1.781933e+003,1.379151e-003
1.783861e+003,1.324929e-003
1.785790e+003,1.282902e-003
1.787718e+003,1.246577e-003
1.789646e+003,1.276169e-003
1.791575e+003,1.375208e-003
1.793504e+003,1.294909e-003
1.795432e+003,1.238655e-003
1.797361e+003,1.149870e-003
1.799289e+003,1.135290e-003
1.801218e+003,1.069263e-003
1.803146e+003,9.716284e-004
1.805074e+003,8.931365e-004
1.807003e+003,8.647405e-004
1.808932e+003,8.002222e-004
1.810860e+003,7.521249e-004
1.812789e+003,5.584955e-004
1.814717e+003,2.441667e-004
1.816646e+003,3.253855e-005
1.818574e+003,4.491508e-004
1.820502e+003,7.946510e-004
1.822431e+003,8.482523e-004
1.824360e+003,8.294210e-004
1.826288e+003,8.364692e-004
1.828217e+003,8.427128e-004
1.830145e+003,8.086171e-004
1.832073e+003,6.165765e-004
1.834002e+003,6.606933e-004
1.835931e+003,6.186925e-004
1.837859e+003,5.442444e-004
1.839788e+003,6.040893e-004
1.841716e+003,6.406754e-004
1.843645e+003,5.971305e-004
1.845573e+003,5.221255e-004
1.847501e+003,4.106052e-004
1.849430e+003,5.707685e-004
1.851359e+003,5.321130e-004
1.853287e+003,4.579052e-004
1.855216e+003,3.849380e-004
1.857144e+003,3.846567e-004
1.859073e+003,3.404319e-004
1.861001e+003,2.775099e-004
1.862929e+003,2.145804e-004
1.864858e+003,1.575612e-004
1.866787e+003,1.032855e-004
1.868715e+003,1.774821e-004
1.870644e+003,3.079716e-004
1.872572e+003,3.114473e-004
1.874500e+003,1.122858e-004
1.876429e+003,9.124354e-005
1.878357e+003,2.213717e-004
1.880286e+003,2.297461e-004
1.882215e+003,2.095029e-004
1.884143e+003,2.107359e-004
1.886072e+003,7.028319e-005
1.888000e+003,1.470707e-004
1.889928e+003,1.469404e-004
1.891857e+003,1.758244e-004
1.893785e+003,1.871996e-004
1.895714e+003,6.562658e-005
1.897643e+003,-1.609121e-004
1.899571e+003,-1.884606e-004
1.901500e+003,-1.784898e-004
1.903428e+003,-1.685247e-004
1.905356e+003,-1.585633e-004
1.907285e+003,-1.486074e-004
1.909213e+003,-1.386572e-004
1.911142e+003,-1.287069e-004
1.913071e+003,-1.187641e-004
1.914999e+003,-1.088250e-004
1.916927e+003,-9.889156e-005
1.918856e+003,-8.895993e-005
1.920784e+003,-7.903576e-005
1.922713e+003,-6.911345e-005
1.924641e+003,-5.920045e-005
1.926570e+003,-4.928373e-005
1.928499e+003,-3.937632e-005
1.930427e+003,-2.947263e-005
1.932355e+003,-1.957454e-005
1.934284e+003,-9.680167e-006
1.936212e+003,2.104789e-007
1.938141e+003,1.009554e-005
1.940070e+003,1.997873e-005
1.941998e+003,2.985634e-005
1.943927e+003,3.972836e-005
1.945855e+003,4.959293e-005
1.947783e+003,5.945936e-005
1.949712e+003,6.932020e-005
1.951640e+003,7.917359e-005
1.953569e+003,8.902140e-005
1.955498e+003,9.887293e-005
1.957426e+003,1.087114e-004
1.959354e+003,1.185481e-004
1.961283e+003,1.283810e-004
1.963211e+003,1.382120e-004
1.965140e+003,1.480337e-004
1.967068e+003,1.578536e-004
1.968997e+003,1.676679e-004
1.970926e+003,1.774803e-004
1.972854e+003,1.872852e-004
1.974782e+003,1.970883e-004
1.976711e+003,2.068840e-004
1.978639e+003,2.166778e-004
1.980568e+003,2.264678e-004
1.982496e+003,2.362486e-004
1.984425e+003,2.460331e-004
1.986354e+003,2.558064e-004
1.988282e+003,2.655759e-004
1.990210e+003,2.753437e-004
1.992139e+003,2.851076e-004
1.994067e+003,2.948623e-004
1.995996e+003,3.046151e-004
1.997924e+003,3.143642e-004
1.999853e+003,3.241096e-004
2.001781e+003,3.338512e-004
2.003710e+003,3.435854e-004
2.005638e+003,3.533140e-004
2.007567e+003,3.630426e-004
2.009495e+003,3.727656e-004
2.011424e+003,3.824811e-004
2.013352e+003,3.921986e-004
2.015281e+003,4.019067e-004
2.017209e+003,4.116111e-004
2.019138e+003,4.213098e-004
2.021066e+003,4.310068e-004
2.022995e+003,4.407000e-004
2.024923e+003,4.503839e-004
2.026852e+003,4.600678e-004
2.028781e+003,4.697479e-004
2.030709e+003,4.794169e-004
2.032637e+003,4.890896e-004
2.034566e+003,4.987530e-004
2.036494e+003,5.084146e-004
2.038423e+003,5.180705e-004
2.040351e+003,5.277209e-004
2.042280e+003,5.373694e-004
2.044208e+003,5.470142e-004
2.046137e+003,5.566496e-004
2.048065e+003,5.662832e-004
2.049994e+003,5.759131e-004
2.051922e+003,5.855374e-004
2.053851e+003,5.951598e-004
2.055779e+003,6.047767e-004
2.057708e+003,6.143879e-004
2.059636e+003,6.239936e-004
2.061565e+003,6.335992e-004
2.063493e+003,6.431956e-004
2.065422e+003,6.527901e-004
2.067350e+003,6.623790e-004
2.069279e+003,6.719679e-004
2.071207e+003,6.815474e-004
2.073136e+003,6.911270e-004
2.075064e+003,7.006954e-004
2.076993e+003,7.102620e-004
2.078921e+003,7.198248e-004
2.080850e+003,7.293858e-004
2.082778e+003,7.389374e-004
2.084707e+003,7.484928e-004
2.086635e+003,7.580370e-004
2.088564e+003,7.675756e-004
2.090492e+003,7.771123e-004
2.092421e+003,7.866453e-004
2.094349e+003,7.961709e-004
2.096278e+003,8.056946e-004
2.098206e+003,8.152165e-004
2.100135e+003,8.247327e-004
2.102063e+003,8.342415e-004
2.103992e+003,8.437466e-004
2.105920e+003,8.532479e-004
2.107849e+003,8.627437e-004
2.109777e+003,8.722357e-004
2.111706e+003,8.817222e-004
2.113634e+003,8.912105e-004
2.115563e+003,9.006914e-004
2.117491e+003,9.101648e-004
2.119420e+003,9.196326e-004
2.121348e+003,9.291004e-004
2.123277e+003,9.385608e-004
2.125205e+003,9.480156e-004
2.127134e+003,9.574704e-004
2.129062e+003,9.669196e-004
2.130991e+003,9.763632e-004
2.132919e+003,9.858031e-004
2.134848e+003,9.952374e-004
2.136776e+003,1.004668e-003
2.138705e+003,1.014095e-003
2.140633e+003,1.023516e-003
2.142562e+003,1.032937e-003
2.144490e+003,1.042351e-003
2.146419e+003,1.051757e-003
2.148347e+003,1.061158e-003
2.150276e+003,1.070559e-003
2.152204e+003,1.079956e-003
2.154133e+003,1.089346e-003
2.156061e+003,1.098735e-003
2.157990e+003,1.108119e-003
2.159918e+003,1.117492e-003
2.161847e+003,1.126865e-003
2.163775e+003,1.136234e-003
2.165704e+003,1.145598e-003
2.167632e+003,1.154957e-003
2.169561e+003,1.164312e-003
2.171489e+003,1.173664e-003
2.173418e+003,1.183011e-003
2.175346e+003,1.192356e-003
2.177275e+003,1.201693e-003
2.179203e+003,1.211027e-003
2.181132e+003,1.220357e-003
2.183060e+003,1.229679e-003
2.184989e+003,1.238996e-003
2.186917e+003,1.248319e-003
2.188846e+003,1.257628e-003
2.190774e+003,1.266934e-003
2.192703e+003,1.276238e-003
2.194631e+003,1.285534e-003
2.196560e+003,1.294827e-003
2.198488e+003,1.304116e-003
2.200417e+003,1.313403e-003
2.202345e+003,1.322685e-003
2.204274e+003,1.331961e-003
2.206202e+003,1.341233e-003
2.208131e+003,1.350500e-003
2.210059e+003,1.359759e-003
2.211988e+003,1.369018e-003
2.213916e+003,1.378268e-003
2.215845e+003,1.387520e-003
2.217773e+003,1.396766e-003
2.219702e+003,1.406008e-003
2.221630e+003,1.415247e-003
2.223559e+003,1.424477e-003
2.225487e+003,1.433702e-003
2.227416e+003,1.442926e-003
2.229344e+003,1.452144e-003
2.231273e+003,1.461362e-003
2.233201e+003,1.470570e-003
2.235130e+003,1.479777e-003
2.237058e+003,1.488974e-003
2.238987e+003,1.498174e-003
2.240915e+003,1.507362e-003
2.242844e+003,1.516549e-003
2.244772e+003,1.525734e-003
2.246701e+003,1.534915e-003
2.248629e+003,1.544088e-003
2.250558e+003,1.553260e-003
2.252486e+003,1.562426e-003
2.254415e+003,1.571584e-003
2.256343e+003,1.580739e-003
2.258272e+003,1.589892e-003
2.260200e+003,1.599040e-003
2.262129e+003,1.608185e-003
2.264057e+003,1.617325e-003
2.265986e+003,1.626458e-003
2.267914e+003,1.635587e-003
2.269843e+003,1.644714e-003
2.271771e+003,1.653835e-003
2.273700e+003,1.662949e-003
2.275628e+003,1.672069e-003
2.277557e+003,1.681175e-003
2.279485e+003,1.690280e-003
2.281414e+003,1.699379e-003
2.283342e+003,1.708468e-003
2.285271e+003,1.717562e-003
2.287199e+003,1.726646e-003
2.289128e+003,1.735732e-003
2.291056e+003,1.744809e-003
2.292985e+003,1.753882e-003
2.294913e+003,1.762947e-003
2.296842e+003,1.772011e-003
2.298770e+003,1.781071e-003
2.300699e+003,1.790127e-003
2.302627e+003,1.799177e-003
2.304556e+003,1.808224e-003
2.306484e+003,1.817267e-003
2.308413e+003,1.826303e-003
2.310341e+003,1.835337e-003
2.312270e+003,1.844365e-003
2.314198e+003,1.853388e-003
2.316127e+003,1.862405e-003
2.318055e+003,1.871422e-003
2.319984e+003,1.880435e-003
2.321912e+003,1.889441e-003
2.323841e+003,1.898443e-003
2.325769e+003,1.907440e-003
2.327698e+003,1.916433e-003
2.329626e+003,1.925422e-003
2.331555e+003,1.934404e-003
2.333483e+003,1.943389e-003
2.335412e+003,1.952363e-003
2.337340e+003,1.961336e-003
2.339269e+003,1.970299e-003
2.341197e+003,1.979263e-003
2.343126e+003,1.988219e-003
2.345054e+003,1.997173e-003
2.346983e+003,2.006127e-003
2.348911e+003,2.015069e-003
2.350840e+003,2.024008e-003
2.352768e+003,2.032947e-003
2.354697e+003,2.041876e-003
2.356625e+003,2.050802e-003
2.358554e+003,2.059722e-003
2.360482e+003,2.068641e-003
2.362411e+003,2.077553e-003
2.364339e+003,2.086468e-003
2.366268e+003,2.095371e-003
2.368196e+003,2.104271e-003
2.370125e+003,2.113167e-003
2.372053e+003,2.122058e-003
2.373982e+003,2.130942e-003
2.375910e+003,2.139827e-003
2.377839e+003,2.148710e-003
2.379767e+003,2.157584e-003
2.381696e+003,2.166450e-003
2.383624e+003,2.175314e-003
2.385553e+003,2.184177e-003
2.387481e+003,2.193032e-003
2.389410e+003,2.201885e-003
2.391338e+003,2.210734e-003
2.393267e+003,2.219578e-003
2.395195e+003,2.228415e-003
2.397124e+003,2.237247e-003
2.399052e+003,2.246076e-003
2.400981e+003,2.234502e-003
2.402909e+003,2.137940e-003
2.404838e+003,2.079919e-003
2.406766e+003,2.155960e-003
2.408695e+003,2.458852e-003
2.410623e+003,2.552720e-003
2.412552e+003,2.492484e-003
2.414480e+003,2.481643e-003
2.416409e+003,2.604721e-003
2.418337e+003,2.585016e-003
2.420266e+003,2.697038e-003
2.422194e+003,2.830187e-003
2.424123e+003,2.925353e-003
2.426051e+003,2.911607e-003
2.427979e+003,2.938179e-003
2.429908e+003,2.993271e-003
2.431837e+003,3.014272e-003
2.433765e+003,2.965085e-003
2.435694e+003,2.975930e-003
2.437622e+003,3.012449e-003
2.439551e+003,2.994392e-003
2.441479e+003,2.911201e-003
2.443407e+003,2.957169e-003
2.445336e+003,3.030201e-003
2.447265e+003,3.194224e-003
2.449193e+003,3.207345e-003
2.451122e+003,3.139440e-003
2.453050e+003,3.092907e-003
2.454979e+003,3.174784e-003
2.456907e+003,3.206719e-003
2.458836e+003,2.999453e-003
2.460764e+003,2.762785e-003
2.462693e+003,2.752353e-003
2.464621e+003,2.752345e-003
2.466550e+003,2.768861e-003
2.468478e+003,2.816429e-003
2.470406e+003,2.828861e-003
2.472335e+003,2.724275e-003
2.474264e+003,2.778156e-003
2.476192e+003,2.809865e-003
2.478121e+003,2.833908e-003
2.480049e+003,2.880273e-003
2.481978e+003,2.926277e-003
2.483906e+003,3.013371e-003
2.485835e+003,3.029801e-003
2.487763e+003,3.024906e-003
2.489692e+003,3.015056e-003
2.491620e+003,2.962515e-003
2.493549e+003,3.062716e-003
2.495477e+003,3.013697e-003
2.497406e+003,2.987560e-003
2.499334e+003,3.107479e-003
2.501263e+003,3.064428e-003
2.503191e+003,2.859244e-003
2.505120e+003,2.917215e-003
2.507048e+003,3.026107e-003
2.508977e+003,3.107710e-003
2.510905e+003,3.157681e-003
2.512833e+003,3.263142e-003
2.514762e+003,3.236940e-003
2.516691e+003,3.245197e-003
2.518619e+003,3.520191e-003
2.520548e+003,3.709275e-003
2.522476e+003,3.638513e-003
2.524405e+003,3.619881e-003
2.526333e+003,3.681578e-003
2.528261e+003,3.760997e-003
2.530190e+003,3.946401e-003
2.532119e+003,4.182279e-003
2.534047e+003,4.267048e-003
2.535976e+003,4.366174e-003
2.537904e+003,4.404906e-003
2.539833e+003,4.406136e-003
2.541761e+003,4.342463e-003
2.543689e+003,4.485279e-003
2.545618e+003,4.720181e-003
2.547547e+003,4.801948e-003
2.549475e+003,4.778128e-003
2.551404e+003,4.878476e-003
2.553332e+003,4.881494e-003
2.555260e+003,4.929308e-003
2.557189e+003,5.119495e-003
2.559117e+003,5.311999e-003
2.561046e+003,5.435683e-003
2.562975e+003,5.492121e-003
2.564903e+003,5.531229e-003
2.566832e+003,5.811647e-003
2.568760e+003,6.027132e-003
2.570688e+003,6.060384e-003
2.572617e+003,6.218012e-003
2.574546e+003,6.641269e-003
2.576474e+003,7.026847e-003
2.578403e+003,7.239792e-003
2.580331e+003,7.368088e-003
2.582260e+003,7.486202e-003
2.584188e+003,7.379416e-003
2.586116e+003,7.091369e-003
2.588045e+003,6.832961e-003
2.589974e+003,6.725650e-003
2.591902e+003,6.556585e-003
2.593831e+003,6.598786e-003
2.595759e+003,6.664082e-003
2.597688e+003,6.723594e-003
2.599616e+003,6.733350e-003
2.601544e+003,6.787091e-003
2.603473e+003,6.945655e-003
2.605402e+003,7.297896e-003
2.607330e+003,7.522792e-003
2.609259e+003,7.803399e-003
2.611187e+003,8.080985e-003
2.613115e+003,8.215990e-003
2.615044e+003,8.338895e-003
2.616972e+003,8.455154e-003
2.618901e+003,8.450329e-003
2.620830e+003,8.425407e-003
2.622758e+003,8.439716e-003
2.624687e+003,8.396424e-003
2.626615e+003,8.347016e-003
2.628543e+003,8.349609e-003
2.630472e+003,8.383818e-003
2.632400e+003,8.430630e-003
2.634329e+003,8.422669e-003
2.636258e+003,8.543983e-003
2.638186e+003,8.712590e-003
2.640115e+003,8.875199e-003
2.642043e+003,9.050585e-003
2.643971e+003,9.196158e-003
2.645900e+003,9.372871e-003
2.647828e+003,9.580258e-003
2.649757e+003,9.721283e-003
2.651686e+003,9.863235e-003
2.653614e+003,1.001991e-002
2.655542e+003,1.016924e-002
2.657471e+003,1.029785e-002
2.659399e+003,1.029776e-002
2.661328e+003,1.005785e-002
2.663256e+003,9.727616e-003
2.665185e+003,9.459637e-003
2.667114e+003,9.329010e-003
2.669042e+003,9.271644e-003
2.670970e+003,9.289641e-003
2.672899e+003,9.376172e-003
2.674827e+003,9.498406e-003
2.676756e+003,9.599097e-003
2.678685e+003,9.593222e-003
2.680613e+003,9.499036e-003
2.682542e+003,9.501707e-003
2.684470e+003,9.543404e-003
2.686398e+003,9.589020e-003
2.688327e+003,9.613249e-003
2.690255e+003,9.620313e-003
2.692184e+003,9.546950e-003
2.694113e+003,9.520050e-003
2.696041e+003,9.657588e-003
2.697969e+003,9.801354e-003
2.699898e+003,9.937435e-003
2.701826e+003,1.018446e-002
2.703755e+003,1.048033e-002
2.705683e+003,1.079520e-002
2.707612e+003,1.109298e-002
2.709541e+003,1.149188e-002
2.711469e+003,1.198242e-002
2.713397e+003,1.256014e-002
2.715326e+003,1.331372e-002
2.717254e+003,1.426871e-002
2.719183e+003,1.516692e-002
2.721111e+003,1.571645e-002
2.723040e+003,1.564821e-002
2.724969e+003,1.507533e-002
2.726897e+003,1.429404e-002
2.728825e+003,1.353576e-002
2.730754e+003,1.297612e-002
2.732682e+003,1.265257e-002
2.734611e+003,1.237225e-002
2.736539e+003,1.203844e-002
2.738468e+003,1.171489e-002
2.740396e+003,1.141587e-002
2.742325e+003,1.113988e-002
2.744253e+003,1.093221e-002
2.746182e+003,1.082678e-002
2.748110e+003,1.080051e-002
2.750039e+003,1.076937e-002
2.751967e+003,1.080823e-002
2.753896e+003,1.093268e-002
2.755824e+003,1.115166e-002
2.757753e+003,1.136253e-002
2.759681e+003,1.155785e-002
2.761610e+003,1.180775e-002
2.763538e+003,1.204127e-002
2.765467e+003,1.222544e-002
2.767395e+003,1.242884e-002
2.769324e+003,1.263074e-002
2.771252e+003,1.288163e-002
2.773181e+003,1.321358e-002
2.775109e+003,1.359743e-002
2.777038e+003,1.405166e-002
2.778966e+003,1.452115e-002
2.780895e+003,1.509503e-002
2.782823e+003,1.586192e-002
2.784752e+003,1.668604e-002
2.786680e+003,1.759397e-002
2.788609e+003,1.856840e-002
2.790537e+003,1.960167e-002
2.792466e+003,2.052681e-002
2.794394e+003,2.127258e-002
2.796323e+003,2.185411e-002
2.798251e+003,2.247535e-002
2.800180e+003,2.343852e-002
2.802108e+003,2.488131e-002
2.804037e+003,2.666659e-002
2.805965e+003,2.845324e-002
2.807894e+003,2.998447e-002
2.809822e+003,3.141634e-002
2.811751e+003,3.285453e-002
2.813679e+003,3.441316e-002
2.815608e+003,3.629012e-002
2.817536e+003,3.867342e-002
2.819465e+003,4.159732e-002
2.821393e+003,4.526626e-002
2.823322e+003,5.000817e-002
2.825250e+003,5.635472e-002
2.827179e+003,6.532741e-002
2.829107e+003,7.870360e-002
2.831036e+003,9.840961e-002
2.832964e+003,1.246192e-001
2.834893e+003,1.523966e-001
2.836821e+003,1.714550e-001
2.838750e+003,1.740312e-001
2.840678e+003,1.606088e-001
2.842607e+003,1.379247e-001
2.844535e+003,1.143328e-001
2.846464e+003,9.520693e-002
2.848392e+003,8.179844e-002
2.850321e+003,7.339963e-002
2.852249e+003,6.932478e-002
2.854178e+003,6.935340e-002
2.856106e+003,7.428616e-002
2.858035e+003,8.563734e-002
2.859963e+003,1.055183e-001
2.861892e+003,1.333275e-001
2.863820e+003,1.600630e-001
2.865749e+003,1.731240e-001
2.867677e+003,1.708468e-001
2.869606e+003,1.625208e-001
2.871534e+003,1.558514e-001
2.873463e+003,1.540048e-001
2.875391e+003,1.566908e-001
2.877320e+003,1.591979e-001
2.879248e+003,1.575229e-001
2.881177e+003,1.530330e-001
2.883105e+003,1.486047e-001
2.885034e+003,1.454396e-001
2.886962e+003,1.434512e-001
2.888891e+003,1.426019e-001
2.890819e+003,1.436751e-001
2.892748e+003,1.480556e-001
2.894676e+003,1.564248e-001
2.896605e+003,1.689131e-001
2.898533e+003,1.848854e-001
2.900462e+003,2.031842e-001
2.902390e+003,2.226182e-001
2.904319e+003,2.414658e-001
2.906247e+003,2.576035e-001
2.908176e+003,2.715505e-001
2.910104e+003,2.884636e-001
2.912033e+003,3.142151e-001
2.913961e+003,3.462541e-001
2.915890e+003,3.696339e-001
2.917818e+003,3.688210e-001
2.919747e+003,3.463516e-001
2.921675e+003,3.173210e-001
2.923604e+003,2.901090e-001
2.925532e+003,2.629071e-001
2.927461e+003,2.326363e-001
2.929389e+003,2.008689e-001
2.931318e+003,1.719308e-001
2.933246e+003,1.494033e-001
2.935175e+003,1.349236e-001
2.937103e+003,1.293289e-001
2.939032e+003,1.338540e-001
2.940960e+003,1.507448e-001
2.942889e+003,1.818290e-001
2.944817e+003,2.241457e-001
2.946746e+003,2.672511e-001
2.948674e+003,2.939252e-001
2.950603e+003,2.905946e-001
2.952531e+003,2.637424e-001
2.954460e+003,2.351336e-001
2.956388e+003,2.205581e-001
2.958317e+003,2.190666e-001
2.960245e+003,2.171657e-001
2.962174e+003,2.012346e-001
2.964102e+003,1.729538e-001
2.966031e+003,1.432316e-001
2.967959e+003,1.163625e-001
2.969888e+003,9.247333e-002
2.971816e+003,7.229183e-002
2.973745e+003,5.608180e-002
2.975673e+003,4.349564e-002
2.977602e+003,3.394142e-002
2.979530e+003,2.668677e-002
2.981459e+003,2.112945e-002
2.983387e+003,1.689021e-002
2.985316e+003,1.363446e-002
2.987244e+003,1.109607e-002
2.989173e+003,9.120911e-003
2.991101e+003,7.574104e-003
2.993030e+003,6.359581e-003
2.994958e+003,5.376138e-003
2.996887e+003,4.505169e-003
2.998815e+003,3.814127e-003
3.000744e+003,3.263589e-003
3.002672e+003,2.847597e-003
3.004601e+003,2.443623e-003
3.006529e+003,2.049707e-003
3.008458e+003,1.691259e-003
3.010386e+003,1.335833e-003
3.012315e+003,9.986460e-004
3.014243e+003,8.553676e-004
3.016172e+003,7.077977e-004
3.018100e+003,4.791506e-004
3.020029e+003,3.238805e-004
3.021957e+003,2.076887e-004
3.023886e+003,-3.084540e-006
3.025814e+003,-7.545203e-005
3.027743e+003,-1.046658e-004
3.029671e+003,-2.711713e-004
3.031600e+003,-3.314428e-004
3.033528e+003,-2.985038e-004
3.035457e+003,-3.662296e-004
3.037385e+003,-3.735535e-004
3.039314e+003,-3.343858e-004
3.041242e+003,-3.635846e-004
3.043171e+003,-3.630482e-004
3.045099e+003,-2.519712e-004
3.047028e+003,-1.734532e-004
3.048956e+003,-2.001487e-004
3.050885e+003,-2.128333e-004
3.052813e+003,-1.497678e-004
3.054742e+003,-1.553595e-004
3.056670e+003,-1.887865e-004
3.058599e+003,-1.711622e-004
3.060527e+003,-1.365095e-004
3.062456e+003,-1.524501e-004
3.064384e+003,-2.715327e-004
3.066313e+003,-2.688766e-004
3.068241e+003,-2.046041e-004
3.070170e+003,-2.035834e-004
3.072098e+003,-2.461262e-004
3.074027e+003,-2.418831e-004
3.075955e+003,-1.703091e-004
3.077884e+003,-1.463890e-004
3.079812e+003,-2.258755e-004
3.081741e+003,-2.104752e-004
3.083669e+003,-8.267164e-005
3.085598e+003,-6.212294e-005
3.087526e+003,-4.418194e-005
3.089455e+003,1.550466e-005
3.091383e+003,1.004487e-004
3.093312e+003,1.305602e-004
3.095240e+003,1.543574e-004
3.097169e+003,1.826249e-004
3.099097e+003,1.942292e-004
3.101026e+003,1.523271e-004
3.102954e+003,1.966171e-004
3.104883e+003,2.287775e-004
3.106811e+003,2.893843e-004
3.108740e+003,3.233366e-004
3.110668e+003,3.872551e-004
3.112597e+003,4.113354e-004
3.114525e+003,4.641190e-004
3.116454e+003,5.910695e-004
3.118382e+003,6.524473e-004
3.120311e+003,6.081797e-004
3.122239e+003,6.739013e-004
3.124168e+003,7.665642e-004
3.126096e+003,7.735826e-004
3.128025e+003,7.921308e-004
3.129953e+003,8.538514e-004
3.131882e+003,9.978265e-004
3.133810e+003,1.143377e-003
3.135739e+003,1.215398e-003
3.137667e+003,1.241542e-003
3.139596e+003,1.223903e-003
3.141524e+003,1.239683e-003
3.143453e+003,1.273293e-003
3.145381e+003,1.364380e-003
3.147310e+003,1.361262e-003
3.149238e+003,1.331903e-003
3.151167e+003,1.310248e-003
3.153095e+003,1.322038e-003
3.155024e+003,1.377024e-003
3.156952e+003,1.333684e-003
3.158881e+003,1.265064e-003
3.160809e+003,1.291186e-003
3.162738e+003,1.306869e-003
3.164666e+003,1.227077e-003
3.166594e+003,1.248248e-003
3.168523e+003,1.343302e-003
3.170452e+003,1.329929e-003
3.172380e+003,1.300514e-003
3.174309e+003,1.295973e-003
3.176237e+003,1.384884e-003
3.178166e+003,1.449820e-003
3.180094e+003,1.443841e-003
3.182022e+003,1.523655e-003
3.183951e+003,1.592707e-003
3.185880e+003,1.613759e-003
3.187808e+003,1.738343e-003
3.189737e+003,1.785323e-003
3.191665e+003,1.746040e-003
3.193594e+003,1.838978e-003
3.195522e+003,1.855109e-003
3.197450e+003,1.852803e-003
3.199379e+003,1.868617e-003
3.201308e+003,1.820505e-003
3.203236e+003,1.728252e-003
3.205165e+003,1.683392e-003
3.207093e+003,1.743801e-003
3.209021e+003,1.700744e-003
3.210950e+003,1.540340e-003
3.212878e+003,1.419134e-003
3.214807e+003,1.346391e-003
3.216736e+003,1.288060e-003
3.218664e+003,1.248229e-003
3.220593e+003,1.252528e-003
3.222521e+003,1.264423e-003
3.224449e+003,1.169361e-003
3.226378e+003,9.698011e-004
3.228307e+003,8.243322e-004
3.230235e+003,8.964948e-004
3.232164e+003,9.639971e-004
3.234092e+003,8.575507e-004
3.236021e+003,7.295534e-004
3.237949e+003,7.705539e-004
3.239877e+003,8.342601e-004
3.241806e+003,8.102134e-004
3.243735e+003,8.141398e-004
3.245663e+003,7.773116e-004
3.247592e+003,6.941222e-004
3.249520e+003,6.854385e-004
3.251448e+003,6.628856e-004
3.253377e+003,7.802732e-004
3.255305e+003,8.758269e-004
3.257234e+003,8.945614e-004
3.259163e+003,8.523799e-004
3.261091e+003,9.039529e-004
3.263020e+003,1.016941e-003
3.264948e+003,1.079712e-003
3.266876e+003,1.066167e-003
3.268805e+003,1.022711e-003
3.270733e+003,1.014818e-003
3.272662e+003,1.077831e-003
3.274591e+003,1.068156e-003
3.276519e+003,1.056902e-003
3.278448e+003,1.041058e-003
3.280376e+003,1.081489e-003
3.282304e+003,1.097329e-003
3.284233e+003,1.076531e-003
3.286161e+003,1.050770e-003
3.288090e+003,1.181971e-003
3.290019e+003,1.254722e-003
3.291947e+003,1.137212e-003
3.293875e+003,1.102645e-003
3.295804e+003,1.124617e-003
3.297732e+003,1.051277e-003
3.299661e+003,1.036182e-003
3.301589e+003,1.101188e-003
3.303518e+003,1.227159e-003
3.305447e+003,1.277905e-003
3.307375e+003,1.171015e-003
3.309303e+003,1.143396e-003
3.311232e+003,1.170784e-003
3.313160e+003,1.176149e-003
3.315089e+003,1.092922e-003
3.317018e+003,1.075029e-003
3.318946e+003,1.111720e-003
3.320875e+003,1.053467e-003
3.322803e+003,1.131572e-003
3.324731e+003,1.291584e-003
3.326660e+003,1.325984e-003
3.328588e+003,1.374274e-003
3.330517e+003,1.437522e-003
3.332446e+003,1.434170e-003
3.334374e+003,1.453921e-003
3.336302e+003,1.542479e-003
3.338231e+003,1.513764e-003
3.340159e+003,1.431528e-003
3.342088e+003,1.500025e-003
3.344016e+003,1.477167e-003
3.345945e+003,1.499955e-003
3.347874e+003,1.462195e-003
3.349802e+003,1.385171e-003
3.351730e+003,1.433350e-003
3.353659e+003,1.494624e-003
3.355587e+003,1.484830e-003
3.357516e+003,1.408659e-003
3.359444e+003,1.402698e-003
3.361373e+003,1.412224e-003
3.363302e+003,1.330014e-003
3.365230e+003,1.329731e-003
3.367158e+003,1.323242e-003
3.369087e+003,1.290984e-003
3.371015e+003,1.223121e-003
3.372944e+003,1.271591e-003
3.374872e+003,1.291998e-003
3.376801e+003,1.220785e-003
3.378729e+003,1.171291e-003
3.380658e+003,1.154054e-003
3.382586e+003,1.200058e-003
3.384515e+003,1.353089e-003
3.386443e+003,1.383312e-003
3.388372e+003,1.354571e-003
3.390300e+003,1.285058e-003
3.392229e+003,1.114152e-003
3.394157e+003,1.063302e-003
3.396086e+003,1.183953e-003
3.398014e+003,1.241300e-003
3.399943e+003,1.186602e-003
3.401871e+003,1.216378e-003
3.403800e+003,1.260702e-003
3.405728e+003,1.279619e-003
3.407657e+003,1.294710e-003
3.409585e+003,1.330305e-003
3.411514e+003,1.370132e-003
3.413442e+003,1.389142e-003
3.415371e+003,1.421459e-003
3.417299e+003,1.383118e-003
3.419228e+003,1.307383e-003
3.421156e+003,1.344956e-003
3.423085e+003,1.288973e-003
3.425013e+003,1.269396e-003
3.426942e+003,1.272026e-003
3.428870e+003,1.104832e-003
3.430799e+003,1.066379e-003
3.432727e+003,1.145985e-003
3.434656e+003,1.132127e-003
3.436584e+003,1.078490e-003
3.438513e+003,1.044150e-003
3.440441e+003,1.073297e-003
3.442370e+003,1.123276e-003
3.444298e+003,1.079842e-003
3.446227e+003,1.130462e-003
3.448155e+003,1.159836e-003
3.450084e+003,8.715428e-004
3.452012e+003,8.030087e-004
3.453941e+003,9.448007e-004
3.455869e+003,9.788424e-004
3.457798e+003,9.697229e-004
3.459726e+003,9.378046e-004
3.461655e+003,9.066723e-004
3.463583e+003,8.794069e-004
3.465512e+003,9.424612e-004
3.467440e+003,9.725764e-004
3.469369e+003,9.071678e-004
3.471297e+003,8.454733e-004
3.473226e+003,9.180084e-004
3.475154e+003,9.406880e-004
3.477083e+003,8.599162e-004
3.479011e+003,8.443594e-004
3.480940e+003,9.434186e-004
3.482868e+003,8.714162e-004
3.484797e+003,7.640235e-004
3.486725e+003,7.953607e-004
3.488654e+003,7.699467e-004
3.490582e+003,7.199608e-004
3.492511e+003,7.122383e-004
3.494439e+003,6.876811e-004
3.496368e+003,7.323064e-004
3.498296e+003,7.774420e-004
3.500225e+003,7.477403e-004
3.502153e+003,8.584298e-004
3.504082e+003,8.240715e-004
3.506010e+003,5.817413e-004
3.507939e+003,5.860925e-004
3.509867e+003,7.796809e-004
3.511796e+003,7.807910e-004
3.513724e+003,6.871596e-004
3.515653e+003,6.369911e-004
3.517581e+003,6.765425e-004
3.519510e+003,6.342269e-004
3.521438e+003,6.727315e-004
3.523367e+003,7.413439e-004
3.525295e+003,6.490648e-004
3.527224e+003,6.758496e-004
3.529152e+003,6.440021e-004
3.531081e+003,6.101876e-004
3.533009e+003,5.271584e-004
3.534938e+003,4.645400e-004
3.536866e+003,5.518608e-004
3.538795e+003,5.455725e-004
3.540723e+003,5.991943e-004
3.542652e+003,5.877279e-004
3.544580e+003,5.495064e-004
3.546509e+003,4.940666e-004
3.548437e+003,2.756082e-004
3.550366e+003,2.089404e-004
3.552294e+003,3.180467e-004
3.554223e+003,3.036968e-004
3.556151e+003,1.290813e-004
3.558080e+003,6.024539e-005
3.560008e+003,1.538210e-004
3.561937e+003,1.945086e-004
3.563865e+003,2.105832e-004
3.565794e+003,2.312735e-004
3.567722e+003,2.108589e-004
3.569651e+003,-1.413971e-004
3.571579e+003,-2.351291e-004
3.573508e+003,-6.655231e-005
3.575436e+003,1.953170e-005
3.577365e+003,4.667789e-006
3.579293e+003,-4.343688e-006
3.581222e+003,-4.770234e-005
3.583150e+003,-5.749613e-005
3.585079e+003,-2.865866e-005
3.587007e+003,2.914406e-004
3.588936e+003,2.480149e-004
3.590864e+003,-1.460314e-005
3.592793e+003,1.916550e-004
3.594721e+003,3.866442e-004
3.596650e+003,1.858473e-004
3.598578e+003,1.167022e-004
3.600507e+003,1.483336e-004
3.602435e+003,1.290999e-004
3.604364e+003,1.617447e-004
3.606292e+003,2.392083e-004
3.608221e+003,2.520010e-004
3.610149e+003,6.307289e-005
3.612078e+003,7.775053e-005
3.614006e+003,1.545809e-004
3.615935e+003,4.079565e-005
3.617863e+003,7.781014e-005
3.619792e+003,2.281182e-004
3.621720e+003,9.465218e-005
3.623649e+003,2.098940e-004
3.625577e+003,4.247166e-004
3.627506e+003,6.738454e-004
3.629434e+003,8.337088e-004
3.631363e+003,1.444221e-004
3.633291e+003,1.188032e-004
3.635220e+003,3.418289e-004
3.637148e+003,4.202724e-004
3.639077e+003,6.035008e-004
3.641005e+003,6.625466e-004
3.642934e+003,7.093512e-004
3.644862e+003,7.880405e-004
3.646791e+003,1.250003e-003
3.648719e+003,1.371697e-003
3.650648e+003,1.035620e-003
3.652576e+003,2.994202e-004
3.654505e+003,3.957003e-005
3.656433e+003,4.032962e-004
3.658362e+003,3.822371e-004
3.660290e+003,4.420690e-004
3.662219e+003,6.252080e-004
3.664147e+003,6.000847e-004
3.666076e+003,6.316118e-004
3.668004e+003,1.009833e-003
3.669933e+003,1.482397e-003
3.671861e+003,8.567236e-004
3.673790e+003,5.304888e-004
3.675718e+003,1.066752e-003
3.677647e+003,6.152242e-004
3.679575e+003,7.122941e-004
3.681504e+003,9.897836e-004
3.683432e+003,1.244355e-003
3.685361e+003,1.438320e-003
3.687289e+003,1.779206e-003
3.689218e+003,1.648143e-003
3.691146e+003,1.084313e-003
3.693075e+003,1.024660e-003
3.695003e+003,1.287479e-003
3.696932e+003,1.388784e-003
3.698860e+003,1.269195e-003
3.700789e+003,1.608279e-003
3.702717e+003,1.657572e-003
3.704646e+003,1.405079e-003
3.706574e+003,1.537088e-003
3.708503e+003,1.776509e-003
3.710431e+003,1.906462e-003
3.712360e+003,1.549069e-003
3.714288e+003,1.267448e-003
3.716217e+003,1.334239e-003
3.718145e+003,1.626696e-003
3.720074e+003,1.710512e-003
3.722002e+003,1.773316e-003
3.723931e+003,1.770299e-003
3.725859e+003,1.832429e-003
3.727788e+003,1.859874e-003
3.729716e+003,1.829512e-003
3.731645e+003,2.083331e-003
3.733573e+003,2.205838e-003
3.735502e+003,2.204426e-003
3.737430e+003,1.770116e-003
3.739359e+003,1.854807e-003
3.741287e+003,2.269059e-003
3.743216e+003,2.921134e-003
3.745144e+003,3.230631e-003
3.747073e+003,2.248876e-003
3.749001e+003,2.241179e-003
3.750930e+003,2.468374e-003
3.752858e+003,2.282951e-003
3.754787e+003,2.123769e-003
3.756715e+003,2.236623e-003
3.758644e+003,2.376702e-003
3.760572e+003,2.646446e-003
3.762501e+003,2.411492e-003
3.764429e+003,2.423119e-003
3.766358e+003,2.392296e-003
3.768286e+003,2.281107e-003
3.770215e+003,2.388645e-003
3.772143e+003,2.239957e-003
3.774072e+003,2.278589e-003
3.776000e+003,2.324868e-003
3.777929e+003,2.264593e-003
3.779857e+003,2.386328e-003
3.781786e+003,2.274837e-003
3.783714e+003,2.264716e-003
3.785643e+003,2.255872e-003
3.787571e+003,2.129786e-003
3.789500e+003,2.166685e-003
3.791428e+003,2.266441e-003
3.793357e+003,2.314985e-003
3.795285e+003,2.570279e-003
3.797214e+003,2.608769e-003
3.799142e+003,2.258137e-003
3.801071e+003,2.483897e-003
3.802999e+003,2.099875e-003
3.804927e+003,1.787532e-003
3.806856e+003,2.360955e-003
3.808785e+003,2.388772e-003
3.810713e+003,2.421554e-003
3.812642e+003,2.565630e-003
3.814570e+003,2.917007e-003
3.816499e+003,3.211804e-003
3.818427e+003,2.575591e-003
3.820355e+003,2.482962e-003
3.822284e+003,2.463251e-003
3.824213e+003,2.082780e-003
3.826141e+003,2.292376e-003
3.828070e+003,2.558447e-003
3.829998e+003,2.691321e-003
3.831927e+003,3.046989e-003
3.833855e+003,2.983708e-003
3.835783e+003,2.811950e-003
3.837712e+003,2.821404e-003
3.839641e+003,2.571471e-003
3.841569e+003,2.178650e-003
3.843498e+003,2.398551e-003
3.845426e+003,2.588343e-003
3.847354e+003,2.770472e-003
3.849283e+003,3.023170e-003
3.851211e+003,3.187571e-003
3.853140e+003,3.638022e-003
3.855069e+003,2.846126e-003
3.856997e+003,2.396952e-003
3.858926e+003,2.448812e-003
3.860854e+003,2.761830e-003
3.862782e+003,3.032297e-003
3.864711e+003,3.172945e-003
3.866640e+003,2.779920e-003
3.868568e+003,2.804603e-003
3.870497e+003,2.872031e-003
3.872425e+003,2.438895e-003
3.874354e+003,2.769262e-003
3.876282e+003,2.624284e-003
3.878210e+003,2.713207e-003
3.880139e+003,3.183518e-003
3.882068e+003,2.908312e-003
3.883996e+003,2.751272e-003
3.885925e+003,3.082559e-003
3.887853e+003,2.727315e-003
3.889781e+003,2.734389e-003
3.891710e+003,2.991535e-003
3.893638e+003,2.839711e-003
3.895567e+003,2.776150e-003
3.897496e+003,3.023427e-003
3.899424e+003,3.171153e-003
3.901353e+003,2.998281e-003
3.903281e+003,2.896499e-003
3.905209e+003,2.776466e-003
3.907138e+003,2.597310e-003
3.909066e+003,2.652820e-003
3.910995e+003,2.907410e-003
3.912924e+003,3.059965e-003
3.914852e+003,3.085006e-003
3.916781e+003,3.046483e-003
3.918709e+003,2.878267e-003
3.920637e+003,2.859302e-003
3.922566e+003,2.755173e-003
3.924494e+003,2.954628e-003
3.926423e+003,3.099930e-003
3.928352e+003,3.052283e-003
3.930280e+003,3.061824e-003
3.932208e+003,2.967600e-003
3.934137e+003,2.760604e-003
3.936065e+003,2.765160e-003
3.937994e+003,2.906729e-003
3.939922e+003,2.865162e-003
3.941851e+003,2.952214e-003
3.943780e+003,2.885822e-003
3.945708e+003,2.711076e-003
3.947636e+003,2.773076e-003
3.949565e+003,2.843779e-003
3.951493e+003,2.776653e-003
3.953422e+003,2.768766e-003
3.955351e+003,2.886754e-003
3.957279e+003,3.014583e-003
3.959208e+003,3.007207e-003
3.961136e+003,3.006868e-003
3.963064e+003,2.898142e-003
3.964993e+003,2.772119e-003
3.966921e+003,2.856940e-003
3.968850e+003,2.948474e-003
3.970779e+003,3.066178e-003
3.972707e+003,3.090285e-003
3.974635e+003,3.079496e-003
3.976564e+003,3.052380e-003
3.978492e+003,3.056522e-003
3.980421e+003,3.039300e-003
3.982349e+003,2.978634e-003
3.984278e+003,2.993491e-003
3.986207e+003,3.218077e-003
3.988135e+003,3.319230e-003
3.990063e+003,3.333449e-003
3.991992e+003,3.386993e-003
3.993920e+003,3.385141e-003
3.995849e+003,3.366899e-003
3.997777e+003,3.274135e-003
3.999706e+003,3.234748e-003
4.001635e+003,0.000000e+000
