3.991992e+002,0.000000e+000
4.011277e+002,0.000000e+000
4.030562e+002,0.000000e+000
4.049846e+002,0.000000e+000
4.069131e+002,0.000000e+000
4.088416e+002,0.000000e+000
4.107701e+002,0.000000e+000
4.126986e+002,0.000000e+000
4.146271e+002,0.000000e+000
4.165556e+002,0.000000e+000
4.184841e+002,0.000000e+000
4.204126e+002,0.000000e+000
4.223411e+002,0.000000e+000
4.242697e+002,0.000000e+000
4.261982e+002,0.000000e+000
4.281266e+002,0.000000e+000
4.300551e+002,0.000000e+000
4.319836e+002,0.000000e+000
4.339121e+002,0.000000e+000
4.358406e+002,0.000000e+000
4.377691e+002,0.000000e+000
4.396976e+002,0.000000e+000
4.416261e+002,0.000000e+000
4.435546e+002,0.000000e+000
4.454831e+002,0.000000e+000
4.474116e+002,0.000000e+000
4.493401e+002,0.000000e+000
4.512686e+002,0.000000e+000
4.531971e+002,0.000000e+000
4.551256e+002,0.000000e+000
4.570541e+002,0.000000e+000
4.589826e+002,0.000000e+000
4.609111e+002,0.000000e+000
4.628396e+002,0.000000e+000
4.647681e+002,0.000000e+000
4.666966e+002,0.000000e+000
4.686251e+002,0.000000e+000
4.705536e+002,0.000000e+000
4.724821e+002,0.000000e+000
4.744106e+002,0.000000e+000
4.763391e+002,0.000000e+000
4.782676e+002,0.000000e+000
4.801961e+002,0.000000e+000
4.821246e+002,0.000000e+000
4.840531e+002,0.000000e+000
4.859816e+002,0.000000e+000
4.879101e+002,0.000000e+000
4.898386e+002,0.000000e+000
4.917671e+002,0.000000e+000
4.936956e+002,0.000000e+000
4.956241e+002,0.000000e+000
4.975526e+002,0.000000e+000
4.994811e+002,0.000000e+000
5.014096e+002,0.000000e+000
5.033381e+002,0.000000e+000
5.052666e+002,0.000000e+000
5.071951e+002,0.000000e+000
5.091236e+002,0.000000e+000
5.110521e+002,0.000000e+000
5.129806e+002,0.000000e+000
5.149091e+002,0.000000e+000
5.168376e+002,0.000000e+000
5.187661e+002,0.000000e+000
5.206946e+002,0.000000e+000
5.226230e+002,0.000000e+000
5.245516e+002,-4.768372e-007
5.264800e+002,2.086014e-004
5.284086e+002,3.751367e-005
5.303370e+002,-7.501990e-005
5.322656e+002,-1.358017e-004
5.341940e+002,-1.269281e-004
5.361226e+002,-2.357867e-004
5.380510e+002,-3.222600e-004
5.399796e+002,-4.320126e-004
5.419081e+002,-3.304016e-004
5.438365e+002,-2.611261e-004
5.457650e+002,-2.870709e-004
5.476935e+002,-4.799999e-004
5.496221e+002,-4.872326e-004
5.515505e+002,-3.874544e-004
5.534790e+002,-2.447199e-004
5.554075e+002,-2.313796e-004
5.573361e+002,-3.236793e-004
5.592645e+002,-4.623998e-004
5.611931e+002,-5.589705e-004
5.631215e+002,-5.697925e-004
5.650500e+002,-4.816335e-004
5.669785e+002,-5.204510e-004
5.689070e+002,-3.961399e-004
5.708355e+002,-3.763251e-004
5.727640e+002,-3.824364e-004
5.746925e+002,-3.985260e-004
5.766210e+002,-3.712066e-004
5.785495e+002,-4.559699e-004
5.804780e+002,-4.688706e-004
5.824065e+002,-4.904643e-004
5.843350e+002,-4.056953e-004
5.862635e+002,-3.362037e-004
5.881920e+002,-3.058724e-004
5.901205e+002,-3.967546e-004
5.920490e+002,-3.343467e-004
5.939775e+002,-3.339089e-004
5.959060e+002,-3.821999e-004
5.978345e+002,-3.630687e-004
5.997630e+002,-2.694204e-004
6.016915e+002,-2.171714e-004
6.036200e+002,-1.212992e-004
6.055485e+002,-1.108069e-004
6.074770e+002,-1.623891e-004
6.094055e+002,-2.779290e-004
6.113340e+002,-2.650414e-004
6.132625e+002,-2.872031e-004
6.151910e+002,-2.817791e-004
6.171195e+002,-3.706682e-004
6.190480e+002,-3.495310e-004
6.209765e+002,-2.269354e-004
6.229050e+002,-1.866668e-004
6.248335e+002,-1.461580e-004
6.267620e+002,-5.091354e-005
6.286905e+002,-7.634424e-005
6.306190e+002,-8.870848e-005
6.325475e+002,-6.699003e-005
6.344760e+002,3.848784e-005
6.364045e+002,1.093950e-004
6.383330e+002,1.308527e-004
6.402615e+002,1.001693e-004
6.421899e+002,1.448281e-004
6.441185e+002,9.522215e-005
6.460470e+002,1.089834e-004
6.479755e+002,7.958524e-005
6.499039e+002,6.720610e-005
6.518325e+002,4.544295e-005
6.537610e+002,1.096297e-004
6.556895e+002,9.365380e-005
6.576179e+002,1.130272e-004
6.595464e+002,7.123873e-005
6.614750e+002,-3.993511e-006
6.634034e+002,-3.907084e-005
6.653319e+002,3.417209e-005
6.672604e+002,6.794184e-005
6.691890e+002,1.528431e-004
6.711174e+002,1.290496e-004
6.730460e+002,1.002494e-004
6.749745e+002,1.212582e-005
6.769030e+002,-7.010996e-006
6.788314e+002,-1.468137e-005
6.807599e+002,4.844181e-005
6.826885e+002,9.389222e-005
6.846169e+002,1.930241e-004
6.865454e+002,1.936127e-004
6.884739e+002,1.771599e-004
6.904025e+002,1.708213e-004
6.923309e+002,1.994055e-004
6.942594e+002,1.754649e-004
6.961879e+002,2.437737e-004
6.981165e+002,2.889801e-004
7.000449e+002,2.804007e-004
7.019734e+002,2.789833e-004
7.039019e+002,3.263801e-004
7.058304e+002,3.119539e-004
7.077589e+002,3.251415e-004
7.096874e+002,3.043823e-004
7.116159e+002,3.375001e-004
7.135444e+002,3.943499e-004
7.154729e+002,4.466027e-004
7.174014e+002,4.092809e-004
7.193299e+002,4.090592e-004
7.212584e+002,4.155133e-004
7.231869e+002,5.027093e-004
7.251154e+002,4.820228e-004
7.270439e+002,4.514270e-004
7.289724e+002,4.409291e-004
7.309009e+002,5.260166e-004
7.328294e+002,5.773157e-004
7.347579e+002,6.482676e-004
7.366864e+002,6.291717e-004
7.386149e+002,6.315559e-004
7.405434e+002,6.152280e-004
7.424719e+002,6.191041e-004
7.444004e+002,6.136112e-004
7.463289e+002,6.374046e-004
7.482574e+002,6.852858e-004
7.501859e+002,7.358994e-004
7.521144e+002,6.975867e-004
7.540428e+002,7.543080e-004
7.559714e+002,7.350594e-004
7.578999e+002,7.685535e-004
7.598284e+002,8.267239e-004
7.617568e+002,9.128638e-004
7.636854e+002,8.983947e-004
7.656139e+002,9.245556e-004
7.675424e+002,9.872168e-004
7.694709e+002,1.056125e-003
7.713994e+002,1.095643e-003
7.733279e+002,1.096711e-003
7.752563e+002,1.065673e-003
7.771849e+002,1.126043e-003
7.791134e+002,1.163531e-003
7.810419e+002,1.254469e-003
7.829703e+002,1.395714e-003
7.848989e+002,1.680203e-003
7.868274e+002,1.901753e-003
7.887559e+002,2.055578e-003
7.906843e+002,2.222884e-003
7.926129e+002,2.516896e-003
7.945414e+002,2.777267e-003
7.964698e+002,3.067479e-003
7.983983e+002,3.426608e-003
8.003268e+002,3.914967e-003
8.022554e+002,4.581288e-003
8.041838e+002,5.848933e-003
8.061123e+002,7.796325e-003
8.080408e+002,9.456310e-003
8.099694e+002,9.301931e-003
8.118978e+002,7.509157e-003
8.138263e+002,5.433936e-003
8.157548e+002,4.190810e-003
8.176833e+002,3.580492e-003
8.196118e+002,3.383487e-003
8.215403e+002,3.316402e-003
8.234689e+002,3.349632e-003
8.253973e+002,3.374841e-003
8.273258e+002,3.679179e-003
8.292543e+002,4.048429e-003
8.311829e+002,4.512381e-003
8.331113e+002,5.091496e-003
8.350398e+002,6.356675e-003
8.369683e+002,9.636190e-003
8.388969e+002,1.671101e-002
8.408253e+002,2.092301e-002
8.427538e+002,1.537570e-002
8.446823e+002,8.545604e-003
8.466108e+002,5.543243e-003
8.485393e+002,4.324690e-003
8.504678e+002,3.715854e-003
8.523963e+002,3.380686e-003
8.543248e+002,3.190711e-003
8.562533e+002,3.015347e-003
8.581818e+002,2.934162e-003
8.601103e+002,2.801169e-003
8.620388e+002,2.639290e-003
8.639673e+002,2.543442e-003
8.658958e+002,2.531998e-003
8.678243e+002,2.475765e-003
8.697528e+002,2.442904e-003
8.716813e+002,2.422452e-003
8.736098e+002,2.441350e-003
8.755383e+002,2.437059e-003
8.774668e+002,2.430677e-003
8.793953e+002,2.417035e-003
8.813238e+002,2.472848e-003
8.832523e+002,2.524238e-003
8.851808e+002,2.631143e-003
8.871093e+002,2.789989e-003
8.890378e+002,3.112923e-003
8.909663e+002,3.474966e-003
8.928948e+002,4.152108e-003
8.948232e+002,5.483922e-003
8.967518e+002,7.548962e-003
8.986803e+002,8.892424e-003
9.006088e+002,8.176643e-003
9.025372e+002,6.010924e-003
9.044658e+002,4.218526e-003
9.063943e+002,3.285855e-003
9.083228e+002,2.943840e-003
9.102512e+002,2.706468e-003
9.121797e+002,2.562299e-003
9.141083e+002,2.508756e-003
9.160367e+002,2.472326e-003
9.179653e+002,2.414640e-003
9.198937e+002,2.404377e-003
9.218223e+002,2.362724e-003
9.237507e+002,2.395637e-003
9.256793e+002,2.441112e-003
9.276077e+002,2.485834e-003
9.295363e+002,2.543475e-003
9.314647e+002,2.733197e-003
9.333932e+002,2.903022e-003
9.353217e+002,3.279924e-003
9.372502e+002,3.849898e-003
9.391787e+002,4.419629e-003
9.411072e+002,4.405588e-003
9.430358e+002,4.036568e-003
9.449642e+002,3.710527e-003
9.468928e+002,3.653511e-003
9.488212e+002,3.635712e-003
9.507498e+002,3.771830e-003
9.526782e+002,3.931984e-003
9.546068e+002,4.161619e-003
9.565352e+002,4.454087e-003
9.584637e+002,4.939452e-003
9.603922e+002,5.580038e-003
9.623207e+002,6.449446e-003
9.642492e+002,7.706530e-003
9.661777e+002,9.979300e-003
9.681062e+002,1.426323e-002
9.700347e+002,2.120185e-002
9.719632e+002,2.658949e-002
9.738917e+002,2.501649e-002
9.758202e+002,1.890957e-002
9.777487e+002,1.319000e-002
9.796772e+002,9.313785e-003
9.816057e+002,7.167671e-003
9.835342e+002,6.122638e-003
9.854627e+002,5.955961e-003
9.873912e+002,6.370950e-003
9.893197e+002,7.402249e-003
9.912482e+002,9.416573e-003
9.931767e+002,1.329060e-002
9.951052e+002,1.906678e-002
9.970337e+002,2.336377e-002
9.989622e+002,2.130359e-002
1.000891e+003,1.507998e-002
1.002819e+003,9.980265e-003
1.004748e+003,7.248007e-003
1.006676e+003,5.842496e-003
1.008605e+003,5.078360e-003
1.010533e+003,4.570618e-003
1.012462e+003,4.241161e-003
1.014390e+003,4.034217e-003
1.016319e+003,3.991697e-003
1.018247e+003,3.904969e-003
1.020176e+003,3.815174e-003
1.022104e+003,3.758732e-003
1.024033e+003,3.767002e-003
1.025961e+003,3.728937e-003
1.027890e+003,3.782749e-003
1.029818e+003,3.820542e-003
1.031747e+003,3.904954e-003
1.033675e+003,4.040789e-003
1.035604e+003,4.206002e-003
1.037532e+003,4.280940e-003
1.039461e+003,4.460271e-003
1.041389e+003,4.801303e-003
1.043318e+003,5.262636e-003
1.045246e+003,5.305443e-003
1.047175e+003,4.914347e-003
1.049103e+003,4.402533e-003
1.051032e+003,4.131760e-003
1.052960e+003,4.005421e-003
1.054889e+003,3.945187e-003
1.056817e+003,3.852237e-003
1.058746e+003,3.836967e-003
1.060674e+003,3.811691e-003
1.062603e+003,3.817074e-003
1.064531e+003,3.803279e-003
1.066460e+003,3.828324e-003
1.068388e+003,3.811765e-003
1.070317e+003,3.818713e-003
1.072245e+003,3.794435e-003
1.074174e+003,3.867786e-003
1.076102e+003,3.963988e-003
1.078031e+003,4.077446e-003
1.079959e+003,4.105724e-003
1.081888e+003,4.188590e-003
1.083816e+003,4.209638e-003
1.085745e+003,4.320405e-003
1.087673e+003,4.448481e-003
1.089602e+003,4.537247e-003
1.091530e+003,4.669525e-003
1.093459e+003,4.986413e-003
1.095387e+003,5.277369e-003
1.097316e+003,5.782228e-003
1.099244e+003,6.476659e-003
1.101173e+003,7.131748e-003
1.103101e+003,7.220034e-003
1.105030e+003,6.705247e-003
1.106958e+003,5.930025e-003
1.108887e+003,5.356871e-003
1.110815e+003,4.974280e-003
1.112744e+003,4.785679e-003
1.114672e+003,4.637051e-003
1.116601e+003,4.580673e-003
1.118529e+003,4.501689e-003
1.120458e+003,4.466340e-003
1.122386e+003,4.438415e-003
1.124315e+003,4.471611e-003
1.126243e+003,4.496407e-003
1.128172e+003,4.585352e-003
1.130100e+003,4.645471e-003
1.132029e+003,4.826427e-003
1.133957e+003,5.036235e-003
1.135885e+003,5.380519e-003
1.137814e+003,5.798582e-003
1.139743e+003,6.370816e-003
1.141671e+003,7.057209e-003
1.143600e+003,7.951502e-003
1.145528e+003,9.046268e-003
1.147457e+003,1.047966e-002
1.149385e+003,1.198858e-002
1.151314e+003,1.333211e-002
1.153242e+003,1.407542e-002
1.155171e+003,1.452890e-002
1.157099e+003,1.513157e-002
1.159028e+003,1.623365e-002
1.160956e+003,1.786262e-002
1.162885e+003,2.033355e-002
1.164813e+003,2.330798e-002
1.166742e+003,2.517243e-002
1.168670e+003,2.331755e-002
1.170599e+003,1.820075e-002
1.172527e+003,1.288302e-002
1.174456e+003,9.269387e-003
1.176384e+003,7.110607e-003
1.178313e+003,5.915798e-003
1.180241e+003,5.243212e-003
1.182170e+003,4.900835e-003
1.184098e+003,4.712503e-003
1.186027e+003,4.689794e-003
1.187955e+003,4.677102e-003
1.189884e+003,4.764922e-003
1.191812e+003,4.841976e-003
1.193740e+003,4.961476e-003
1.195669e+003,5.012061e-003
1.197598e+003,5.114432e-003
1.199526e+003,5.240504e-003
1.201455e+003,5.431484e-003
1.203383e+003,5.595647e-003
1.205312e+003,5.868755e-003
1.207240e+003,6.086998e-003
1.209168e+003,6.364167e-003
1.211097e+003,6.629147e-003
1.213026e+003,6.980870e-003
1.214954e+003,7.376835e-003
1.216883e+003,7.849589e-003
1.218811e+003,8.086503e-003
1.220740e+003,8.030985e-003
1.222668e+003,7.675730e-003
1.224596e+003,7.396545e-003
1.226525e+003,7.199086e-003
1.228453e+003,7.181924e-003
1.230382e+003,7.179979e-003
1.232311e+003,7.234011e-003
1.234239e+003,7.228855e-003
1.236167e+003,7.262520e-003
1.238096e+003,7.277060e-003
1.240025e+003,7.363800e-003
1.241953e+003,7.390801e-003
1.243882e+003,7.460661e-003
1.245810e+003,7.467430e-003
1.247739e+003,7.597737e-003
1.249667e+003,7.936493e-003
1.251595e+003,8.750517e-003
1.253524e+003,9.896170e-003
1.255453e+003,1.034749e-002
1.257381e+003,9.220667e-003
1.259310e+003,7.766452e-003
1.261238e+003,6.758407e-003
1.263167e+003,6.176133e-003
1.265095e+003,5.706262e-003
1.267023e+003,5.474348e-003
1.268952e+003,5.306289e-003
1.270880e+003,5.262263e-003
1.272809e+003,5.216893e-003
1.274738e+003,5.276211e-003
1.276666e+003,5.297553e-003
1.278594e+003,5.467374e-003
1.280523e+003,5.626816e-003
1.282451e+003,5.838718e-003
1.284380e+003,5.980216e-003
1.286308e+003,6.246220e-003
1.288237e+003,6.603688e-003
1.290166e+003,7.131834e-003
1.292094e+003,7.680990e-003
1.294022e+003,8.319743e-003
1.295951e+003,8.667301e-003
1.297879e+003,8.739412e-003
1.299808e+003,8.837845e-003
1.301736e+003,9.758793e-003
1.303665e+003,1.081904e-002
1.305594e+003,1.020867e-002
1.307522e+003,8.124128e-003
1.309450e+003,6.792624e-003
1.311379e+003,6.300729e-003
1.313307e+003,6.285202e-003
1.315236e+003,6.331306e-003
1.317164e+003,6.630581e-003
1.319093e+003,6.914187e-003
1.321021e+003,7.345475e-003
1.322950e+003,7.863551e-003
1.324878e+003,8.699920e-003
1.326807e+003,9.280495e-003
1.328735e+003,9.676874e-003
1.330664e+003,9.498019e-003
1.332592e+003,9.097289e-003
1.334521e+003,8.578509e-003
1.336449e+003,8.495599e-003
1.338378e+003,8.643117e-003
1.340306e+003,9.150654e-003
1.342235e+003,9.403460e-003
1.344163e+003,1.008475e-002
1.346092e+003,1.102044e-002
1.348021e+003,1.253380e-002
1.349949e+003,1.443527e-002
1.351877e+003,1.736478e-002
1.353806e+003,2.151452e-002
1.355734e+003,2.744400e-002
1.357663e+003,3.173614e-002
1.359591e+003,3.205035e-002
1.361520e+003,2.863324e-002
1.363448e+003,2.595919e-002
1.365377e+003,2.590083e-002
1.367305e+003,3.069601e-002
1.369234e+003,4.384822e-002
1.371162e+003,6.770176e-002
1.373091e+003,1.009901e-001
1.375019e+003,1.289673e-001
1.376948e+003,1.145142e-001
1.378876e+003,7.844149e-002
1.380805e+003,4.829342e-002
1.382733e+003,2.918647e-002
1.384662e+003,1.826786e-002
1.386590e+003,1.249791e-002
1.388519e+003,9.588771e-003
1.390447e+003,8.109666e-003
1.392376e+003,7.505648e-003
1.394304e+003,7.162679e-003
1.396233e+003,7.090338e-003
1.398161e+003,6.809175e-003
1.400090e+003,6.818369e-003
1.402018e+003,6.555919e-003
1.403947e+003,6.642550e-003
1.405875e+003,6.737441e-003
1.407804e+003,6.831832e-003
1.409732e+003,6.940398e-003
1.411661e+003,7.177744e-003
1.413589e+003,7.287603e-003
1.415518e+003,7.538121e-003
1.417446e+003,7.868752e-003
1.419375e+003,8.623976e-003
1.421303e+003,8.888386e-003
1.423232e+003,9.340059e-003
1.425160e+003,1.026581e-002
1.427089e+003,1.133100e-002
1.429017e+003,1.343502e-002
1.430946e+003,1.791680e-002
1.432874e+003,2.426124e-002
1.434803e+003,2.941761e-002
1.436731e+003,3.047859e-002
1.438660e+003,2.977994e-002
1.440588e+003,3.178862e-002
1.442517e+003,3.738143e-002
1.444445e+003,4.656671e-002
1.446374e+003,5.798559e-002
1.448302e+003,7.079378e-002
1.450231e+003,7.671159e-002
1.452159e+003,7.845731e-002
1.454088e+003,7.823361e-002
1.456016e+003,7.821094e-002
1.457945e+003,7.611590e-002
1.459873e+003,7.326889e-002
1.461802e+003,6.902435e-002
1.463730e+003,6.278680e-002
1.465659e+003,5.055617e-002
1.467587e+003,4.033887e-002
1.469516e+003,3.181827e-002
1.471444e+003,2.468933e-002
1.473373e+003,1.658116e-002
1.475301e+003,1.272769e-002
1.477230e+003,9.886809e-003
1.479158e+003,8.235779e-003
1.481087e+003,6.993745e-003
1.483015e+003,6.065954e-003
1.484944e+003,5.329195e-003
1.486872e+003,4.933566e-003
1.488801e+003,4.760437e-003
1.490729e+003,4.639279e-003
1.492658e+003,4.058570e-003
1.494586e+003,3.794670e-003
1.496515e+003,3.884029e-003
1.498443e+003,3.890652e-003
1.500372e+003,3.621265e-003
1.502300e+003,3.381472e-003
1.504229e+003,3.110200e-003
1.506157e+003,3.786720e-003
1.508086e+003,4.479859e-003
1.510014e+003,3.767993e-003
1.511943e+003,3.454734e-003
1.513871e+003,3.331125e-003
1.515800e+003,3.480621e-003
1.517728e+003,3.688168e-003
1.519657e+003,3.531933e-003
1.521585e+003,3.947072e-003
1.523514e+003,3.628697e-003
1.525442e+003,3.375769e-003
1.527371e+003,3.370404e-003
1.529299e+003,3.333151e-003
1.531228e+003,3.220759e-003
1.533156e+003,3.583781e-003
1.535085e+003,3.579050e-003
1.537013e+003,3.273282e-003
1.538942e+003,3.723569e-003
1.540870e+003,4.469950e-003
1.542799e+003,3.777001e-003
1.544727e+003,3.738351e-003
1.546656e+003,3.424216e-003
1.548584e+003,3.332928e-003
1.550513e+003,3.526375e-003
1.552441e+003,3.412846e-003
1.554370e+003,3.451359e-003
1.556298e+003,3.401373e-003
1.558227e+003,3.681343e-003
1.560155e+003,4.185844e-003
1.562084e+003,3.308915e-003
1.564012e+003,3.062785e-003
1.565941e+003,3.031038e-003
1.567869e+003,2.950206e-003
1.569798e+003,3.186777e-003
1.571726e+003,3.023766e-003
1.573655e+003,2.715766e-003
1.575583e+003,2.934434e-003
1.577512e+003,3.063258e-003
1.579440e+003,2.768818e-003
1.581369e+003,2.649885e-003
1.583297e+003,2.593331e-003
1.585226e+003,2.579514e-003
1.587154e+003,2.609614e-003
1.589083e+003,2.653997e-003
1.591011e+003,2.722312e-003
1.592940e+003,2.769370e-003
1.594868e+003,2.809994e-003
1.596797e+003,2.793878e-003
1.598725e+003,2.748571e-003
1.600654e+003,2.741866e-003
1.602582e+003,2.793923e-003
1.604511e+003,2.874576e-003
1.606439e+003,2.947014e-003
1.608368e+003,3.071111e-003
1.610296e+003,3.118023e-003
1.612225e+003,3.100391e-003
1.614153e+003,3.020048e-003
1.616082e+003,3.360879e-003
1.618010e+003,3.626198e-003
1.619939e+003,3.362395e-003
1.621867e+003,3.438782e-003
1.623796e+003,3.821827e-003
1.625724e+003,3.783938e-003
1.627653e+003,3.879432e-003
1.629581e+003,3.935475e-003
1.631510e+003,3.783628e-003
1.633438e+003,3.693048e-003
1.635367e+003,4.207369e-003
1.637295e+003,4.602551e-003
1.639224e+003,4.277918e-003
1.641152e+003,4.096739e-003
1.643081e+003,4.040930e-003
1.645009e+003,4.218783e-003
1.646938e+003,5.049903e-003
1.648866e+003,4.578538e-003
1.650795e+003,3.977705e-003
1.652723e+003,4.693676e-003
1.654652e+003,5.038094e-003
1.656580e+003,4.259937e-003
1.658509e+003,3.986944e-003
1.660437e+003,3.932144e-003
1.662366e+003,4.068878e-003
1.664294e+003,4.083168e-003
1.666223e+003,3.769908e-003
1.668151e+003,3.782265e-003
1.670080e+003,4.193358e-003
1.672008e+003,3.867194e-003
1.673937e+003,3.691260e-003
1.675865e+003,3.946710e-003
1.677794e+003,3.599420e-003
1.679722e+003,3.462642e-003
1.681651e+003,3.273636e-003
1.683579e+003,3.450390e-003
1.685508e+003,3.927313e-003
1.687436e+003,3.518943e-003
1.689365e+003,3.363252e-003
1.691293e+003,3.181547e-003
1.693222e+003,2.795074e-003
1.695150e+003,3.080897e-003
1.697079e+003,3.302537e-003
1.699007e+003,2.882890e-003
1.700936e+003,3.003776e-003
1.702864e+003,2.581239e-003
1.704793e+003,2.419598e-003
1.706721e+003,2.491735e-003
1.708650e+003,2.180673e-003
1.710578e+003,2.023868e-003
1.712507e+003,1.997367e-003
1.714435e+003,2.128080e-003
1.716364e+003,2.201349e-003
1.718292e+003,2.369694e-003
1.720221e+003,2.005272e-003
1.722149e+003,1.700699e-003
1.724078e+003,1.656763e-003
1.726006e+003,1.551524e-003
1.727935e+003,1.513943e-003
1.729863e+003,1.737356e-003
1.731792e+003,1.742333e-003
1.733720e+003,2.242714e-003
1.735649e+003,2.191976e-003
1.737577e+003,1.714870e-003
1.739506e+003,1.876570e-003
1.741434e+003,2.008237e-003
1.743363e+003,1.862220e-003
1.745291e+003,1.721323e-003
1.747220e+003,1.728721e-003
1.749148e+003,1.796946e-003
1.751077e+003,1.793653e-003
1.753005e+003,1.516551e-003
1.754934e+003,1.136281e-003
1.756862e+003,1.185268e-003
1.758791e+003,1.146525e-003
1.760719e+003,1.133457e-003
1.762648e+003,1.302704e-003
1.764576e+003,1.008086e-003
1.766505e+003,8.317977e-004
1.768433e+003,9.449497e-004
1.770362e+003,9.262711e-004
1.772290e+003,1.195066e-003
1.774219e+003,1.011126e-003
1.776147e+003,7.260218e-004
1.778076e+003,6.626174e-004
1.780004e+003,7.821098e-004
1.781933e+003,7.656291e-004
1.783861e+003,7.220432e-004
1.785790e+003,7.599667e-004
1.787718e+003,7.226393e-004
1.789646e+003,6.042272e-004
1.791575e+003,7.914081e-004
1.793504e+003,8.813739e-004
1.795432e+003,6.116703e-004
1.797361e+003,3.715828e-004
1.799289e+003,3.795475e-004
1.801218e+003,5.513355e-004
1.803146e+003,4.832968e-004
1.805074e+003,2.640188e-004
1.807003e+003,1.831502e-004
1.808932e+003,4.606694e-005
1.810860e+003,1.154467e-004
1.812789e+003,-5.429983e-005
1.814717e+003,-4.254207e-004
1.816646e+003,-6.142631e-004
1.818574e+003,-2.713352e-004
1.820502e+003,-9.536743e-005
1.822431e+003,-8.425862e-005
1.824360e+003,-3.598630e-005
1.826288e+003,5.723536e-005
1.828217e+003,-5.339831e-005
1.830145e+003,6.982684e-005
1.832073e+003,-8.841604e-005
1.834002e+003,-1.777411e-004
1.835931e+003,-1.954660e-004
1.837859e+003,-2.103075e-004
1.839788e+003,-3.588200e-004
1.841716e+003,-5.373582e-004
1.843645e+003,-3.972352e-004
1.845573e+003,-5.871803e-005
1.847501e+003,-1.742765e-004
1.849430e+003,-2.379119e-004
1.851359e+003,-2.897754e-004
1.853287e+003,-2.954453e-004
1.855216e+003,-4.194826e-004
1.857144e+003,-5.443841e-004
1.859073e+003,-5.992576e-004
1.861001e+003,-3.640875e-004
1.862929e+003,-3.447458e-004
1.864858e+003,-5.287975e-004
1.866787e+003,-8.694753e-004
1.868715e+003,-7.401779e-004
1.870644e+003,-6.676763e-004
1.872572e+003,-7.089302e-004
1.874500e+003,-8.461252e-004
1.876429e+003,-7.838234e-004
1.878357e+003,-7.716119e-004
1.880286e+003,-8.596256e-004
1.882215e+003,-8.703321e-004
1.884143e+003,-6.944388e-004
1.886072e+003,-7.759482e-004
1.888000e+003,-1.072004e-003
1.889928e+003,-1.067892e-003
1.891857e+003,-7.699952e-004
1.893785e+003,-9.185821e-004
1.895714e+003,-1.049034e-003
1.897643e+003,-1.274675e-003
1.899571e+003,-1.243532e-003
1.901500e+003,-1.234487e-003
1.903428e+003,-1.225457e-003
1.905356e+003,-1.216426e-003
1.907285e+003,-1.207404e-003
1.909213e+003,-1.198374e-003
1.911142e+003,-1.189359e-003
1.913071e+003,-1.180343e-003
1.914999e+003,-1.171336e-003
1.916927e+003,-1.162335e-003
1.918856e+003,-1.153328e-003
1.920784e+003,-1.144342e-003
1.922713e+003,-1.135349e-003
1.924641e+003,-1.126371e-003
1.926570e+003,-1.117378e-003
1.928499e+003,-1.108408e-003
1.930427e+003,-1.099437e-003
1.932355e+003,-1.090482e-003
1.934284e+003,-1.081511e-003
1.936212e+003,-1.072556e-003
1.938141e+003,-1.063608e-003
1.940070e+003,-1.054652e-003
1.941998e+003,-1.045711e-003
1.943927e+003,-1.036778e-003
1.945855e+003,-1.027845e-003
1.947783e+003,-1.018912e-003
1.949712e+003,-1.009986e-003
1.951640e+003,-1.001067e-003
1.953569e+003,-9.921566e-004
1.955498e+003,-9.832457e-004
1.957426e+003,-9.743348e-004
1.959354e+003,-9.654388e-004
1.961283e+003,-9.565353e-004
1.963211e+003,-9.476393e-004
1.965140e+003,-9.387583e-004
1.967068e+003,-9.298772e-004
1.968997e+003,-9.209961e-004
1.970926e+003,-9.121150e-004
1.972854e+003,-9.032488e-004
1.974782e+003,-8.943900e-004
1.976711e+003,-8.855313e-004
1.978639e+003,-8.766651e-004
1.980568e+003,-8.678213e-004
1.982496e+003,-8.589774e-004
1.984425e+003,-8.501336e-004
1.986354e+003,-8.412972e-004
1.988282e+003,-8.324683e-004
1.990210e+003,-8.236319e-004
1.992139e+003,-8.148104e-004
1.994067e+003,-8.059964e-004
1.995996e+003,-7.971898e-004
1.997924e+003,-7.883683e-004
1.999853e+003,-7.795766e-004
2.001781e+003,-7.707626e-004
2.003710e+003,-7.619783e-004
2.005638e+003,-7.531866e-004
2.007567e+003,-7.444024e-004
2.009495e+003,-7.356182e-004
2.011424e+003,-7.268339e-004
2.013352e+003,-7.180646e-004
2.015281e+003,-7.092953e-004
2.017209e+003,-7.005408e-004
2.019138e+003,-6.917790e-004
2.021066e+003,-6.830245e-004
2.022995e+003,-6.742775e-004
2.024923e+003,-6.655306e-004
2.026852e+003,-6.567910e-004
2.028781e+003,-6.480590e-004
2.030709e+003,-6.393269e-004
2.032637e+003,-6.306022e-004
2.034566e+003,-6.218776e-004
2.036494e+003,-6.131604e-004
2.038423e+003,-6.044507e-004
2.040351e+003,-5.957484e-004
2.042280e+003,-5.870312e-004
2.044208e+003,-5.783513e-004
2.046137e+003,-5.696490e-004
2.048065e+003,-5.609691e-004
2.049994e+003,-5.522817e-004
2.051922e+003,-5.436018e-004
2.053851e+003,-5.349219e-004
2.055779e+003,-5.262494e-004
2.057708e+003,-5.175844e-004
2.059636e+003,-5.089194e-004
2.061565e+003,-5.002618e-004
2.063493e+003,-4.916117e-004
2.065422e+003,-4.829690e-004
2.067350e+003,-4.743263e-004
2.069279e+003,-4.656836e-004
2.071207e+003,-4.570484e-004
2.073136e+003,-4.484281e-004
2.075064e+003,-4.398003e-004
2.076993e+003,-4.311800e-004
2.078921e+003,-4.225671e-004
2.080850e+003,-4.139543e-004
2.082778e+003,-4.053563e-004
2.084707e+003,-3.967509e-004
2.086635e+003,-3.881529e-004
2.088564e+003,-3.795624e-004
2.090492e+003,-3.709719e-004
2.092421e+003,-3.623962e-004
2.094349e+003,-3.538132e-004
2.096278e+003,-3.452450e-004
2.098206e+003,-3.366619e-004
2.100135e+003,-3.281087e-004
2.102063e+003,-3.195480e-004
2.103992e+003,-3.109947e-004
2.105920e+003,-3.024489e-004
2.107849e+003,-2.938956e-004
2.109777e+003,-2.853647e-004
2.111706e+003,-2.768263e-004
2.113634e+003,-2.682880e-004
2.115563e+003,-2.597570e-004
2.117491e+003,-2.512336e-004
2.119420e+003,-2.427250e-004
2.121348e+003,-2.342090e-004
2.123277e+003,-2.257004e-004
2.125205e+003,-2.172068e-004
2.127134e+003,-2.086982e-004
2.129062e+003,-2.002046e-004
2.130991e+003,-1.917034e-004
2.132919e+003,-1.832321e-004
2.134848e+003,-1.747459e-004
2.136776e+003,-1.662746e-004
2.138705e+003,-1.577958e-004
2.140633e+003,-1.493394e-004
2.142562e+003,-1.408681e-004
2.144490e+003,-1.324117e-004
2.146419e+003,-1.239553e-004
2.148347e+003,-1.155138e-004
2.150276e+003,-1.070648e-004
2.152204e+003,-9.862334e-005
2.154133e+003,-9.019673e-005
2.156061e+003,-8.175522e-005
2.157990e+003,-7.333606e-005
2.159918e+003,-6.491691e-005
2.161847e+003,-5.650520e-005
2.163775e+003,-4.808605e-005
2.165704e+003,-3.968924e-005
2.167632e+003,-3.128499e-005
2.169561e+003,-2.288818e-005
2.171489e+003,-1.449138e-005
2.173418e+003,-6.094575e-006
2.175346e+003,2.287328e-006
2.177275e+003,1.066178e-005
2.179203e+003,1.904368e-005
2.181132e+003,2.740324e-005
2.183060e+003,3.577024e-005
2.184989e+003,4.412234e-005
2.186917e+003,5.249679e-005
2.188846e+003,6.084144e-005
2.190774e+003,6.918609e-005
2.192703e+003,7.752329e-005
2.194631e+003,8.586794e-005
2.196560e+003,9.419769e-005
2.198488e+003,1.025274e-004
2.200417e+003,1.108572e-004
2.202345e+003,1.191720e-004
2.204274e+003,1.274943e-004
2.206202e+003,1.357943e-004
2.208131e+003,1.441091e-004
2.210059e+003,1.523942e-004
2.211988e+003,1.606941e-004
2.213916e+003,1.689792e-004
2.215845e+003,1.772717e-004
2.217773e+003,1.855493e-004
2.219702e+003,1.938343e-004
2.221630e+003,2.021044e-004
2.223559e+003,2.103746e-004
2.225487e+003,2.186373e-004
2.227416e+003,2.269000e-004
2.229344e+003,2.351403e-004
2.231273e+003,2.434030e-004
2.233201e+003,2.516508e-004
2.235130e+003,2.598912e-004
2.237058e+003,2.681091e-004
2.238987e+003,2.763495e-004
2.240915e+003,2.845675e-004
2.242844e+003,2.927929e-004
2.244772e+003,3.010184e-004
2.246701e+003,3.092289e-004
2.248629e+003,3.174469e-004
2.250558e+003,3.256425e-004
2.252486e+003,3.338382e-004
2.254415e+003,3.420338e-004
2.256343e+003,3.502294e-004
2.258272e+003,3.584027e-004
2.260200e+003,3.665909e-004
2.262129e+003,3.747642e-004
2.264057e+003,3.829375e-004
2.265986e+003,3.910959e-004
2.267914e+003,3.992692e-004
2.269843e+003,4.074126e-004
2.271771e+003,4.155710e-004
2.273700e+003,4.237220e-004
2.275628e+003,4.318729e-004
2.277557e+003,4.400015e-004
2.279485e+003,4.481450e-004
2.281414e+003,4.562661e-004
2.283342e+003,4.643872e-004
2.285271e+003,4.725084e-004
2.287199e+003,4.806221e-004
2.289128e+003,4.887432e-004
2.291056e+003,4.968494e-004
2.292985e+003,5.049556e-004
2.294913e+003,5.130470e-004
2.296842e+003,5.211383e-004
2.298770e+003,5.292222e-004
2.300699e+003,5.373061e-004
2.302627e+003,5.453974e-004
2.304556e+003,5.534664e-004
2.306484e+003,5.615354e-004
2.308413e+003,5.695969e-004
2.310341e+003,5.776510e-004
2.312270e+003,5.857125e-004
2.314198e+003,5.937591e-004
2.316127e+003,6.018057e-004
2.318055e+003,6.098375e-004
2.319984e+003,6.178916e-004
2.321912e+003,6.259158e-004
2.323841e+003,6.339476e-004
2.325769e+003,6.419718e-004
2.327698e+003,6.499812e-004
2.329626e+003,6.579980e-004
2.331555e+003,6.659999e-004
2.333483e+003,6.740168e-004
2.335412e+003,6.820112e-004
2.337340e+003,6.900206e-004
2.339269e+003,6.980076e-004
2.341197e+003,7.059947e-004
2.343126e+003,7.139668e-004
2.345054e+003,7.219464e-004
2.346983e+003,7.299259e-004
2.348911e+003,7.378906e-004
2.350840e+003,7.458553e-004
2.352768e+003,7.538050e-004
2.354697e+003,7.617623e-004
2.356625e+003,7.697120e-004
2.358554e+003,7.776469e-004
2.360482e+003,7.855967e-004
2.362411e+003,7.935241e-004
2.364339e+003,8.014739e-004
2.366268e+003,8.093864e-004
2.368196e+003,8.173138e-004
2.370125e+003,8.252263e-004
2.372053e+003,8.331314e-004
2.373982e+003,8.410439e-004
2.375910e+003,8.489415e-004
2.377839e+003,8.568466e-004
2.379767e+003,8.647442e-004
2.381696e+003,8.726269e-004
2.383624e+003,8.805096e-004
2.385553e+003,8.883923e-004
2.387481e+003,8.962676e-004
2.389410e+003,9.041354e-004
2.391338e+003,9.120107e-004
2.393267e+003,9.198710e-004
2.395195e+003,9.277239e-004
2.397124e+003,9.355769e-004
2.399052e+003,9.434223e-004
2.400981e+003,9.080097e-004
2.402909e+003,7.898808e-004
2.404838e+003,8.706376e-004
2.406766e+003,1.246683e-003
2.408695e+003,1.448072e-003
2.410623e+003,1.236074e-003
2.412552e+003,1.233563e-003
2.414480e+003,1.298614e-003
2.416409e+003,1.300238e-003
2.418337e+003,1.369894e-003
2.420266e+003,1.496084e-003
2.422194e+003,1.519337e-003
2.424123e+003,1.594491e-003
2.426051e+003,1.702659e-003
2.427979e+003,1.687929e-003
2.429908e+003,1.676016e-003
2.431837e+003,1.815930e-003
2.433765e+003,1.828708e-003
2.435694e+003,1.844563e-003
2.437622e+003,1.977451e-003
2.439551e+003,1.965955e-003
2.441479e+003,2.001941e-003
2.443407e+003,1.973048e-003
2.445336e+003,1.838446e-003
2.447265e+003,1.957864e-003
2.449193e+003,2.047040e-003
2.451122e+003,2.082303e-003
2.453050e+003,2.112664e-003
2.454979e+003,2.191871e-003
2.456907e+003,2.261095e-003
2.458836e+003,2.103433e-003
2.460764e+003,1.937896e-003
2.462693e+003,1.897968e-003
2.464621e+003,1.717798e-003
2.466550e+003,1.518331e-003
2.468478e+003,1.415379e-003
2.470406e+003,1.539156e-003
2.472335e+003,1.622915e-003
2.474264e+003,1.743041e-003
2.476192e+003,1.824223e-003
2.478121e+003,1.753040e-003
2.480049e+003,1.646131e-003
2.481978e+003,1.636848e-003
2.483906e+003,1.631670e-003
2.485835e+003,1.718156e-003
2.487763e+003,1.741365e-003
2.489692e+003,1.679361e-003
2.491620e+003,1.613475e-003
2.493549e+003,1.675144e-003
2.495477e+003,1.801394e-003
2.497406e+003,1.900449e-003
2.499334e+003,1.816243e-003
2.501263e+003,1.708657e-003
2.503191e+003,1.750179e-003
2.505120e+003,1.948275e-003
2.507048e+003,2.071582e-003
2.508977e+003,2.003625e-003
2.510905e+003,1.995556e-003
2.512833e+003,1.970425e-003
2.514762e+003,1.944415e-003
2.516691e+003,2.022095e-003
2.518619e+003,2.170153e-003
2.520548e+003,2.310731e-003
2.522476e+003,2.388678e-003
2.524405e+003,2.421625e-003
2.526333e+003,2.490573e-003
2.528261e+003,2.650544e-003
2.530190e+003,2.731532e-003
2.532119e+003,2.735831e-003
2.534047e+003,2.866529e-003
2.535976e+003,3.079489e-003
2.537904e+003,3.103487e-003
2.539833e+003,3.089398e-003
2.541761e+003,3.202125e-003
2.543689e+003,3.261052e-003
2.545618e+003,3.406368e-003
2.547547e+003,3.489375e-003
2.549475e+003,3.503412e-003
2.551404e+003,3.622383e-003
2.553332e+003,3.828116e-003
2.555260e+003,3.944851e-003
2.557189e+003,4.092559e-003
2.559117e+003,4.251048e-003
2.561046e+003,4.344851e-003
2.562975e+003,4.447497e-003
2.564903e+003,4.472189e-003
2.566832e+003,4.592523e-003
2.568760e+003,4.647456e-003
2.570688e+003,4.974432e-003
2.572617e+003,5.297311e-003
2.574546e+003,5.441815e-003
2.576474e+003,5.696028e-003
2.578403e+003,5.978696e-003
2.580331e+003,6.221093e-003
2.582260e+003,6.300524e-003
2.584188e+003,6.103985e-003
2.586116e+003,5.896315e-003
2.588045e+003,5.681343e-003
2.589974e+003,5.591445e-003
2.591902e+003,5.490035e-003
2.593831e+003,5.446441e-003
2.595759e+003,5.435057e-003
2.597688e+003,5.446896e-003
2.599616e+003,5.588986e-003
2.601544e+003,5.737230e-003
2.603473e+003,5.945943e-003
2.605402e+003,6.054506e-003
2.607330e+003,6.242625e-003
2.609259e+003,6.605685e-003
2.611187e+003,6.710052e-003
2.613115e+003,6.778210e-003
2.615044e+003,6.984353e-003
2.616972e+003,7.134207e-003
2.618901e+003,7.101513e-003
2.620830e+003,7.152267e-003
2.622758e+003,7.171124e-003
2.624687e+003,7.130824e-003
2.626615e+003,7.035218e-003
2.628543e+003,7.093921e-003
2.630472e+003,7.156231e-003
2.632400e+003,7.182166e-003
2.634329e+003,7.201821e-003
2.636258e+003,7.243283e-003
2.638186e+003,7.298082e-003
2.640115e+003,7.444851e-003
2.642043e+003,7.599518e-003
2.643971e+003,7.788621e-003
2.645900e+003,7.923335e-003
2.647828e+003,8.046120e-003
2.649757e+003,8.162849e-003
2.651686e+003,8.297138e-003
2.653614e+003,8.415177e-003
2.655542e+003,8.458108e-003
2.657471e+003,8.435510e-003
2.659399e+003,8.397423e-003
2.661328e+003,8.220308e-003
2.663256e+003,7.918805e-003
2.665185e+003,7.568434e-003
2.667114e+003,7.398456e-003
2.669042e+003,7.361673e-003
2.670970e+003,7.376440e-003
2.672899e+003,7.394120e-003
2.674827e+003,7.465340e-003
2.676756e+003,7.581010e-003
2.678685e+003,7.642277e-003
2.680613e+003,7.556722e-003
2.682542e+003,7.470742e-003
2.684470e+003,7.523239e-003
2.686398e+003,7.567123e-003
2.688327e+003,7.567279e-003
2.690255e+003,7.554092e-003
2.692184e+003,7.526606e-003
2.694113e+003,7.587269e-003
2.696041e+003,7.683896e-003
2.697969e+003,7.804826e-003
2.699898e+003,7.956564e-003
2.701826e+003,8.134395e-003
2.703755e+003,8.362047e-003
2.705683e+003,8.597009e-003
2.707612e+003,8.880392e-003
2.709541e+003,9.257510e-003
2.711469e+003,9.575166e-003
2.713397e+003,1.009467e-002
2.715326e+003,1.074432e-002
2.717254e+003,1.143544e-002
2.719183e+003,1.210062e-002
2.721111e+003,1.258141e-002
2.723040e+003,1.255088e-002
2.724969e+003,1.208154e-002
2.726897e+003,1.145294e-002
2.728825e+003,1.094656e-002
2.730754e+003,1.054588e-002
2.732682e+003,1.021375e-002
2.734611e+003,9.927839e-003
2.736539e+003,9.658478e-003
2.738468e+003,9.435326e-003
2.740396e+003,9.225011e-003
2.742325e+003,8.967742e-003
2.744253e+003,8.737035e-003
2.746182e+003,8.641668e-003
2.748110e+003,8.675992e-003
2.750039e+003,8.769624e-003
2.751967e+003,8.748837e-003
2.753896e+003,8.786552e-003
2.755824e+003,8.991443e-003
2.757753e+003,9.236999e-003
2.759681e+003,9.470999e-003
2.761610e+003,9.575784e-003
2.763538e+003,9.720653e-003
2.765467e+003,9.925395e-003
2.767395e+003,1.012180e-002
2.769324e+003,1.029825e-002
2.771252e+003,1.052915e-002
2.773181e+003,1.077943e-002
2.775109e+003,1.105240e-002
2.777038e+003,1.146384e-002
2.778966e+003,1.196211e-002
2.780895e+003,1.245864e-002
2.782823e+003,1.294803e-002
2.784752e+003,1.350682e-002
2.786680e+003,1.423645e-002
2.788609e+003,1.504432e-002
2.790537e+003,1.585685e-002
2.792466e+003,1.661907e-002
2.794394e+003,1.723865e-002
2.796323e+003,1.779528e-002
2.798251e+003,1.838296e-002
2.800180e+003,1.912110e-002
2.802108e+003,2.021358e-002
2.804037e+003,2.163441e-002
2.805965e+003,2.308877e-002
2.807894e+003,2.438653e-002
2.809822e+003,2.561081e-002
2.811751e+003,2.683801e-002
2.813679e+003,2.804612e-002
2.815608e+003,2.951673e-002
2.817536e+003,3.140721e-002
2.819465e+003,3.379032e-002
2.821393e+003,3.680244e-002
2.823322e+003,4.068379e-002
2.825250e+003,4.580274e-002
2.827179e+003,5.311541e-002
2.829107e+003,6.393638e-002
2.831036e+003,7.979570e-002
2.832964e+003,1.006140e-001
2.834893e+003,1.218655e-001
2.836821e+003,1.355296e-001
2.838750e+003,1.362951e-001
2.840678e+003,1.252961e-001
2.842607e+003,1.077842e-001
2.844535e+003,8.966677e-002
2.846464e+003,7.469594e-002
2.848392e+003,6.394880e-002
2.850321e+003,5.698393e-002
2.852249e+003,5.332826e-002
2.854178e+003,5.302049e-002
2.856106e+003,5.689430e-002
2.858035e+003,6.623546e-002
2.859963e+003,8.224540e-002
2.861892e+003,1.041116e-001
2.863820e+003,1.251586e-001
2.865749e+003,1.358919e-001
2.867677e+003,1.349448e-001
2.869606e+003,1.291146e-001
2.871534e+003,1.242515e-001
2.873463e+003,1.230389e-001
2.875391e+003,1.251304e-001
2.877320e+003,1.267221e-001
2.879248e+003,1.250021e-001
2.881177e+003,1.211922e-001
2.883105e+003,1.175881e-001
2.885034e+003,1.150400e-001
2.886962e+003,1.135306e-001
2.888891e+003,1.131404e-001
2.890819e+003,1.142988e-001
2.892748e+003,1.178011e-001
2.894676e+003,1.243801e-001
2.896605e+003,1.340807e-001
2.898533e+003,1.462519e-001
2.900462e+003,1.600617e-001
2.902390e+003,1.745327e-001
2.904319e+003,1.884728e-001
2.906247e+003,2.004718e-001
2.908176e+003,2.109516e-001
2.910104e+003,2.234413e-001
2.912033e+003,2.415349e-001
2.913961e+003,2.633517e-001
2.915890e+003,2.790062e-001
2.917818e+003,2.780741e-001
2.919747e+003,2.621466e-001
2.921675e+003,2.412106e-001
2.923604e+003,2.211106e-001
2.925532e+003,2.009461e-001
2.927461e+003,1.787484e-001
2.929389e+003,1.553169e-001
2.931318e+003,1.336458e-001
2.933246e+003,1.165620e-001
2.935175e+003,1.054501e-001
2.937103e+003,1.010985e-001
2.939032e+003,1.046504e-001
2.940960e+003,1.178828e-001
2.942889e+003,1.418410e-001
2.944817e+003,1.737928e-001
2.946746e+003,2.055027e-001
2.948674e+003,2.248566e-001
2.950603e+003,2.230665e-001
2.952531e+003,2.047891e-001
2.954460e+003,1.846128e-001
2.956388e+003,1.734215e-001
2.958317e+003,1.709223e-001
2.960245e+003,1.680529e-001
2.962174e+003,1.555044e-001
2.964102e+003,1.341381e-001
2.966031e+003,1.112878e-001
2.967959e+003,9.058566e-002
2.969888e+003,7.227740e-002
2.971816e+003,5.671873e-002
2.973745e+003,4.397757e-002
2.975673e+003,3.404416e-002
2.977602e+003,2.647118e-002
2.979530e+003,2.065962e-002
2.981459e+003,1.615406e-002
2.983387e+003,1.273701e-002
2.985316e+003,1.009708e-002
2.987244e+003,8.015119e-003
2.989173e+003,6.330669e-003
2.991101e+003,5.003892e-003
2.993030e+003,3.966652e-003
2.994958e+003,3.121182e-003
2.996887e+003,2.364509e-003
2.998815e+003,1.835413e-003
3.000744e+003,1.419909e-003
3.002672e+003,1.009651e-003
3.004601e+003,6.457493e-004
3.006529e+003,3.311858e-004
3.008458e+003,1.160279e-004
3.010386e+003,-4.725158e-005
3.012315e+003,-1.908392e-004
3.014243e+003,-3.519878e-004
3.016172e+003,-5.398169e-004
3.018100e+003,-6.610379e-004
3.020029e+003,-7.083341e-004
3.021957e+003,-7.282048e-004
3.023886e+003,-8.293092e-004
3.025814e+003,-9.069890e-004
3.027743e+003,-9.588450e-004
3.029671e+003,-1.014590e-003
3.031600e+003,-1.000136e-003
3.033528e+003,-1.010336e-003
3.035457e+003,-1.050480e-003
3.037385e+003,-1.059972e-003
3.039314e+003,-1.044855e-003
3.041242e+003,-9.787157e-004
3.043171e+003,-9.633154e-004
3.045099e+003,-1.011051e-003
3.047028e+003,-9.976253e-004
3.048956e+003,-9.214133e-004
3.050885e+003,-8.589476e-004
3.052813e+003,-7.734373e-004
3.054742e+003,-7.783324e-004
3.056670e+003,-7.833391e-004
3.058599e+003,-7.455274e-004
3.060527e+003,-6.959960e-004
3.062456e+003,-7.167235e-004
3.064384e+003,-6.890669e-004
3.066313e+003,-6.792620e-004
3.068241e+003,-7.190630e-004
3.070170e+003,-7.535964e-004
3.072098e+003,-7.325411e-004
3.074027e+003,-7.189885e-004
3.075955e+003,-6.920174e-004
3.077884e+003,-6.625950e-004
3.079812e+003,-5.844459e-004
3.081741e+003,-5.701184e-004
3.083669e+003,-5.476549e-004
3.085598e+003,-5.061924e-004
3.087526e+003,-5.330369e-004
3.089455e+003,-5.970895e-004
3.091383e+003,-5.332157e-004
3.093312e+003,-4.176646e-004
3.095240e+003,-3.518090e-004
3.097169e+003,-3.583729e-004
3.099097e+003,-3.458411e-004
3.101026e+003,-3.070757e-004
3.102954e+003,-2.487078e-004
3.104883e+003,-2.799630e-004
3.106811e+003,-2.803504e-004
3.108740e+003,-2.231002e-004
3.110668e+003,-1.569390e-004
3.112597e+003,-1.435876e-004
3.114525e+003,-4.039705e-005
3.116454e+003,2.208352e-005
3.118382e+003,8.070469e-005
3.120311e+003,2.294034e-005
3.122239e+003,-8.903444e-006
3.124168e+003,1.561642e-004
3.126096e+003,3.342777e-004
3.128025e+003,3.747866e-004
3.129953e+003,2.990514e-004
3.131882e+003,3.911704e-004
3.133810e+003,4.866347e-004
3.135739e+003,4.929826e-004
3.137667e+003,5.125329e-004
3.139596e+003,4.772544e-004
3.141524e+003,4.382804e-004
3.143453e+003,4.934147e-004
3.145381e+003,6.197914e-004
3.147310e+003,6.517172e-004
3.149238e+003,5.957261e-004
3.151167e+003,5.172864e-004
3.153095e+003,5.193129e-004
3.155024e+003,5.030259e-004
3.156952e+003,5.461425e-004
3.158881e+003,5.689934e-004
3.160809e+003,5.159080e-004
3.162738e+003,5.092472e-004
3.164666e+003,5.604029e-004
3.166594e+003,6.172359e-004
3.168523e+003,6.326512e-004
3.170452e+003,5.963221e-004
3.172380e+003,6.699488e-004
3.174309e+003,6.533787e-004
3.176237e+003,6.049573e-004
3.178166e+003,7.161498e-004
3.180094e+003,8.045882e-004
3.182022e+003,8.318499e-004
3.183951e+003,9.324923e-004
3.185880e+003,1.005463e-003
3.187808e+003,9.946451e-004
3.189737e+003,1.073368e-003
3.191665e+003,1.185916e-003
3.193594e+003,1.110420e-003
3.195522e+003,1.060210e-003
3.197450e+003,1.103431e-003
3.199379e+003,1.124755e-003
3.201308e+003,1.145899e-003
3.203236e+003,1.121536e-003
3.205165e+003,1.089871e-003
3.207093e+003,1.113191e-003
3.209021e+003,1.076274e-003
3.210950e+003,9.617358e-004
3.212878e+003,9.949803e-004
3.214807e+003,1.052350e-003
3.216736e+003,9.582415e-004
3.218664e+003,8.761883e-004
3.220593e+003,8.114427e-004
3.222521e+003,7.591769e-004
3.224449e+003,7.498488e-004
3.226378e+003,7.046759e-004
3.228307e+003,6.335154e-004
3.230235e+003,5.827323e-004
3.232164e+003,6.523505e-004
3.234092e+003,7.482693e-004
3.236021e+003,7.219687e-004
3.237949e+003,6.061047e-004
3.239877e+003,5.213022e-004
3.241806e+003,4.169866e-004
3.243735e+003,4.480332e-004
3.245663e+003,5.983114e-004
3.247592e+003,5.982369e-004
3.249520e+003,5.661920e-004
3.251448e+003,5.509704e-004
3.253377e+003,6.762147e-004
3.255305e+003,7.940978e-004
3.257234e+003,8.873418e-004
3.259163e+003,9.384006e-004
3.261091e+003,9.689629e-004
3.263020e+003,9.994209e-004
3.264948e+003,1.025923e-003
3.266876e+003,1.023926e-003
3.268805e+003,9.584278e-004
3.270733e+003,9.587631e-004
3.272662e+003,1.052178e-003
3.274591e+003,1.078039e-003
3.276519e+003,1.133487e-003
3.278448e+003,1.177639e-003
3.280376e+003,1.195222e-003
3.282304e+003,1.102053e-003
3.284233e+003,1.092970e-003
3.286161e+003,1.203537e-003
3.288090e+003,1.261935e-003
3.290019e+003,1.258969e-003
3.291947e+003,1.310922e-003
3.293875e+003,1.257263e-003
3.295804e+003,1.214325e-003
3.297732e+003,1.272544e-003
3.299661e+003,1.255020e-003
3.301589e+003,1.176767e-003
3.303518e+003,1.143679e-003
3.305447e+003,1.072302e-003
3.307375e+003,1.104333e-003
3.309303e+003,1.181729e-003
3.311232e+003,1.147605e-003
3.313160e+003,1.077242e-003
3.315089e+003,1.022324e-003
3.317018e+003,1.033477e-003
3.318946e+003,1.075253e-003
3.320875e+003,1.105361e-003
3.322803e+003,1.132727e-003
3.324731e+003,1.170069e-003
3.326660e+003,1.205064e-003
3.328588e+003,1.234815e-003
3.330517e+003,1.176819e-003
3.332446e+003,1.128122e-003
3.334374e+003,1.188509e-003
3.336302e+003,1.211800e-003
3.338231e+003,1.220673e-003
3.340159e+003,1.295678e-003
3.342088e+003,1.299053e-003
3.344016e+003,1.162335e-003
3.345945e+003,1.033068e-003
3.347874e+003,1.042187e-003
3.349802e+003,1.109667e-003
3.351730e+003,1.137815e-003
3.353659e+003,1.111470e-003
3.355587e+003,1.126088e-003
3.357516e+003,1.137823e-003
3.359444e+003,1.106568e-003
3.361373e+003,1.180716e-003
3.363302e+003,1.107611e-003
3.365230e+003,9.349361e-004
3.367158e+003,9.387881e-004
3.369087e+003,9.599254e-004
3.371015e+003,8.747205e-004
3.372944e+003,8.029193e-004
3.374872e+003,8.686259e-004
3.376801e+003,8.899793e-004
3.378729e+003,8.336455e-004
3.380658e+003,8.062497e-004
3.382586e+003,6.983429e-004
3.384515e+003,7.182658e-004
3.386443e+003,7.608235e-004
3.388372e+003,7.038787e-004
3.390300e+003,6.456301e-004
3.392229e+003,7.158145e-004
3.394157e+003,6.743819e-004
3.396086e+003,5.670488e-004
3.398014e+003,5.320907e-004
3.399943e+003,5.200133e-004
3.401871e+003,5.483851e-004
3.403800e+003,6.663427e-004
3.405728e+003,7.450283e-004
3.407657e+003,7.971227e-004
3.409585e+003,7.616803e-004
3.411514e+003,6.345659e-004
3.413442e+003,5.872771e-004
3.415371e+003,6.473958e-004
3.417299e+003,5.446449e-004
3.419228e+003,5.429462e-004
3.421156e+003,6.810501e-004
3.423085e+003,6.478354e-004
3.425013e+003,4.708767e-004
3.426942e+003,3.650188e-004
3.428870e+003,1.692101e-004
3.430799e+003,2.829731e-004
3.432727e+003,4.086196e-004
3.434656e+003,3.286973e-004
3.436584e+003,2.359524e-004
3.438513e+003,2.472848e-004
3.440441e+003,1.627803e-004
3.442370e+003,1.826435e-004
3.444298e+003,4.614890e-005
3.446227e+003,2.053976e-004
3.448155e+003,2.622008e-004
3.450084e+003,-6.963313e-005
3.452012e+003,-7.128716e-005
3.453941e+003,5.325675e-005
3.455869e+003,-1.256168e-004
3.457798e+003,-1.359880e-004
3.459726e+003,-2.625585e-005
3.461655e+003,7.313490e-005
3.463583e+003,-2.415478e-005
3.465512e+003,-2.499819e-004
3.467440e+003,-2.638698e-004
3.469369e+003,-2.778918e-004
3.471297e+003,-3.702193e-004
3.473226e+003,-3.608167e-004
3.475154e+003,-3.062189e-004
3.477083e+003,-3.276765e-004
3.479011e+003,-3.974289e-004
3.480940e+003,-3.277212e-004
3.482868e+003,-2.220422e-004
3.484797e+003,-4.780143e-004
3.486725e+003,-4.400164e-004
3.488654e+003,-2.320707e-004
3.490582e+003,-4.854500e-004
3.492511e+003,-6.993413e-004
3.494439e+003,-5.704015e-004
3.496368e+003,-4.351437e-004
3.498296e+003,-4.975796e-004
3.500225e+003,-6.648004e-004
3.502153e+003,-6.581694e-004
3.504082e+003,-5.168915e-004
3.506010e+003,-7.919669e-004
3.507939e+003,-8.466840e-004
3.509867e+003,-6.942898e-004
3.511796e+003,-7.798672e-004
3.513724e+003,-8.480549e-004
3.515653e+003,-8.554459e-004
3.517581e+003,-7.942021e-004
3.519510e+003,-7.838458e-004
3.521438e+003,-8.324087e-004
3.523367e+003,-5.694330e-004
3.525295e+003,-6.672144e-004
3.527224e+003,-8.747131e-004
3.529152e+003,-8.514225e-004
3.531081e+003,-9.874254e-004
3.533009e+003,-1.245260e-003
3.534938e+003,-1.119420e-003
3.536866e+003,-8.139014e-004
3.538795e+003,-9.864867e-004
3.540723e+003,-1.290292e-003
3.542652e+003,-1.297370e-003
3.544580e+003,-1.088306e-003
3.546509e+003,-8.695275e-004
3.548437e+003,-1.201436e-003
3.550366e+003,-1.578331e-003
3.552294e+003,-1.377702e-003
3.554223e+003,-1.311824e-003
3.556151e+003,-1.401007e-003
3.558080e+003,-1.346469e-003
3.560008e+003,-1.428112e-003
3.561937e+003,-1.613528e-003
3.563865e+003,-1.790926e-003
3.565794e+003,-1.210913e-003
3.567722e+003,-2.017468e-004
3.569651e+003,-9.773821e-004
3.571579e+003,-1.777291e-003
3.573508e+003,-2.028137e-003
3.575436e+003,-2.041504e-003
3.577365e+003,-1.739651e-003
3.579293e+003,-1.346186e-003
3.581222e+003,-1.485541e-003
3.583150e+003,-1.707733e-003
3.585079e+003,-1.945615e-003
3.587007e+003,-1.100138e-003
3.588936e+003,-4.763156e-004
3.590864e+003,-1.327991e-003
3.592793e+003,-1.824707e-003
3.594721e+003,-1.815289e-003
3.596650e+003,-1.632839e-003
3.598578e+003,-1.398072e-003
3.600507e+003,-1.268640e-003
3.602435e+003,-1.489624e-003
3.604364e+003,-1.863897e-003
3.606292e+003,-1.918077e-003
3.608221e+003,-1.066446e-003
3.610149e+003,-9.479225e-004
3.612078e+003,-1.030087e-003
3.614006e+003,-7.926226e-004
3.615935e+003,-1.843661e-003
3.617863e+003,-1.699865e-003
3.619792e+003,-1.151115e-004
3.621720e+003,-6.891936e-004
3.623649e+003,-1.622364e-003
3.625577e+003,-2.243772e-003
3.627506e+003,-2.004147e-003
3.629434e+003,3.467947e-004
3.631363e+003,-7.171333e-004
3.633291e+003,-1.538917e-003
3.635220e+003,-1.699775e-003
3.637148e+003,-1.798242e-003
3.639077e+003,-1.420930e-003
3.641005e+003,-1.208618e-003
3.642934e+003,-1.417130e-003
3.644862e+003,-1.851127e-003
3.646791e+003,-1.313195e-003
3.648719e+003,2.301186e-004
3.650648e+003,9.775907e-004
3.652576e+003,-1.111731e-003
3.654505e+003,-2.626672e-003
3.656433e+003,-2.053261e-003
3.658362e+003,-1.581609e-003
3.660290e+003,-1.363933e-003
3.662219e+003,-1.142964e-003
3.664147e+003,-1.236379e-003
3.666076e+003,-1.548558e-003
3.668004e+003,-1.291707e-003
3.669933e+003,9.045303e-004
3.671861e+003,3.679097e-005
3.673790e+003,-1.535892e-003
3.675718e+003,7.477403e-005
3.677647e+003,-4.763007e-004
3.679575e+003,-6.172508e-004
3.681504e+003,-4.305989e-004
3.683432e+003,-8.744001e-004
3.685361e+003,-1.333833e-003
3.687289e+003,-1.143858e-003
3.689218e+003,3.523082e-004
3.691146e+003,7.883608e-004
3.693075e+003,-5.224347e-005
3.695003e+003,-7.700771e-004
3.696932e+003,-8.038878e-004
3.698860e+003,-1.070946e-003
3.700789e+003,-5.006790e-004
3.702717e+003,2.916157e-004
3.704646e+003,-3.081113e-004
3.706574e+003,-8.967519e-004
3.708503e+003,-1.206100e-003
3.710431e+003,-5.274117e-004
3.712360e+003,7.202327e-004
3.714288e+003,3.294647e-005
3.716217e+003,-9.750426e-004
3.718145e+003,-1.117468e-003
3.720074e+003,-7.835776e-004
3.722002e+003,-2.001673e-004
3.723931e+003,-1.215488e-004
3.725859e+003,2.494454e-005
3.727788e+003,-5.960464e-007
3.729716e+003,-8.314848e-004
3.731645e+003,-1.041993e-003
3.733573e+003,-5.318969e-004
3.735502e+003,1.406625e-003
3.737430e+003,1.569852e-003
3.739359e+003,5.906969e-004
3.741287e+003,-2.604276e-004
3.743216e+003,7.264316e-005
3.745144e+003,2.181098e-003
3.747073e+003,7.697046e-004
3.749001e+003,3.971905e-004
3.750930e+003,1.946628e-003
3.752858e+003,1.630634e-003
3.754787e+003,7.103533e-004
3.756715e+003,1.673996e-004
3.758644e+003,4.900843e-004
3.760572e+003,1.105726e-003
3.762501e+003,2.162158e-004
3.764429e+003,9.170175e-005
3.766358e+003,4.711449e-004
3.768286e+003,2.104193e-004
3.770215e+003,1.199409e-003
3.772143e+003,5.743802e-004
3.774072e+003,-2.598166e-004
3.776000e+003,-2.510697e-004
3.777929e+003,-1.383573e-004
3.779857e+003,4.426688e-004
3.781786e+003,7.748604e-006
3.783714e+003,-3.194213e-004
3.785643e+003,1.432002e-005
3.787571e+003,-3.411323e-004
3.789500e+003,-4.714131e-004
3.791428e+003,-6.322563e-005
3.793357e+003,-3.722757e-004
3.795285e+003,2.148747e-005
3.797214e+003,7.997900e-004
3.799142e+003,-3.994107e-004
3.801071e+003,6.153286e-004
3.802999e+003,9.213835e-004
3.804927e+003,-7.772297e-004
3.806856e+003,4.897118e-004
3.808785e+003,6.041527e-004
3.810713e+003,6.167591e-005
3.812642e+003,-2.435893e-004
3.814570e+003,-5.152822e-004
3.816499e+003,6.292015e-004
3.818427e+003,-5.590469e-004
3.820355e+003,-2.439320e-004
3.822284e+003,1.573846e-003
3.824213e+003,1.988858e-004
3.826141e+003,1.750886e-004
3.828070e+003,2.874136e-004
3.829998e+003,-2.231449e-004
3.831927e+003,5.025119e-004
3.833855e+003,3.670007e-004
3.835783e+003,-1.932383e-004
3.837712e+003,5.227029e-004
3.839641e+003,9.593666e-004
3.841569e+003,7.225126e-004
3.843498e+003,9.783208e-004
3.845426e+003,6.614029e-004
3.847354e+003,-1.224577e-004
3.849283e+003,-5.905032e-004
3.851211e+003,-1.128212e-003
3.853140e+003,2.225325e-003
3.855069e+003,3.252536e-003
3.856997e+003,1.136646e-003
3.858926e+003,7.477403e-005
3.860854e+003,1.586229e-004
3.862782e+003,4.509836e-004
3.864711e+003,1.630262e-003
3.866640e+003,5.770624e-004
3.868568e+003,-1.375526e-004
3.870497e+003,1.720756e-003
3.872425e+003,9.601116e-004
3.874354e+003,1.248658e-003
3.876282e+003,7.115155e-004
3.878210e+003,-5.560070e-004
3.880139e+003,6.707013e-004
3.882068e+003,8.472502e-004
3.883996e+003,1.570582e-004
3.885925e+003,1.527295e-003
3.887853e+003,5.879700e-004
3.889781e+003,-1.663566e-004
3.891710e+003,1.368746e-003
3.893638e+003,1.255259e-003
3.895567e+003,4.019588e-004
3.897496e+003,4.562736e-005
3.899424e+003,4.369020e-004
3.901353e+003,8.550882e-004
3.903281e+003,1.328394e-003
3.905209e+003,1.518637e-003
3.907138e+003,7.288009e-004
3.909066e+003,1.116097e-004
3.910995e+003,3.902614e-005
3.912924e+003,3.945827e-005
3.914852e+003,1.676679e-004
3.916781e+003,8.264929e-004
3.918709e+003,1.030728e-003
3.920637e+003,7.859468e-004
3.922566e+003,4.645735e-004
3.924494e+003,6.933957e-004
3.926423e+003,4.690588e-004
3.928352e+003,-2.658367e-005
3.930280e+003,1.154244e-004
3.932208e+003,7.787347e-004
3.934137e+003,8.904040e-004
3.936065e+003,3.901869e-004
3.937994e+003,4.826486e-005
3.939922e+003,-2.334416e-004
3.941851e+003,2.102554e-004
3.943780e+003,7.034391e-004
3.945708e+003,3.675967e-004
3.947636e+003,4.988760e-004
3.949565e+003,5.805045e-004
3.951493e+003,3.362745e-004
3.953422e+003,1.260489e-004
3.955351e+003,-1.409650e-005
3.957279e+003,3.017485e-005
3.959208e+003,1.158118e-004
3.961136e+003,2.181381e-004
3.963064e+003,1.651496e-004
3.964993e+003,-1.563132e-005
3.966921e+003,7.891655e-005
3.968850e+003,1.080036e-004
3.970779e+003,1.129657e-004
3.972707e+003,2.317429e-004
3.974635e+003,3.192574e-004
3.976564e+003,3.332049e-004
3.978492e+003,1.306385e-004
3.980421e+003,1.910329e-005
3.982349e+003,1.187325e-004
3.984278e+003,2.216101e-004
3.986207e+003,2.349615e-004
3.988135e+003,9.769201e-005
3.990063e+003,1.622885e-004
3.991992e+003,1.892745e-004
3.993920e+003,1.797229e-004
3.995849e+003,2.331138e-004
3.997777e+003,1.846701e-004
3.999706e+003,1.951158e-004
4.001635e+003,0.000000e+000
