3.991992e+002,0.000000e+000
4.011277e+002,0.000000e+000
4.030562e+002,0.000000e+000
4.049846e+002,0.000000e+000
4.069131e+002,0.000000e+000
4.088416e+002,0.000000e+000
4.107701e+002,0.000000e+000
4.126986e+002,0.000000e+000
4.146271e+002,0.000000e+000
4.165556e+002,0.000000e+000
4.184841e+002,0.000000e+000
4.204126e+002,0.000000e+000
4.223411e+002,0.000000e+000
4.242697e+002,0.000000e+000
4.261982e+002,0.000000e+000
4.281266e+002,0.000000e+000
4.300551e+002,0.000000e+000
4.319836e+002,0.000000e+000
4.339121e+002,0.000000e+000
4.358406e+002,0.000000e+000
4.377691e+002,0.000000e+000
4.396976e+002,0.000000e+000
4.416261e+002,0.000000e+000
4.435546e+002,0.000000e+000
4.454831e+002,0.000000e+000
4.474116e+002,0.000000e+000
4.493401e+002,0.000000e+000
4.512686e+002,0.000000e+000
4.531971e+002,0.000000e+000
4.551256e+002,0.000000e+000
4.570541e+002,0.000000e+000
4.589826e+002,0.000000e+000
4.609111e+002,0.000000e+000
4.628396e+002,0.000000e+000
4.647681e+002,0.000000e+000
4.666966e+002,0.000000e+000
4.686251e+002,0.000000e+000
4.705536e+002,0.000000e+000
4.724821e+002,0.000000e+000
4.744106e+002,0.000000e+000
4.763391e+002,0.000000e+000
4.782676e+002,0.000000e+000
4.801961e+002,0.000000e+000
4.821246e+002,0.000000e+000
4.840531e+002,0.000000e+000
4.859816e+002,0.000000e+000
4.879101e+002,0.000000e+000
4.898386e+002,0.000000e+000
4.917671e+002,0.000000e+000
4.936956e+002,0.000000e+000
4.956241e+002,0.000000e+000
4.975526e+002,0.000000e+000
4.994811e+002,0.000000e+000
5.014096e+002,0.000000e+000
5.033381e+002,0.000000e+000
5.052666e+002,0.000000e+000
5.071951e+002,0.000000e+000
5.091236e+002,0.000000e+000
5.110521e+002,0.000000e+000
5.129806e+002,0.000000e+000
5.149091e+002,0.000000e+000
5.168376e+002,0.000000e+000
5.187661e+002,0.000000e+000
5.206946e+002,0.000000e+000
5.226230e+002,0.000000e+000
5.245516e+002,1.281127e-004
5.264800e+002,6.247032e-005
5.284086e+002,-5.201343e-005
5.303370e+002,-2.044253e-006
5.322656e+002,-3.878679e-005
5.341940e+002,-3.176536e-004
5.361226e+002,-5.657114e-004
5.380510e+002,-5.278764e-004
5.399796e+002,-5.287640e-004
5.419081e+002,-5.585756e-004
5.438365e+002,-6.812429e-004
5.457650e+002,-7.320456e-004
5.476935e+002,-8.101594e-004
5.496221e+002,-9.107990e-004
5.515505e+002,-7.826807e-004
5.534790e+002,-4.200255e-004
5.554075e+002,-4.045572e-004
5.573361e+002,-4.444886e-004
5.592645e+002,-5.298993e-004
5.611931e+002,-6.763302e-004
5.631215e+002,-8.140635e-004
5.650500e+002,-7.836036e-004
5.669785e+002,-7.314226e-004
5.689070e+002,-4.937807e-004
5.708355e+002,-3.726389e-004
5.727640e+002,-7.999409e-005
5.746925e+002,4.156120e-005
5.766210e+002,1.145964e-004
5.785495e+002,1.530424e-004
5.804780e+002,2.731970e-004
5.824065e+002,2.851076e-004
5.843350e+002,2.533598e-004
5.862635e+002,2.245000e-004
5.881920e+002,3.666515e-004
5.901205e+002,4.422609e-004
5.920490e+002,3.786040e-004
5.939775e+002,2.585230e-004
5.959060e+002,3.877031e-004
5.978345e+002,4.469575e-004
5.997630e+002,3.660712e-004
6.016915e+002,4.149806e-004
6.036200e+002,4.937621e-004
6.055485e+002,4.811604e-004
6.074770e+002,4.922906e-004
6.094055e+002,4.033195e-004
6.113340e+002,3.395341e-004
6.132625e+002,1.524361e-004
6.151910e+002,-1.090113e-005
6.171195e+002,-9.857956e-005
6.190480e+002,-4.453678e-005
6.209765e+002,-2.674758e-006
6.229050e+002,1.632934e-004
6.248335e+002,2.099704e-004
6.267620e+002,2.604770e-004
6.286905e+002,2.546860e-004
6.306190e+002,3.129942e-004
6.325475e+002,4.025362e-004
6.344760e+002,4.427321e-004
6.364045e+002,5.190326e-004
6.383330e+002,6.939694e-004
6.402615e+002,7.078992e-004
6.421899e+002,7.259604e-004
6.441185e+002,7.471228e-004
6.460470e+002,8.882768e-004
6.479755e+002,9.065149e-004
6.499039e+002,8.727359e-004
6.518325e+002,8.196533e-004
6.537610e+002,9.268522e-004
6.556895e+002,1.001469e-003
6.576179e+002,1.061965e-003
6.595464e+002,1.179210e-003
6.614750e+002,1.384372e-003
6.634034e+002,1.509311e-003
6.653319e+002,1.635888e-003
6.672604e+002,1.780164e-003
6.691890e+002,2.093727e-003
6.711174e+002,2.277687e-003
6.730460e+002,2.399768e-003
6.749745e+002,2.545284e-003
6.769030e+002,2.802690e-003
6.788314e+002,3.093753e-003
6.807599e+002,3.482631e-003
6.826885e+002,3.774242e-003
6.846169e+002,4.035263e-003
6.865454e+002,4.307605e-003
6.884739e+002,4.840044e-003
6.904025e+002,5.257716e-003
6.923309e+002,5.592801e-003
6.942594e+002,5.916549e-003
6.961879e+002,6.286095e-003
6.981165e+002,6.537713e-003
7.000449e+002,6.723317e-003
7.019734e+002,6.793724e-003
7.039019e+002,7.017319e-003
7.058304e+002,7.396325e-003
7.077589e+002,7.940536e-003
7.096874e+002,8.518875e-003
7.116159e+002,9.170840e-003
7.135444e+002,9.909547e-003
7.154729e+002,1.081393e-002
7.174014e+002,1.196312e-002
7.193299e+002,1.335953e-002
7.212584e+002,1.449488e-002
7.231869e+002,1.476780e-002
7.251154e+002,1.409045e-002
7.270439e+002,1.305933e-002
7.289724e+002,1.182469e-002
7.309009e+002,1.070996e-002
7.328294e+002,9.703089e-003
7.347579e+002,8.804943e-003
7.366864e+002,7.915011e-003
7.386149e+002,7.135535e-003
7.405434e+002,6.431900e-003
7.424719e+002,5.834430e-003
7.444004e+002,5.179446e-003
7.463289e+002,4.679644e-003
7.482574e+002,4.239808e-003
7.501859e+002,3.896696e-003
7.521144e+002,3.556909e-003
7.540428e+002,3.351821e-003
7.559714e+002,3.231457e-003
7.578999e+002,3.160308e-003
7.598284e+002,3.075466e-003
7.617568e+002,3.069774e-003
7.636854e+002,3.052487e-003
7.656139e+002,3.051954e-003
7.675424e+002,2.909784e-003
7.694709e+002,2.766799e-003
7.713994e+002,2.579354e-003
7.733279e+002,2.423442e-003
7.752563e+002,2.302762e-003
7.771849e+002,2.195815e-003
7.791134e+002,2.136380e-003
7.810419e+002,2.212206e-003
7.829703e+002,2.267080e-003
7.848989e+002,2.452943e-003
7.868274e+002,2.673100e-003
7.887559e+002,2.971806e-003
7.906843e+002,3.292543e-003
7.926129e+002,3.651802e-003
7.945414e+002,3.999308e-003
7.964698e+002,4.435426e-003
7.983983e+002,4.881244e-003
8.003268e+002,5.603693e-003
8.022554e+002,6.594582e-003
8.041838e+002,8.352365e-003
8.061123e+002,1.094269e-002
8.080408e+002,1.312224e-002
8.099694e+002,1.297512e-002
8.118978e+002,1.075938e-002
8.138263e+002,8.204036e-003
8.157548e+002,6.715795e-003
8.176833e+002,5.957665e-003
8.196118e+002,5.670110e-003
8.215403e+002,5.557630e-003
8.234689e+002,5.541979e-003
8.253973e+002,5.620835e-003
8.273258e+002,6.051760e-003
8.292543e+002,6.485580e-003
8.311829e+002,7.081076e-003
8.331113e+002,8.051294e-003
8.350398e+002,9.961208e-003
8.369683e+002,1.479283e-002
8.388969e+002,2.555082e-002
8.408253e+002,3.227443e-002
8.427538e+002,2.432375e-002
8.446823e+002,1.445841e-002
8.466108e+002,1.013027e-002
8.485393e+002,8.447867e-003
8.504678e+002,7.627947e-003
8.523963e+002,7.106958e-003
8.543248e+002,6.742889e-003
8.562533e+002,6.408383e-003
8.581818e+002,6.204634e-003
8.601103e+002,5.957847e-003
8.620388e+002,5.819425e-003
8.639673e+002,5.804777e-003
8.658958e+002,5.768856e-003
8.678243e+002,5.620049e-003
8.697528e+002,5.573813e-003
8.716813e+002,5.524433e-003
8.736098e+002,5.522111e-003
8.755383e+002,5.409966e-003
8.774668e+002,5.354877e-003
8.793953e+002,5.329393e-003
8.813238e+002,5.323636e-003
8.832523e+002,5.311450e-003
8.851808e+002,5.506027e-003
8.871093e+002,5.770078e-003
8.890378e+002,6.102979e-003
8.909663e+002,6.495980e-003
8.928948e+002,7.326428e-003
8.948232e+002,8.965107e-003
8.967518e+002,1.148585e-002
8.986803e+002,1.319770e-002
9.006088e+002,1.230872e-002
9.025372e+002,9.679424e-003
9.044658e+002,7.522656e-003
9.063943e+002,6.284640e-003
9.083228e+002,5.793227e-003
9.102512e+002,5.567599e-003
9.121797e+002,5.387660e-003
9.141083e+002,5.252324e-003
9.160367e+002,5.171143e-003
9.179653e+002,5.017253e-003
9.198937e+002,5.009446e-003
9.218223e+002,4.976524e-003
9.237507e+002,4.929857e-003
9.256793e+002,4.902208e-003
9.276077e+002,5.014176e-003
9.295363e+002,5.176501e-003
9.314647e+002,5.473677e-003
9.333932e+002,5.842682e-003
9.353217e+002,6.503215e-003
9.372502e+002,7.481955e-003
9.391787e+002,8.427544e-003
9.411072e+002,8.661572e-003
9.430358e+002,8.418990e-003
9.449642e+002,8.155960e-003
9.468928e+002,8.175851e-003
9.488212e+002,8.373205e-003
9.507498e+002,8.700497e-003
9.526782e+002,9.122120e-003
9.546068e+002,9.771626e-003
9.565352e+002,1.052497e-002
9.584637e+002,1.143901e-002
9.603922e+002,1.250856e-002
9.623207e+002,1.386905e-002
9.642492e+002,1.573250e-002
9.661777e+002,1.904197e-002
9.681062e+002,2.551416e-002
9.700347e+002,3.612626e-002
9.719632e+002,4.438829e-002
9.738917e+002,4.198804e-002
9.758202e+002,3.292284e-002
9.777487e+002,2.458000e-002
9.796772e+002,1.900490e-002
9.816057e+002,1.592481e-002
9.835342e+002,1.451679e-002
9.854627e+002,1.421822e-002
9.873912e+002,1.466485e-002
9.893197e+002,1.617543e-002
9.912482e+002,1.923691e-002
9.931767e+002,2.503000e-002
9.951052e+002,3.394303e-002
9.970337e+002,4.099184e-002
9.989622e+002,3.840509e-002
1.000891e+003,2.937846e-002
1.002819e+003,2.201727e-002
1.004748e+003,1.817472e-002
1.006676e+003,1.629905e-002
1.008605e+003,1.538035e-002
1.010533e+003,1.489853e-002
1.012462e+003,1.475640e-002
1.014390e+003,1.476846e-002
1.016319e+003,1.491809e-002
1.018247e+003,1.510375e-002
1.020176e+003,1.527361e-002
1.022104e+003,1.533368e-002
1.024033e+003,1.546498e-002
1.025961e+003,1.564988e-002
1.027890e+003,1.590810e-002
1.029818e+003,1.606560e-002
1.031747e+003,1.625624e-002
1.033675e+003,1.642314e-002
1.035604e+003,1.651603e-002
1.037532e+003,1.647083e-002
1.039461e+003,1.655348e-002
1.041389e+003,1.695534e-002
1.043318e+003,1.762170e-002
1.045246e+003,1.776027e-002
1.047175e+003,1.735320e-002
1.049103e+003,1.691639e-002
1.051032e+003,1.683508e-002
1.052960e+003,1.698781e-002
1.054889e+003,1.732412e-002
1.056817e+003,1.760502e-002
1.058746e+003,1.796103e-002
1.060674e+003,1.824261e-002
1.062603e+003,1.852742e-002
1.064531e+003,1.875025e-002
1.066460e+003,1.905442e-002
1.068388e+003,1.936949e-002
1.070317e+003,1.980056e-002
1.072245e+003,2.038769e-002
1.074174e+003,2.142645e-002
1.076102e+003,2.283581e-002
1.078031e+003,2.458114e-002
1.079959e+003,2.642599e-002
1.081888e+003,2.818541e-002
1.083816e+003,2.955336e-002
1.085745e+003,3.087700e-002
1.087673e+003,3.234205e-002
1.089602e+003,3.404303e-002
1.091530e+003,3.567340e-002
1.093459e+003,3.718767e-002
1.095387e+003,3.830309e-002
1.097316e+003,3.911801e-002
1.099244e+003,3.967950e-002
1.101173e+003,3.986401e-002
1.103101e+003,3.906235e-002
1.105030e+003,3.748059e-002
1.106958e+003,3.597087e-002
1.108887e+003,3.546724e-002
1.110815e+003,3.587127e-002
1.112744e+003,3.706897e-002
1.114672e+003,3.841404e-002
1.116601e+003,3.959168e-002
1.118529e+003,4.008648e-002
1.120458e+003,3.955603e-002
1.122386e+003,3.803311e-002
1.124315e+003,3.616727e-002
1.126243e+003,3.462062e-002
1.128172e+003,3.417066e-002
1.130100e+003,3.514176e-002
1.132029e+003,3.767753e-002
1.133957e+003,4.139042e-002
1.135885e+003,4.600988e-002
1.137814e+003,5.095844e-002
1.139743e+003,5.571338e-002
1.141671e+003,5.979688e-002
1.143600e+003,6.332020e-002
1.145528e+003,6.657845e-002
1.147457e+003,7.025371e-002
1.149385e+003,7.429190e-002
1.151314e+003,7.831484e-002
1.153242e+003,8.146535e-002
1.155171e+003,8.413853e-002
1.157099e+003,8.673070e-002
1.159028e+003,8.959257e-002
1.160956e+003,9.271393e-002
1.162885e+003,9.644237e-002
1.164813e+003,1.001430e-001
1.166742e+003,1.014576e-001
1.168670e+003,9.661382e-002
1.170599e+003,8.672630e-002
1.172527e+003,7.662985e-002
1.174456e+003,6.901679e-002
1.176384e+003,6.345254e-002
1.178313e+003,5.932771e-002
1.180241e+003,5.598729e-002
1.182170e+003,5.331748e-002
1.184098e+003,5.100963e-002
1.186027e+003,4.908213e-002
1.187955e+003,4.733259e-002
1.189884e+003,4.582512e-002
1.191812e+003,4.428804e-002
1.193740e+003,4.287239e-002
1.195669e+003,4.149563e-002
1.197598e+003,4.038118e-002
1.199526e+003,3.950381e-002
1.201455e+003,3.892200e-002
1.203383e+003,3.855275e-002
1.205312e+003,3.852289e-002
1.207240e+003,3.858929e-002
1.209168e+003,3.875463e-002
1.211097e+003,3.886031e-002
1.213026e+003,3.912888e-002
1.214954e+003,3.948262e-002
1.216883e+003,4.003571e-002
1.218811e+003,4.052379e-002
1.220740e+003,4.089668e-002
1.222668e+003,4.101121e-002
1.224596e+003,4.136768e-002
1.226525e+003,4.187063e-002
1.228453e+003,4.253200e-002
1.230382e+003,4.313833e-002
1.232311e+003,4.378310e-002
1.234239e+003,4.429835e-002
1.236167e+003,4.478404e-002
1.238096e+003,4.499006e-002
1.240025e+003,4.496358e-002
1.241953e+003,4.446995e-002
1.243882e+003,4.367407e-002
1.245810e+003,4.247515e-002
1.247739e+003,4.120472e-002
1.249667e+003,4.012646e-002
1.251595e+003,3.995437e-002
1.253524e+003,4.062880e-002
1.255453e+003,4.066587e-002
1.257381e+003,3.864536e-002
1.259310e+003,3.611460e-002
1.261238e+003,3.396389e-002
1.263167e+003,3.239752e-002
1.265095e+003,3.102507e-002
1.267023e+003,2.991331e-002
1.268952e+003,2.891014e-002
1.270880e+003,2.824859e-002
1.272809e+003,2.781239e-002
1.274738e+003,2.775436e-002
1.276666e+003,2.776318e-002
1.278594e+003,2.776912e-002
1.280523e+003,2.744403e-002
1.282451e+003,2.686042e-002
1.284380e+003,2.602626e-002
1.286308e+003,2.538721e-002
1.288237e+003,2.501074e-002
1.290166e+003,2.524224e-002
1.292094e+003,2.586570e-002
1.294022e+003,2.668191e-002
1.295951e+003,2.700862e-002
1.297879e+003,2.704932e-002
1.299808e+003,2.729541e-002
1.301736e+003,2.870047e-002
1.303665e+003,3.013566e-002
1.305594e+003,2.900285e-002
1.307522e+003,2.577011e-002
1.309450e+003,2.370464e-002
1.311379e+003,2.288723e-002
1.313307e+003,2.277216e-002
1.315236e+003,2.275136e-002
1.317164e+003,2.301910e-002
1.319093e+003,2.316413e-002
1.321021e+003,2.338604e-002
1.322950e+003,2.357566e-002
1.324878e+003,2.410684e-002
1.326807e+003,2.431974e-002
1.328735e+003,2.442746e-002
1.330664e+003,2.386843e-002
1.332592e+003,2.319880e-002
1.334521e+003,2.274626e-002
1.336449e+003,2.305136e-002
1.338378e+003,2.362541e-002
1.340306e+003,2.484111e-002
1.342235e+003,2.576414e-002
1.344163e+003,2.714218e-002
1.346092e+003,2.878097e-002
1.348021e+003,3.112626e-002
1.349949e+003,3.383868e-002
1.351877e+003,3.787902e-002
1.353806e+003,4.351505e-002
1.355734e+003,5.160566e-002
1.357663e+003,5.761172e-002
1.359591e+003,5.830003e-002
1.361520e+003,5.382683e-002
1.363448e+003,5.018447e-002
1.365377e+003,4.991905e-002
1.367305e+003,5.582527e-002
1.369234e+003,7.239599e-002
1.371162e+003,1.038683e-001
1.373091e+003,1.522842e-001
1.375019e+003,2.002500e-001
1.376948e+003,1.825288e-001
1.378876e+003,1.297117e-001
1.380805e+003,8.547320e-002
1.382733e+003,5.713698e-002
1.384662e+003,4.039047e-002
1.386590e+003,3.052352e-002
1.388519e+003,2.469095e-002
1.390447e+003,2.168216e-002
1.392376e+003,2.005833e-002
1.394304e+003,1.882780e-002
1.396233e+003,1.853197e-002
1.398161e+003,1.842997e-002
1.400090e+003,1.874420e-002
1.402018e+003,1.865389e-002
1.403947e+003,1.851863e-002
1.405875e+003,1.783071e-002
1.407804e+003,1.759304e-002
1.409732e+003,1.789582e-002
1.411661e+003,1.921801e-002
1.413589e+003,2.085729e-002
1.415518e+003,2.245696e-002
1.417446e+003,2.340025e-002
1.419375e+003,2.356076e-002
1.421303e+003,2.313228e-002
1.423232e+003,2.310896e-002
1.425160e+003,2.394437e-002
1.427089e+003,2.586454e-002
1.429017e+003,2.976494e-002
1.430946e+003,3.738447e-002
1.432874e+003,4.748910e-002
1.434803e+003,5.599236e-002
1.436731e+003,5.965382e-002
1.438660e+003,6.079232e-002
1.440588e+003,6.476760e-002
1.442517e+003,7.349218e-002
1.444445e+003,8.741647e-002
1.446374e+003,1.046468e-001
1.448302e+003,1.245878e-001
1.450231e+003,1.354557e-001
1.452159e+003,1.415351e-001
1.454088e+003,1.449828e-001
1.456016e+003,1.478162e-001
1.457945e+003,1.452525e-001
1.459873e+003,1.419224e-001
1.461802e+003,1.362261e-001
1.463730e+003,1.279923e-001
1.465659e+003,1.107705e-001
1.467587e+003,9.351378e-002
1.469516e+003,7.474826e-002
1.471444e+003,5.599784e-002
1.473373e+003,3.467835e-002
1.475301e+003,2.650731e-002
1.477230e+003,2.069367e-002
1.479158e+003,1.746440e-002
1.481087e+003,1.462759e-002
1.483015e+003,1.257818e-002
1.484944e+003,1.113175e-002
1.486872e+003,1.032150e-002
1.488801e+003,9.469595e-003
1.490729e+003,8.752240e-003
1.492658e+003,8.006208e-003
1.494586e+003,7.696616e-003
1.496515e+003,7.248718e-003
1.498443e+003,7.041208e-003
1.500372e+003,6.487781e-003
1.502300e+003,6.118231e-003
1.504229e+003,5.675960e-003
1.506157e+003,5.523849e-003
1.508086e+003,5.557679e-003
1.510014e+003,5.642006e-003
1.511943e+003,5.421957e-003
1.513871e+003,5.320204e-003
1.515800e+003,5.199045e-003
1.517728e+003,5.284330e-003
1.519657e+003,5.265011e-003
1.521585e+003,5.346922e-003
1.523514e+003,5.042979e-003
1.525442e+003,4.853034e-003
1.527371e+003,4.848948e-003
1.529299e+003,5.036809e-003
1.531228e+003,5.002540e-003
1.533156e+003,5.175520e-003
1.535085e+003,5.142143e-003
1.537013e+003,5.105641e-003
1.538942e+003,5.141580e-003
1.540870e+003,5.563568e-003
1.542799e+003,5.208591e-003
1.544727e+003,5.202059e-003
1.546656e+003,5.099008e-003
1.548584e+003,5.201144e-003
1.550513e+003,4.978711e-003
1.552441e+003,4.850464e-003
1.554370e+003,4.667753e-003
1.556298e+003,4.667852e-003
1.558227e+003,4.668817e-003
1.560155e+003,4.335798e-003
1.562084e+003,3.988678e-003
1.564012e+003,3.879590e-003
1.565941e+003,3.757847e-003
1.567869e+003,3.680663e-003
1.569798e+003,3.598062e-003
1.571726e+003,3.554936e-003
1.573655e+003,3.405675e-003
1.575583e+003,3.433764e-003
1.577512e+003,3.507286e-003
1.579440e+003,3.425777e-003
1.581369e+003,3.269322e-003
1.583297e+003,3.214601e-003
1.585226e+003,3.165135e-003
1.587154e+003,3.198743e-003
1.589083e+003,3.243910e-003
1.591011e+003,3.291057e-003
1.592940e+003,3.339648e-003
1.594868e+003,3.479447e-003
1.596797e+003,3.548469e-003
1.598725e+003,3.592117e-003
1.600654e+003,3.632771e-003
1.602582e+003,3.647042e-003
1.604511e+003,3.741872e-003
1.606439e+003,3.995582e-003
1.608368e+003,4.136588e-003
1.610296e+003,4.184943e-003
1.612225e+003,4.225882e-003
1.614153e+003,4.313879e-003
1.616082e+003,4.741708e-003
1.618010e+003,4.997028e-003
1.619939e+003,4.847918e-003
1.621867e+003,4.956825e-003
1.623796e+003,5.465792e-003
1.625724e+003,5.802071e-003
1.627653e+003,5.976524e-003
1.629581e+003,6.059811e-003
1.631510e+003,6.109525e-003
1.633438e+003,6.283959e-003
1.635367e+003,6.787626e-003
1.637295e+003,7.210804e-003
1.639224e+003,7.304806e-003
1.641152e+003,7.455084e-003
1.643081e+003,7.859549e-003
1.645009e+003,8.256707e-003
1.646938e+003,9.015664e-003
1.648866e+003,9.339079e-003
1.650795e+003,9.329392e-003
1.652723e+003,9.548178e-003
1.654652e+003,1.011466e-002
1.656580e+003,9.767476e-003
1.658509e+003,9.340113e-003
1.660437e+003,8.975472e-003
1.662366e+003,8.564111e-003
1.664294e+003,8.237312e-003
1.666223e+003,8.031551e-003
1.668151e+003,7.817434e-003
1.670080e+003,7.685456e-003
1.672008e+003,7.574758e-003
1.673937e+003,7.654529e-003
1.675865e+003,7.728642e-003
1.677794e+003,7.629471e-003
1.679722e+003,7.545279e-003
1.681651e+003,7.398628e-003
1.683579e+003,7.489717e-003
1.685508e+003,7.897072e-003
1.687436e+003,7.981025e-003
1.689365e+003,8.123934e-003
1.691293e+003,8.241754e-003
1.693222e+003,8.276183e-003
1.695150e+003,8.729283e-003
1.697079e+003,9.530725e-003
1.699007e+003,9.879541e-003
1.700936e+003,1.052348e-002
1.702864e+003,1.100695e-002
1.704793e+003,1.149052e-002
1.706721e+003,1.215388e-002
1.708650e+003,1.265575e-002
1.710578e+003,1.318558e-002
1.712507e+003,1.385819e-002
1.714435e+003,1.469069e-002
1.716364e+003,1.602620e-002
1.718292e+003,1.859662e-002
1.720221e+003,2.078347e-002
1.722149e+003,2.311481e-002
1.724078e+003,2.708463e-002
1.726006e+003,3.176099e-002
1.727935e+003,3.774448e-002
1.729863e+003,4.688386e-002
1.731792e+003,5.660237e-002
1.733720e+003,7.429165e-002
1.735649e+003,9.964995e-002
1.737577e+003,1.137012e-001
1.739506e+003,1.373427e-001
1.741434e+003,1.584171e-001
1.743363e+003,1.716659e-001
1.745291e+003,1.768133e-001
1.747220e+003,1.730619e-001
1.749148e+003,1.583249e-001
1.751077e+003,1.356206e-001
1.753005e+003,1.108307e-001
1.754934e+003,9.224557e-002
1.756862e+003,6.959334e-002
1.758791e+003,5.209022e-002
1.760719e+003,4.014415e-002
1.762648e+003,2.874992e-002
1.764576e+003,2.206246e-002
1.766505e+003,1.782130e-002
1.768433e+003,1.408426e-002
1.770362e+003,1.209698e-002
1.772290e+003,1.018487e-002
1.774219e+003,8.543352e-003
1.776147e+003,7.268053e-003
1.778076e+003,6.439948e-003
1.780004e+003,5.932819e-003
1.781933e+003,5.386136e-003
1.783861e+003,4.958607e-003
1.785790e+003,4.524391e-003
1.787718e+003,4.058998e-003
1.789646e+003,3.719619e-003
1.791575e+003,3.458994e-003
1.793504e+003,3.158657e-003
1.795432e+003,2.866521e-003
1.797361e+003,2.572080e-003
1.799289e+003,2.402844e-003
1.801218e+003,2.235169e-003
1.803146e+003,2.011754e-003
1.805074e+003,1.828467e-003
1.807003e+003,1.668438e-003
1.808932e+003,1.379840e-003
1.810860e+003,9.998623e-004
1.812789e+003,7.690191e-004
1.814717e+003,5.735196e-004
1.816646e+003,2.937950e-004
1.818574e+003,5.202573e-004
1.820502e+003,7.525608e-004
1.822431e+003,8.402523e-004
1.824360e+003,7.956587e-004
1.826288e+003,5.908832e-004
1.828217e+003,5.613882e-004
1.830145e+003,4.661251e-004
1.832073e+003,3.622472e-004
1.834002e+003,3.306288e-004
1.835931e+003,1.875721e-004
1.837859e+003,1.706053e-004
1.839788e+003,7.820688e-005
1.841716e+003,-3.185123e-007
1.843645e+003,8.493848e-005
1.845573e+003,3.236905e-005
1.847501e+003,-1.009554e-004
1.849430e+003,-1.400337e-004
1.851359e+003,-3.300812e-004
1.853287e+003,-4.181955e-004
1.855216e+003,-4.404970e-004
1.857144e+003,-3.739633e-004
1.859073e+003,-3.222544e-004
1.861001e+003,-3.069732e-004
1.862929e+003,-4.865453e-004
1.864858e+003,-3.446899e-004
1.866787e+003,-1.912527e-004
1.868715e+003,-2.844054e-004
1.870644e+003,-5.834326e-004
1.872572e+003,-6.460249e-004
1.874500e+003,-7.170867e-004
1.876429e+003,-6.048437e-004
1.878357e+003,-4.993863e-004
1.880286e+003,-3.789682e-004
1.882215e+003,-5.948991e-004
1.884143e+003,-7.238965e-004
1.886072e+003,-8.825231e-004
1.888000e+003,-5.561244e-004
1.889928e+003,-4.030224e-004
1.891857e+003,-5.584415e-004
1.893785e+003,-5.703922e-004
1.895714e+003,-5.830228e-004
1.897643e+003,-6.162375e-004
1.899571e+003,-6.878264e-004
1.901500e+003,-6.820001e-004
1.903428e+003,-6.761793e-004
1.905356e+003,-6.703660e-004
1.907285e+003,-6.645620e-004
1.909213e+003,-6.587617e-004
1.911142e+003,-6.529670e-004
1.913071e+003,-6.471816e-004
1.914999e+003,-6.414019e-004
1.916927e+003,-6.356258e-004
1.918856e+003,-6.298609e-004
1.920784e+003,-6.240997e-004
1.922713e+003,-6.183460e-004
1.924641e+003,-6.125979e-004
1.926570e+003,-6.068554e-004
1.928499e+003,-6.011222e-004
1.930427e+003,-5.953945e-004
1.932355e+003,-5.896743e-004
1.934284e+003,-5.839579e-004
1.936212e+003,-5.782489e-004
1.938141e+003,-5.725473e-004
1.940070e+003,-5.668532e-004
1.941998e+003,-5.611666e-004
1.943927e+003,-5.554836e-004
1.945855e+003,-5.498100e-004
1.947783e+003,-5.441383e-004
1.949712e+003,-5.384777e-004
1.951640e+003,-5.328227e-004
1.953569e+003,-5.271733e-004
1.955498e+003,-5.215313e-004
1.957426e+003,-5.158950e-004
1.959354e+003,-5.102679e-004
1.961283e+003,-5.046446e-004
1.963211e+003,-4.990250e-004
1.965140e+003,-4.934166e-004
1.967068e+003,-4.878156e-004
1.968997e+003,-4.822202e-004
1.970926e+003,-4.766304e-004
1.972854e+003,-4.710462e-004
1.974782e+003,-4.654713e-004
1.976711e+003,-4.599020e-004
1.978639e+003,-4.543345e-004
1.980568e+003,-4.487783e-004
1.982496e+003,-4.432295e-004
1.984425e+003,-4.376844e-004
1.986354e+003,-4.321467e-004
1.988282e+003,-4.266165e-004
1.990210e+003,-4.210938e-004
1.992139e+003,-4.155748e-004
1.994067e+003,-4.100651e-004
1.995996e+003,-4.045591e-004
1.997924e+003,-3.990605e-004
1.999853e+003,-3.935713e-004
2.001781e+003,-3.880858e-004
2.003710e+003,-3.826059e-004
2.005638e+003,-3.771354e-004
2.007567e+003,-3.716722e-004
2.009495e+003,-3.662147e-004
2.011424e+003,-3.607608e-004
2.013352e+003,-3.553145e-004
2.015281e+003,-3.498755e-004
2.017209e+003,-3.444441e-004
2.019138e+003,-3.390200e-004
2.021066e+003,-3.335997e-004
2.022995e+003,-3.281869e-004
2.024923e+003,-3.227796e-004
2.026852e+003,-3.173817e-004
2.028781e+003,-3.119893e-004
2.030709e+003,-3.066044e-004
2.032637e+003,-3.012251e-004
2.034566e+003,-2.958532e-004
2.036494e+003,-2.904832e-004
2.038423e+003,-2.851225e-004
2.040351e+003,-2.797712e-004
2.042280e+003,-2.744235e-004
2.044208e+003,-2.690833e-004
2.046137e+003,-2.637506e-004
2.048065e+003,-2.584234e-004
2.049994e+003,-2.531018e-004
2.051922e+003,-2.477895e-004
2.053851e+003,-2.424791e-004
2.055779e+003,-2.371799e-004
2.057708e+003,-2.318863e-004
2.059636e+003,-2.265982e-004
2.061565e+003,-2.213176e-004
2.063493e+003,-2.160426e-004
2.065422e+003,-2.107751e-004
2.067350e+003,-2.055150e-004
2.069279e+003,-2.002567e-004
2.071207e+003,-1.950096e-004
2.073136e+003,-1.897682e-004
2.075064e+003,-1.845341e-004
2.076993e+003,-1.793057e-004
2.078921e+003,-1.740828e-004
2.080850e+003,-1.688693e-004
2.082778e+003,-1.636613e-004
2.084707e+003,-1.584552e-004
2.086635e+003,-1.532603e-004
2.088564e+003,-1.480710e-004
2.090492e+003,-1.428891e-004
2.092421e+003,-1.377147e-004
2.094349e+003,-1.325440e-004
2.096278e+003,-1.273826e-004
2.098206e+003,-1.222230e-004
2.100135e+003,-1.170747e-004
2.102063e+003,-1.119301e-004
2.103992e+003,-1.067948e-004
2.105920e+003,-1.016669e-004
2.107849e+003,-9.654090e-005
2.109777e+003,-9.142421e-005
2.111706e+003,-8.631498e-005
2.113634e+003,-8.120947e-005
2.115563e+003,-7.611327e-005
2.117491e+003,-7.102080e-005
2.119420e+003,-6.593764e-005
2.121348e+003,-6.086007e-005
2.123277e+003,-5.578995e-005
2.125205e+003,-5.072728e-005
2.127134e+003,-4.567020e-005
2.129062e+003,-4.061498e-005
2.130991e+003,-3.557093e-005
2.132919e+003,-3.053248e-005
2.134848e+003,-2.550334e-005
2.136776e+003,-2.047792e-005
2.138705e+003,-1.545995e-005
2.140633e+003,-1.044944e-005
2.142562e+003,-5.440786e-006
2.144490e+003,-4.433095e-007
2.146419e+003,4.548579e-006
2.148347e+003,9.534881e-006
2.150276e+003,1.451187e-005
2.152204e+003,1.948513e-005
2.154133e+003,2.445094e-005
2.156061e+003,2.941303e-005
2.157990e+003,3.436580e-005
2.159918e+003,3.930926e-005
2.161847e+003,4.424900e-005
2.163775e+003,4.918315e-005
2.165704e+003,5.410612e-005
2.167632e+003,5.902722e-005
2.169561e+003,6.394088e-005
2.171489e+003,6.884709e-005
2.173418e+003,7.374957e-005
2.175346e+003,7.864274e-005
2.177275e+003,8.353032e-005
2.179203e+003,8.841045e-005
2.181132e+003,9.328313e-005
2.183060e+003,9.815022e-005
2.184989e+003,1.030099e-004
2.186917e+003,1.078676e-004
2.188846e+003,1.127161e-004
2.190774e+003,1.175553e-004
2.192703e+003,1.223888e-004
2.194631e+003,1.272168e-004
2.196560e+003,1.320373e-004
2.198488e+003,1.368523e-004
2.200417e+003,1.416616e-004
2.202345e+003,1.464635e-004
2.204274e+003,1.512580e-004
2.206202e+003,1.560468e-004
2.208131e+003,1.608282e-004
2.210059e+003,1.656022e-004
2.211988e+003,1.703706e-004
2.213916e+003,1.751315e-004
2.215845e+003,1.798887e-004
2.217773e+003,1.846384e-004
2.219702e+003,1.893807e-004
2.221630e+003,1.941156e-004
2.223559e+003,1.988467e-004
2.225487e+003,2.035704e-004
2.227416e+003,2.082866e-004
2.229344e+003,2.129953e-004
2.231273e+003,2.176985e-004
2.233201e+003,2.223961e-004
2.235130e+003,2.270862e-004
2.237058e+003,2.317689e-004
2.238987e+003,2.364460e-004
2.240915e+003,2.411138e-004
2.242844e+003,2.457760e-004
2.244772e+003,2.504382e-004
2.246701e+003,2.550874e-004
2.248629e+003,2.597328e-004
2.250558e+003,2.643690e-004
2.252486e+003,2.689995e-004
2.254415e+003,2.736244e-004
2.256343e+003,2.782401e-004
2.258272e+003,2.828520e-004
2.260200e+003,2.874564e-004
2.262129e+003,2.920553e-004
2.264057e+003,2.966486e-004
2.265986e+003,3.012307e-004
2.267914e+003,3.058091e-004
2.269843e+003,3.103800e-004
2.271771e+003,3.149454e-004
2.273700e+003,3.195051e-004
2.275628e+003,3.240593e-004
2.277557e+003,3.286041e-004
2.279485e+003,3.331434e-004
2.281414e+003,3.376734e-004
2.283342e+003,3.421977e-004
2.285271e+003,3.467184e-004
2.287199e+003,3.512315e-004
2.289128e+003,3.557391e-004
2.291056e+003,3.602393e-004
2.292985e+003,3.647301e-004
2.294913e+003,3.692191e-004
2.296842e+003,3.736969e-004
2.298770e+003,3.781710e-004
2.300699e+003,3.826357e-004
2.302627e+003,3.870986e-004
2.304556e+003,3.915522e-004
2.306484e+003,3.959984e-004
2.308413e+003,4.004389e-004
2.310341e+003,4.048720e-004
2.312270e+003,4.092976e-004
2.314198e+003,4.137196e-004
2.316127e+003,4.181322e-004
2.318055e+003,4.225392e-004
2.319984e+003,4.269425e-004
2.321912e+003,4.313365e-004
2.323841e+003,4.357267e-004
2.325769e+003,4.401058e-004
2.327698e+003,4.444811e-004
2.329626e+003,4.488491e-004
2.331555e+003,4.532076e-004
2.333483e+003,4.575681e-004
2.335412e+003,4.619155e-004
2.337340e+003,4.662555e-004
2.339269e+003,4.705917e-004
2.341197e+003,4.749186e-004
2.343126e+003,4.792381e-004
2.345054e+003,4.835557e-004
2.346983e+003,4.878677e-004
2.348911e+003,4.921705e-004
2.350840e+003,4.964657e-004
2.352768e+003,5.007535e-004
2.354697e+003,5.050357e-004
2.356625e+003,5.093124e-004
2.358554e+003,5.135816e-004
2.360482e+003,5.178452e-004
2.362411e+003,5.220994e-004
2.364339e+003,5.263537e-004
2.366268e+003,5.305968e-004
2.368196e+003,5.348306e-004
2.370125e+003,5.390625e-004
2.372053e+003,5.432852e-004
2.373982e+003,5.475022e-004
2.375910e+003,5.517118e-004
2.377839e+003,5.559176e-004
2.379767e+003,5.601160e-004
2.381696e+003,5.643051e-004
2.383624e+003,5.684905e-004
2.385553e+003,5.726684e-004
2.387481e+003,5.768389e-004
2.389410e+003,5.810037e-004
2.391338e+003,5.851611e-004
2.393267e+003,5.893148e-004
2.395195e+003,5.934592e-004
2.397124e+003,5.975962e-004
2.399052e+003,6.017275e-004
2.400981e+003,6.758794e-004
2.402909e+003,5.504936e-004
2.404838e+003,5.620755e-004
2.406766e+003,9.270590e-004
2.408695e+003,1.213208e-003
2.410623e+003,1.127379e-003
2.412552e+003,9.606909e-004
2.414480e+003,7.963758e-004
2.416409e+003,8.936618e-004
2.418337e+003,9.296574e-004
2.420266e+003,9.148251e-004
2.422194e+003,9.531025e-004
2.424123e+003,1.203790e-003
2.426051e+003,1.351969e-003
2.427979e+003,1.342902e-003
2.429908e+003,1.352960e-003
2.431837e+003,1.438547e-003
2.433765e+003,1.469435e-003
2.435694e+003,1.307197e-003
2.437622e+003,1.169313e-003
2.439551e+003,1.150878e-003
2.441479e+003,1.237899e-003
2.443407e+003,1.308784e-003
2.445336e+003,1.217104e-003
2.447265e+003,1.301447e-003
2.449193e+003,1.464061e-003
2.451122e+003,1.565889e-003
2.453050e+003,1.542583e-003
2.454979e+003,1.483103e-003
2.456907e+003,1.487300e-003
2.458836e+003,1.490997e-003
2.460764e+003,1.490923e-003
2.462693e+003,1.427492e-003
2.464621e+003,1.279807e-003
2.466550e+003,1.212843e-003
2.468478e+003,1.174102e-003
2.470406e+003,1.175912e-003
2.472335e+003,1.168052e-003
2.474264e+003,1.220012e-003
2.476192e+003,1.120644e-003
2.478121e+003,1.178013e-003
2.480049e+003,1.276752e-003
2.481978e+003,1.310624e-003
2.483906e+003,1.295600e-003
2.485835e+003,1.327412e-003
2.487763e+003,1.476580e-003
2.489692e+003,1.563132e-003
2.491620e+003,1.627289e-003
2.493549e+003,1.761451e-003
2.495477e+003,1.758764e-003
2.497406e+003,1.658285e-003
2.499334e+003,1.687000e-003
2.501263e+003,1.714902e-003
2.503191e+003,1.541914e-003
2.505120e+003,1.547759e-003
2.507048e+003,1.603864e-003
2.508977e+003,1.664737e-003
2.510905e+003,1.738586e-003
2.512833e+003,1.818607e-003
2.514762e+003,1.860017e-003
2.516691e+003,1.979074e-003
2.518619e+003,2.020484e-003
2.520548e+003,2.255704e-003
2.522476e+003,2.245229e-003
2.524405e+003,2.300393e-003
2.526333e+003,2.460016e-003
2.528261e+003,2.603550e-003
2.530190e+003,2.774332e-003
2.532119e+003,2.847619e-003
2.534047e+003,2.806360e-003
2.535976e+003,2.918066e-003
2.537904e+003,3.012585e-003
2.539833e+003,3.074406e-003
2.541761e+003,3.092026e-003
2.543689e+003,3.255775e-003
2.545618e+003,3.325956e-003
2.547547e+003,3.485711e-003
2.549475e+003,3.613615e-003
2.551404e+003,3.579548e-003
2.553332e+003,3.570879e-003
2.555260e+003,3.780182e-003
2.557189e+003,3.939845e-003
2.559117e+003,4.085554e-003
2.561046e+003,4.117740e-003
2.562975e+003,4.215436e-003
2.564903e+003,4.195862e-003
2.566832e+003,4.278874e-003
2.568760e+003,4.576754e-003
2.570688e+003,4.725792e-003
2.572617e+003,5.051628e-003
2.574546e+003,5.533507e-003
2.576474e+003,5.875500e-003
2.578403e+003,6.231546e-003
2.580331e+003,6.554937e-003
2.582260e+003,6.474765e-003
2.584188e+003,6.127136e-003
2.586116e+003,5.931417e-003
2.588045e+003,5.910015e-003
2.589974e+003,5.683992e-003
2.591902e+003,5.524127e-003
2.593831e+003,5.554078e-003
2.595759e+003,5.513079e-003
2.597688e+003,5.415056e-003
2.599616e+003,5.503355e-003
2.601544e+003,5.717574e-003
2.603473e+003,5.831169e-003
2.605402e+003,6.064732e-003
2.607330e+003,6.337099e-003
2.609259e+003,6.577503e-003
2.611187e+003,6.832469e-003
2.613115e+003,7.104620e-003
2.615044e+003,7.245505e-003
2.616972e+003,7.331731e-003
2.618901e+003,7.422455e-003
2.620830e+003,7.520190e-003
2.622758e+003,7.429773e-003
2.624687e+003,7.384924e-003
2.626615e+003,7.481633e-003
2.628543e+003,7.562401e-003
2.630472e+003,7.527024e-003
2.632400e+003,7.592902e-003
2.634329e+003,7.648695e-003
2.636258e+003,7.721938e-003
2.638186e+003,7.892245e-003
2.640115e+003,8.143283e-003
2.642043e+003,8.387137e-003
2.643971e+003,8.555818e-003
2.645900e+003,8.661529e-003
2.647828e+003,8.774171e-003
2.649757e+003,8.983647e-003
2.651686e+003,9.222550e-003
2.653614e+003,9.376874e-003
2.655542e+003,9.621184e-003
2.657471e+003,9.809675e-003
2.659399e+003,9.823995e-003
2.661328e+003,9.725576e-003
2.663256e+003,9.530347e-003
2.665185e+003,9.307228e-003
2.667114e+003,9.225739e-003
2.669042e+003,9.279849e-003
2.670970e+003,9.418979e-003
2.672899e+003,9.552738e-003
2.674827e+003,9.653373e-003
2.676756e+003,9.732982e-003
2.678685e+003,9.745983e-003
2.680613e+003,9.729998e-003
2.682542e+003,9.709379e-003
2.684470e+003,9.644728e-003
2.686398e+003,9.579968e-003
2.688327e+003,9.494962e-003
2.690255e+003,9.433573e-003
2.692184e+003,9.398507e-003
2.694113e+003,9.314535e-003
2.696041e+003,9.250909e-003
2.697969e+003,9.348357e-003
2.699898e+003,9.439653e-003
2.701826e+003,9.567576e-003
2.703755e+003,9.804271e-003
2.705683e+003,1.004124e-002
2.707612e+003,1.042268e-002
2.709541e+003,1.094932e-002
2.711469e+003,1.152476e-002
2.713397e+003,1.220778e-002
2.715326e+003,1.298565e-002
2.717254e+003,1.383926e-002
2.719183e+003,1.483759e-002
2.721111e+003,1.556039e-002
2.723040e+003,1.564428e-002
2.724969e+003,1.526404e-002
2.726897e+003,1.457594e-002
2.728825e+003,1.385034e-002
2.730754e+003,1.329746e-002
2.732682e+003,1.289916e-002
2.734611e+003,1.245870e-002
2.736539e+003,1.199460e-002
2.738468e+003,1.152373e-002
2.740396e+003,1.112529e-002
2.742325e+003,1.075776e-002
2.744253e+003,1.053062e-002
2.746182e+003,1.049858e-002
2.748110e+003,1.041917e-002
2.750039e+003,1.034604e-002
2.751967e+003,1.034522e-002
2.753896e+003,1.037670e-002
2.755824e+003,1.053602e-002
2.757753e+003,1.075201e-002
2.759681e+003,1.099810e-002
2.761610e+003,1.122015e-002
2.763538e+003,1.147197e-002
2.765467e+003,1.173138e-002
2.767395e+003,1.199583e-002
2.769324e+003,1.220933e-002
2.771252e+003,1.250599e-002
2.773181e+003,1.294699e-002
2.775109e+003,1.344748e-002
2.777038e+003,1.400471e-002
2.778966e+003,1.466781e-002
2.780895e+003,1.543901e-002
2.782823e+003,1.632216e-002
2.784752e+003,1.734698e-002
2.786680e+003,1.850296e-002
2.788609e+003,1.978421e-002
2.790537e+003,2.114898e-002
2.792466e+003,2.240825e-002
2.794394e+003,2.345563e-002
2.796323e+003,2.440396e-002
2.798251e+003,2.536358e-002
2.800180e+003,2.665341e-002
2.802108e+003,2.849516e-002
2.804037e+003,3.068339e-002
2.805965e+003,3.298244e-002
2.807894e+003,3.513530e-002
2.809822e+003,3.715350e-002
2.811751e+003,3.930615e-002
2.813679e+003,4.173901e-002
2.815608e+003,4.464171e-002
2.817536e+003,4.812837e-002
2.819465e+003,5.237732e-002
2.821393e+003,5.773820e-002
2.823322e+003,6.460894e-002
2.825250e+003,7.365170e-002
2.827179e+003,8.613364e-002
2.829107e+003,1.041647e-001
2.831036e+003,1.301982e-001
2.832964e+003,1.645721e-001
2.834893e+003,2.013350e-001
2.836821e+003,2.288802e-001
2.838750e+003,2.402445e-001
2.840678e+003,2.380657e-001
2.842607e+003,2.313417e-001
2.844535e+003,2.296082e-001
2.846464e+003,2.375034e-001
2.848392e+003,2.532695e-001
2.850321e+003,2.710027e-001
2.852249e+003,2.830883e-001
2.854178e+003,2.841742e-001
2.856106e+003,2.754124e-001
2.858035e+003,2.641369e-001
2.859963e+003,2.590260e-001
2.861892e+003,2.642587e-001
2.863820e+003,2.737628e-001
2.865749e+003,2.756137e-001
2.867677e+003,2.672227e-001
2.869606e+003,2.559154e-001
2.871534e+003,2.463447e-001
2.873463e+003,2.397714e-001
2.875391e+003,2.367964e-001
2.877320e+003,2.345526e-001
2.879248e+003,2.300038e-001
2.881177e+003,2.249032e-001
2.883105e+003,2.219110e-001
2.885034e+003,2.219560e-001
2.886962e+003,2.248376e-001
2.888891e+003,2.302881e-001
2.890819e+003,2.389492e-001
2.892748e+003,2.517582e-001
2.894676e+003,2.692979e-001
2.896605e+003,2.917699e-001
2.898533e+003,3.183130e-001
2.900462e+003,3.477446e-001
2.902390e+003,3.791262e-001
2.904319e+003,4.110835e-001
2.906247e+003,4.418323e-001
2.908176e+003,4.728237e-001
2.910104e+003,5.100802e-001
2.912033e+003,5.598387e-001
2.913961e+003,6.195094e-001
2.915890e+003,6.716477e-001
2.917818e+003,6.953402e-001
2.919747e+003,6.886055e-001
2.921675e+003,6.647850e-001
2.923604e+003,6.323135e-001
2.925532e+003,5.910985e-001
2.927461e+003,5.407488e-001
2.929389e+003,4.856773e-001
2.931318e+003,4.324835e-001
2.933246e+003,3.855819e-001
2.935175e+003,3.474608e-001
2.937103e+003,3.197379e-001
2.939032e+003,3.040453e-001
2.940960e+003,3.032757e-001
2.942889e+003,3.193040e-001
2.944817e+003,3.493884e-001
2.946746e+003,3.838820e-001
2.948674e+003,4.065737e-001
2.950603e+003,4.038733e-001
2.952531e+003,3.800604e-001
2.954460e+003,3.535347e-001
2.956388e+003,3.377012e-001
2.958317e+003,3.309435e-001
2.960245e+003,3.204885e-001
2.962174e+003,2.947430e-001
2.964102e+003,2.569178e-001
2.966031e+003,2.175118e-001
2.967959e+003,1.815183e-001
2.969888e+003,1.498708e-001
2.971816e+003,1.232032e-001
2.973745e+003,1.016491e-001
2.975673e+003,8.473334e-002
2.977602e+003,7.142603e-002
2.979530e+003,6.101787e-002
2.981459e+003,5.282957e-002
2.983387e+003,4.633306e-002
2.985316e+003,4.135581e-002
2.987244e+003,3.763357e-002
2.989173e+003,3.492152e-002
2.991101e+003,3.312693e-002
2.993030e+003,3.227583e-002
2.994958e+003,3.259309e-002
2.996887e+003,3.375656e-002
2.998815e+003,3.550714e-002
3.000744e+003,3.733893e-002
3.002672e+003,3.861551e-002
3.004601e+003,3.895141e-002
3.006529e+003,3.820739e-002
3.008458e+003,3.629249e-002
3.010386e+003,3.340370e-002
3.012315e+003,2.981421e-002
3.014243e+003,2.602160e-002
3.016172e+003,2.252352e-002
3.018100e+003,1.938634e-002
3.020029e+003,1.670808e-002
3.021957e+003,1.464799e-002
3.023886e+003,1.300498e-002
3.025814e+003,1.165016e-002
3.027743e+003,1.053075e-002
3.029671e+003,9.682452e-003
3.031600e+003,9.082252e-003
3.033528e+003,8.608248e-003
3.035457e+003,8.110587e-003
3.037385e+003,7.676013e-003
3.039314e+003,7.292241e-003
3.041242e+003,7.070314e-003
3.043171e+003,6.901994e-003
3.045099e+003,6.697029e-003
3.047028e+003,6.520085e-003
3.048956e+003,6.393757e-003
3.050885e+003,6.294832e-003
3.052813e+003,6.258629e-003
3.054742e+003,6.108873e-003
3.056670e+003,5.929254e-003
3.058599e+003,5.926192e-003
3.060527e+003,5.903710e-003
3.062456e+003,5.824741e-003
3.064384e+003,5.750045e-003
3.066313e+003,5.718403e-003
3.068241e+003,5.685039e-003
3.070170e+003,5.525470e-003
3.072098e+003,5.250499e-003
3.074027e+003,4.999410e-003
3.075955e+003,4.908297e-003
3.077884e+003,4.758168e-003
3.079812e+003,4.669614e-003
3.081741e+003,4.538883e-003
3.083669e+003,4.388042e-003
3.085598e+003,4.270524e-003
3.087526e+003,4.145507e-003
3.089455e+003,4.071642e-003
3.091383e+003,4.129708e-003
3.093312e+003,4.191209e-003
3.095240e+003,4.129421e-003
3.097169e+003,4.070718e-003
3.099097e+003,3.982514e-003
3.101026e+003,3.903262e-003
3.102954e+003,3.887150e-003
3.104883e+003,3.837101e-003
3.106811e+003,3.858346e-003
3.108740e+003,3.858864e-003
3.110668e+003,3.752690e-003
3.112597e+003,3.724005e-003
3.114525e+003,3.887292e-003
3.116454e+003,3.986418e-003
3.118382e+003,3.909945e-003
3.120311e+003,3.810752e-003
3.122239e+003,3.845718e-003
3.124168e+003,3.960647e-003
3.126096e+003,4.087325e-003
3.128025e+003,4.153900e-003
3.129953e+003,4.156109e-003
3.131882e+003,4.196689e-003
3.133810e+003,4.266527e-003
3.135739e+003,4.215423e-003
3.137667e+003,4.212514e-003
3.139596e+003,4.241224e-003
3.141524e+003,4.240982e-003
3.143453e+003,4.254315e-003
3.145381e+003,4.365299e-003
3.147310e+003,4.431311e-003
3.149238e+003,4.481215e-003
3.151167e+003,4.466381e-003
3.153095e+003,4.446685e-003
3.155024e+003,4.437923e-003
3.156952e+003,4.421294e-003
3.158881e+003,4.400760e-003
3.160809e+003,4.389122e-003
3.162738e+003,4.355501e-003
3.164666e+003,4.441399e-003
3.166594e+003,4.471999e-003
3.168523e+003,4.439201e-003
3.170452e+003,4.491497e-003
3.172380e+003,4.547644e-003
3.174309e+003,4.514042e-003
3.176237e+003,4.606254e-003
3.178166e+003,4.703116e-003
3.180094e+003,4.788406e-003
3.182022e+003,4.878994e-003
3.183951e+003,4.911464e-003
3.185880e+003,4.904158e-003
3.187808e+003,4.979767e-003
3.189737e+003,5.027428e-003
3.191665e+003,5.031999e-003
3.193594e+003,5.044933e-003
3.195522e+003,5.115557e-003
3.197450e+003,5.196493e-003
3.199379e+003,5.262375e-003
3.201308e+003,5.278174e-003
3.203236e+003,5.086385e-003
3.205165e+003,4.864268e-003
3.207093e+003,4.909854e-003
3.209021e+003,4.946090e-003
3.210950e+003,4.919499e-003
3.212878e+003,4.835103e-003
3.214807e+003,4.756518e-003
3.216736e+003,4.701924e-003
3.218664e+003,4.549857e-003
3.220593e+003,4.457027e-003
3.222521e+003,4.375160e-003
3.224449e+003,4.312728e-003
3.226378e+003,4.251640e-003
3.228307e+003,4.239585e-003
3.230235e+003,4.226733e-003
3.232164e+003,4.181523e-003
3.234092e+003,4.156169e-003
3.236021e+003,4.071318e-003
3.237949e+003,4.034180e-003
3.239877e+003,4.100621e-003
3.241806e+003,4.201222e-003
3.243735e+003,4.265290e-003
3.245663e+003,4.207816e-003
3.247592e+003,4.184645e-003
3.249520e+003,4.257414e-003
3.251448e+003,4.374534e-003
3.253377e+003,4.495453e-003
3.255305e+003,4.495066e-003
3.257234e+003,4.496004e-003
3.259163e+003,4.583355e-003
3.261091e+003,4.656259e-003
3.263020e+003,4.654489e-003
3.264948e+003,4.741743e-003
3.266876e+003,4.769590e-003
3.268805e+003,4.765190e-003
3.270733e+003,4.834376e-003
3.272662e+003,4.870769e-003
3.274591e+003,4.924480e-003
3.276519e+003,5.098071e-003
3.278448e+003,5.215168e-003
3.280376e+003,5.114552e-003
3.282304e+003,5.034383e-003
3.284233e+003,5.270615e-003
3.286161e+003,5.304568e-003
3.288090e+003,5.195893e-003
3.290019e+003,5.214922e-003
3.291947e+003,5.320631e-003
3.293875e+003,5.339622e-003
3.295804e+003,5.363349e-003
3.297732e+003,5.340822e-003
3.299661e+003,5.373321e-003
3.301589e+003,5.359638e-003
3.303518e+003,5.265716e-003
3.305447e+003,5.186982e-003
3.307375e+003,5.173597e-003
3.309303e+003,5.155563e-003
3.311232e+003,5.124874e-003
3.313160e+003,5.031530e-003
3.315089e+003,5.016629e-003
3.317018e+003,5.060662e-003
3.318946e+003,5.083151e-003
3.320875e+003,5.093560e-003
3.322803e+003,5.107936e-003
3.324731e+003,5.162954e-003
3.326660e+003,5.148143e-003
3.328588e+003,5.083099e-003
3.330517e+003,5.114358e-003
3.332446e+003,5.164605e-003
3.334374e+003,5.102489e-003
3.336302e+003,5.124703e-003
3.338231e+003,5.161151e-003
3.340159e+003,5.252566e-003
3.342088e+003,5.261797e-003
3.344016e+003,5.198836e-003
3.345945e+003,5.222615e-003
3.347874e+003,5.235236e-003
3.349802e+003,5.150449e-003
3.351730e+003,5.004507e-003
3.353659e+003,4.932728e-003
3.355587e+003,4.960146e-003
3.357516e+003,4.937407e-003
3.359444e+003,4.910853e-003
3.361373e+003,4.980739e-003
3.363302e+003,5.041767e-003
3.365230e+003,4.928123e-003
3.367158e+003,4.825585e-003
3.369087e+003,4.747827e-003
3.371015e+003,4.665028e-003
3.372944e+003,4.610032e-003
3.374872e+003,4.661918e-003
3.376801e+003,4.723053e-003
3.378729e+003,4.637498e-003
3.380658e+003,4.542865e-003
3.382586e+003,4.553806e-003
3.384515e+003,4.453242e-003
3.386443e+003,4.322607e-003
3.388372e+003,4.323736e-003
3.390300e+003,4.349545e-003
3.392229e+003,4.314888e-003
3.394157e+003,4.242755e-003
3.396086e+003,4.269116e-003
3.398014e+003,4.259426e-003
3.399943e+003,4.283041e-003
3.401871e+003,4.316628e-003
3.403800e+003,4.376426e-003
3.405728e+003,4.352141e-003
3.407657e+003,4.393339e-003
3.409585e+003,4.406616e-003
3.411514e+003,4.294161e-003
3.413442e+003,4.151490e-003
3.415371e+003,4.119419e-003
3.417299e+003,4.212782e-003
3.419228e+003,4.299603e-003
3.421156e+003,4.245762e-003
3.423085e+003,4.289709e-003
3.425013e+003,4.189283e-003
3.426942e+003,4.126180e-003
3.428870e+003,4.158441e-003
3.430799e+003,4.197963e-003
3.432727e+003,4.084274e-003
3.434656e+003,4.007623e-003
3.436584e+003,4.034478e-003
3.438513e+003,4.023448e-003
3.440441e+003,4.050322e-003
3.442370e+003,4.064925e-003
3.444298e+003,3.996562e-003
3.446227e+003,4.076924e-003
3.448155e+003,4.099287e-003
3.450084e+003,4.155714e-003
3.452012e+003,4.165564e-003
3.453941e+003,4.225370e-003
3.455869e+003,4.247013e-003
3.457798e+003,4.398361e-003
3.459726e+003,4.469100e-003
3.461655e+003,4.579268e-003
3.463583e+003,4.653361e-003
3.465512e+003,4.630692e-003
3.467440e+003,4.561368e-003
3.469369e+003,4.644886e-003
3.471297e+003,4.594497e-003
3.473226e+003,4.490737e-003
3.475154e+003,4.389700e-003
3.477083e+003,4.277423e-003
3.479011e+003,4.057068e-003
3.480940e+003,4.000153e-003
3.482868e+003,4.069142e-003
3.484797e+003,3.857560e-003
3.486725e+003,3.601175e-003
3.488654e+003,3.457371e-003
3.490582e+003,3.359124e-003
3.492511e+003,3.344383e-003
3.494439e+003,3.341269e-003
3.496368e+003,3.307465e-003
3.498296e+003,3.209852e-003
3.500225e+003,3.114268e-003
3.502153e+003,2.982032e-003
3.504082e+003,2.918266e-003
3.506010e+003,2.871484e-003
3.507939e+003,2.848964e-003
3.509867e+003,2.738118e-003
3.511796e+003,2.746414e-003
3.513724e+003,2.700962e-003
3.515653e+003,2.766006e-003
3.517581e+003,2.833508e-003
3.519510e+003,2.642639e-003
3.521438e+003,2.482455e-003
3.523367e+003,2.599109e-003
3.525295e+003,2.780966e-003
3.527224e+003,2.829213e-003
3.529152e+003,2.476435e-003
3.531081e+003,2.161141e-003
3.533009e+003,2.038006e-003
3.534938e+003,2.153769e-003
3.536866e+003,2.311610e-003
3.538795e+003,2.448708e-003
3.540723e+003,2.245385e-003
3.542652e+003,1.962774e-003
3.544580e+003,2.077814e-003
3.546509e+003,2.334483e-003
3.548437e+003,2.073370e-003
3.550366e+003,1.706589e-003
3.552294e+003,1.437470e-003
3.554223e+003,1.574680e-003
3.556151e+003,1.763888e-003
3.558080e+003,1.789141e-003
3.560008e+003,1.498397e-003
3.561937e+003,1.129366e-003
3.563865e+003,6.998815e-004
3.565794e+003,1.003176e-003
3.567722e+003,1.690291e-003
3.569651e+003,1.352627e-003
3.571579e+003,6.567985e-004
3.573508e+003,3.418289e-004
3.575436e+003,3.338419e-004
3.577365e+003,6.040558e-004
3.579293e+003,7.626824e-004
3.581222e+003,6.996877e-004
3.583150e+003,3.911592e-004
3.585079e+003,1.549907e-004
3.587007e+003,4.882514e-004
3.588936e+003,1.037285e-003
3.590864e+003,7.836558e-004
3.592793e+003,1.296699e-004
3.594721e+003,-3.780313e-004
3.596650e+003,-6.357953e-005
3.598578e+003,5.222075e-004
3.600507e+003,8.727424e-004
3.602435e+003,5.977824e-004
3.604364e+003,3.373623e-005
3.606292e+003,-2.454929e-004
3.608221e+003,4.667304e-004
3.610149e+003,7.567331e-004
3.612078e+003,3.318712e-004
3.614006e+003,-2.186671e-004
3.615935e+003,-5.175322e-004
3.617863e+003,2.696253e-004
3.619792e+003,1.215618e-003
3.621720e+003,6.721616e-004
3.623649e+003,2.045557e-005
3.625577e+003,-6.875210e-004
3.627506e+003,-5.450509e-004
3.629434e+003,7.047728e-004
3.631363e+003,5.645566e-004
3.633291e+003,-2.924800e-004
3.635220e+003,-4.738756e-004
3.637148e+003,-2.985708e-004
3.639077e+003,-1.201034e-004
3.641005e+003,2.326891e-004
3.642934e+003,-2.101138e-004
3.644862e+003,-5.785786e-004
3.646791e+003,-5.168542e-004
3.648719e+003,3.589764e-004
3.650648e+003,1.044773e-003
3.652576e+003,-6.989017e-005
3.654505e+003,-7.205009e-004
3.656433e+003,-1.029052e-003
3.658362e+003,-3.643744e-004
3.660290e+003,-8.072704e-006
3.662219e+003,-1.532212e-004
3.664147e+003,-3.542192e-004
3.666076e+003,-6.714463e-004
3.668004e+003,-6.233864e-004
3.669933e+003,-5.799532e-005
3.671861e+003,-4.832856e-004
3.673790e+003,-1.398053e-003
3.675718e+003,-2.055895e-003
3.677647e+003,-7.555746e-004
3.679575e+003,-3.043227e-004
3.681504e+003,8.229166e-005
3.683432e+003,-2.794527e-004
3.685361e+003,-1.066037e-003
3.687289e+003,-1.588169e-003
3.689218e+003,-6.072074e-004
3.691146e+003,6.595887e-004
3.693075e+003,1.230538e-004
3.695003e+003,-5.849972e-004
3.696932e+003,-1.019645e-003
3.698860e+003,-8.816049e-004
3.700789e+003,-4.090592e-004
3.702717e+003,1.044646e-004
3.704646e+003,6.709993e-005
3.706574e+003,-4.754439e-004
3.708503e+003,-9.943470e-004
3.710431e+003,-9.569451e-004
3.712360e+003,1.103804e-004
3.714288e+003,1.964495e-004
3.716217e+003,-6.589666e-005
3.718145e+003,-6.670840e-004
3.720074e+003,-8.370206e-004
3.722002e+003,-2.656430e-004
3.723931e+003,6.198175e-004
3.725859e+003,8.420460e-004
3.727788e+003,1.393296e-004
3.729716e+003,-5.147234e-004
3.731645e+003,-9.356737e-004
3.733573e+003,-2.449155e-004
3.735502e+003,1.774728e-005
3.737430e+003,-1.560338e-004
3.739359e+003,-1.754202e-004
3.741287e+003,-7.702671e-004
3.743216e+003,-1.234252e-003
3.745144e+003,-8.242317e-004
3.747073e+003,-3.727376e-004
3.749001e+003,-8.255355e-004
3.750930e+003,-6.311871e-004
3.752858e+003,-1.066059e-003
3.754787e+003,-8.710250e-004
3.756715e+003,-9.520650e-004
3.758644e+003,-6.805137e-004
3.760572e+003,-3.080852e-004
3.762501e+003,-4.308745e-004
3.764429e+003,-5.398691e-004
3.766358e+003,-6.897300e-004
3.768286e+003,-5.109087e-004
3.770215e+003,-3.600419e-004
3.772143e+003,-5.678833e-005
3.774072e+003,3.340468e-005
3.776000e+003,-2.501532e-004
3.777929e+003,-3.229380e-004
3.779857e+003,1.408085e-004
3.781786e+003,2.941787e-004
3.783714e+003,-1.166314e-004
3.785643e+003,-7.067993e-005
3.787571e+003,-7.597357e-005
3.789500e+003,-1.092255e-005
3.791428e+003,5.802363e-004
3.793357e+003,3.456250e-004
3.795285e+003,3.899932e-004
3.797214e+003,2.718419e-004
3.799142e+003,-2.817437e-004
3.801071e+003,8.783117e-005
3.802999e+003,2.968758e-004
3.804927e+003,3.996864e-005
3.806856e+003,4.707277e-005
3.808785e+003,4.537068e-004
3.810713e+003,5.489998e-004
3.812642e+003,2.339259e-004
3.814570e+003,1.841448e-004
3.816499e+003,-1.836568e-006
3.818427e+003,-6.358325e-005
3.820355e+003,-3.196076e-004
3.822284e+003,3.532581e-004
3.824213e+003,4.473776e-004
3.826141e+003,6.701797e-006
3.828070e+003,-8.564442e-006
3.829998e+003,2.763048e-005
3.831927e+003,3.962256e-004
3.833855e+003,6.842948e-004
3.835783e+003,-3.800429e-004
3.837712e+003,-6.293133e-004
3.839641e+003,-2.543405e-004
3.841569e+003,1.662076e-004
3.843498e+003,6.916970e-004
3.845426e+003,6.074533e-004
3.847354e+003,-8.236989e-005
3.849283e+003,-6.861500e-004
3.851211e+003,-9.926073e-004
3.853140e+003,3.036745e-004
3.855069e+003,1.388386e-003
3.856997e+003,4.500002e-004
3.858926e+003,-2.373606e-004
3.860854e+003,-5.373880e-004
3.862782e+003,-5.086921e-004
3.864711e+003,2.507977e-004
3.866640e+003,-2.816916e-004
3.868568e+003,-6.909072e-004
3.870497e+003,-4.829727e-004
3.872425e+003,1.145117e-004
3.874354e+003,2.901293e-004
3.876282e+003,3.261678e-004
3.878210e+003,-2.895370e-004
3.880139e+003,-2.379566e-004
3.882068e+003,-5.029142e-006
3.883996e+003,-1.514144e-004
3.885925e+003,-1.216009e-004
3.887853e+003,-1.254082e-004
3.889781e+003,-6.167293e-004
3.891710e+003,-2.736971e-005
3.893638e+003,6.583780e-004
3.895567e+003,3.458075e-004
3.897496e+003,-2.865009e-004
3.899424e+003,-7.043369e-004
3.901353e+003,-6.719381e-004
3.903281e+003,-1.775995e-004
3.905209e+003,3.213473e-004
3.907138e+003,1.061372e-004
3.909066e+003,-2.582669e-004
3.910995e+003,-1.646429e-004
3.912924e+003,-7.716566e-005
3.914852e+003,1.104698e-004
3.916781e+003,9.698421e-005
3.918709e+003,1.029111e-004
3.920637e+003,-1.333654e-005
3.922566e+003,5.204231e-005
3.924494e+003,1.531839e-005
3.926423e+003,3.265589e-005
3.928352e+003,-5.000085e-005
3.930280e+003,-1.053847e-004
3.932208e+003,3.253333e-004
3.934137e+003,3.798530e-004
3.936065e+003,2.783276e-004
3.937994e+003,2.083927e-004
3.939922e+003,1.274236e-004
3.941851e+003,4.811212e-005
3.943780e+003,1.660623e-004
3.945708e+003,6.203353e-005
3.947636e+003,-2.145767e-005
3.949565e+003,1.780167e-004
3.951493e+003,2.865940e-004
3.953422e+003,2.636053e-004
3.955351e+003,2.408586e-004
3.957279e+003,1.466200e-004
3.959208e+003,1.210980e-004
3.961136e+003,2.615005e-004
3.963064e+003,3.938377e-004
3.964993e+003,4.909039e-004
3.966921e+003,4.733019e-004
3.968850e+003,3.556758e-004
3.970779e+003,4.175305e-004
3.972707e+003,5.694181e-004
3.974635e+003,6.016046e-004
3.976564e+003,5.679168e-004
3.978492e+003,4.989319e-004
3.980421e+003,5.185530e-004
3.982349e+003,4.949085e-004
3.984278e+003,5.533621e-004
3.986207e+003,5.781688e-004
3.988135e+003,6.858855e-004
3.990063e+003,6.932877e-004
3.991992e+003,6.426685e-004
3.993920e+003,6.236099e-004
3.995849e+003,6.616525e-004
3.997777e+003,7.608309e-004
3.999706e+003,8.056313e-004
4.001635e+003,0.000000e+000
