3.991992e+002,0.000000e+000
4.011277e+002,0.000000e+000
4.030562e+002,0.000000e+000
4.049846e+002,0.000000e+000
4.069131e+002,0.000000e+000
4.088416e+002,0.000000e+000
4.107701e+002,0.000000e+000
4.126986e+002,0.000000e+000
4.146271e+002,0.000000e+000
4.165556e+002,0.000000e+000
4.184841e+002,0.000000e+000
4.204126e+002,0.000000e+000
4.223411e+002,0.000000e+000
4.242697e+002,0.000000e+000
4.261982e+002,0.000000e+000
4.281266e+002,0.000000e+000
4.300551e+002,0.000000e+000
4.319836e+002,0.000000e+000
4.339121e+002,0.000000e+000
4.358406e+002,0.000000e+000
4.377691e+002,0.000000e+000
4.396976e+002,0.000000e+000
4.416261e+002,0.000000e+000
4.435546e+002,0.000000e+000
4.454831e+002,0.000000e+000
4.474116e+002,0.000000e+000
4.493401e+002,0.000000e+000
4.512686e+002,0.000000e+000
4.531971e+002,0.000000e+000
4.551256e+002,0.000000e+000
4.570541e+002,0.000000e+000
4.589826e+002,0.000000e+000
4.609111e+002,0.000000e+000
4.628396e+002,0.000000e+000
4.647681e+002,0.000000e+000
4.666966e+002,0.000000e+000
4.686251e+002,0.000000e+000
4.705536e+002,0.000000e+000
4.724821e+002,0.000000e+000
4.744106e+002,0.000000e+000
4.763391e+002,0.000000e+000
4.782676e+002,0.000000e+000
4.801961e+002,0.000000e+000
4.821246e+002,0.000000e+000
4.840531e+002,0.000000e+000
4.859816e+002,0.000000e+000
4.879101e+002,0.000000e+000
4.898386e+002,0.000000e+000
4.917671e+002,0.000000e+000
4.936956e+002,0.000000e+000
4.956241e+002,0.000000e+000
4.975526e+002,0.000000e+000
4.994811e+002,0.000000e+000
5.014096e+002,0.000000e+000
5.033381e+002,0.000000e+000
5.052666e+002,0.000000e+000
5.071951e+002,0.000000e+000
5.091236e+002,0.000000e+000
5.110521e+002,0.000000e+000
5.129806e+002,0.000000e+000
5.149091e+002,0.000000e+000
5.168376e+002,0.000000e+000
5.187661e+002,0.000000e+000
5.206946e+002,0.000000e+000
5.226230e+002,0.000000e+000
5.245516e+002,3.039837e-005
5.264800e+002,-7.301569e-007
5.284086e+002,-8.006487e-005
5.303370e+002,-8.078571e-005
5.322656e+002,-1.558261e-004
5.341940e+002,-1.546843e-004
5.361226e+002,-2.426254e-004
5.380510e+002,-2.549123e-004
5.399796e+002,-3.585629e-004
5.419081e+002,-4.959228e-004
5.438365e+002,-6.119171e-004
5.457650e+002,-5.675741e-004
5.476935e+002,-5.749688e-004
5.496221e+002,-4.894892e-004
5.515505e+002,-3.770040e-004
5.534790e+002,-2.515689e-004
5.554075e+002,-2.046814e-004
5.573361e+002,-3.155693e-004
5.592645e+002,-5.000206e-004
5.611931e+002,-4.770672e-004
5.631215e+002,-4.456835e-004
5.650500e+002,-4.633842e-004
5.669785e+002,-4.977742e-004
5.689070e+002,-4.617851e-004
5.708355e+002,-4.166346e-004
5.727640e+002,-3.188010e-004
5.746925e+002,-3.234381e-004
5.766210e+002,-2.999473e-004
5.785495e+002,-2.874974e-004
5.804780e+002,-2.666507e-004
5.824065e+002,-3.174441e-004
5.843350e+002,-3.217980e-004
5.862635e+002,-3.953362e-004
5.881920e+002,-4.259571e-004
5.901205e+002,-5.222494e-004
5.920490e+002,-5.350960e-004
5.939775e+002,-5.040923e-004
5.959060e+002,-4.245751e-004
5.978345e+002,-3.311988e-004
5.997630e+002,-1.868317e-004
6.016915e+002,-1.739971e-004
6.036200e+002,-1.827404e-004
6.055485e+002,-2.120817e-004
6.074770e+002,-1.176680e-004
6.094055e+002,-8.201785e-005
6.113340e+002,-1.865020e-004
6.132625e+002,-3.912328e-004
6.151910e+002,-4.303204e-004
6.171195e+002,-3.840001e-004
6.190480e+002,-2.340889e-004
6.209765e+002,-9.111408e-005
6.229050e+002,1.294445e-005
6.248335e+002,-5.872920e-006
6.267620e+002,2.437271e-006
6.286905e+002,-5.047396e-005
6.306190e+002,2.215710e-005
6.325475e+002,1.200251e-004
6.344760e+002,1.116656e-004
6.364045e+002,4.179217e-005
6.383330e+002,1.048222e-004
6.402615e+002,1.108404e-004
6.421899e+002,2.262648e-005
6.441185e+002,2.184045e-005
6.460470e+002,4.573911e-005
6.479755e+002,2.686772e-005
6.499039e+002,1.452221e-004
6.518325e+002,1.149178e-004
6.537610e+002,1.115715e-004
6.556895e+002,1.086006e-004
6.576179e+002,1.126900e-004
6.595464e+002,1.469599e-004
6.614750e+002,2.441872e-004
6.634034e+002,2.005789e-004
6.653319e+002,1.857663e-004
6.672604e+002,1.427829e-004
6.691890e+002,1.217639e-004
6.711174e+002,1.201052e-004
6.730460e+002,1.235483e-004
6.749745e+002,4.806183e-005
6.769030e+002,5.781744e-005
6.788314e+002,6.979145e-005
6.807599e+002,1.214938e-004
6.826885e+002,7.593352e-005
6.846169e+002,1.203921e-004
6.865454e+002,1.123091e-004
6.884739e+002,1.730742e-004
6.904025e+002,1.974953e-004
6.923309e+002,2.664113e-004
6.942594e+002,3.092522e-004
6.961879e+002,3.337087e-004
6.981165e+002,3.462983e-004
7.000449e+002,3.998373e-004
7.019734e+002,3.553899e-004
7.039019e+002,3.942288e-004
7.058304e+002,4.419889e-004
7.077589e+002,4.132381e-004
7.096874e+002,3.539016e-004
7.116159e+002,4.209196e-004
7.135444e+002,4.262039e-004
7.154729e+002,4.930384e-004
7.174014e+002,5.156985e-004
7.193299e+002,5.786242e-004
7.212584e+002,5.839821e-004
7.231869e+002,6.304523e-004
7.251154e+002,6.552897e-004
7.270439e+002,6.365096e-004
7.289724e+002,6.161937e-004
7.309009e+002,6.009862e-004
7.328294e+002,5.865684e-004
7.347579e+002,6.208383e-004
7.366864e+002,6.273538e-004
7.386149e+002,6.335564e-004
7.405434e+002,6.035501e-004
7.424719e+002,6.294986e-004
7.444004e+002,6.669117e-004
7.463289e+002,6.695502e-004
7.482574e+002,6.376375e-004
7.501859e+002,6.774114e-004
7.521144e+002,6.859591e-004
7.540428e+002,7.527871e-004
7.559714e+002,7.865559e-004
7.578999e+002,8.040639e-004
7.598284e+002,7.824972e-004
7.617568e+002,8.067181e-004
7.636854e+002,8.717654e-004
7.656139e+002,9.367950e-004
7.675424e+002,9.364923e-004
7.694709e+002,1.019534e-003
7.713994e+002,1.078655e-003
7.733279e+002,1.094542e-003
7.752563e+002,1.112066e-003
7.771849e+002,1.139201e-003
7.791134e+002,1.163769e-003
7.810419e+002,1.276448e-003
7.829703e+002,1.419088e-003
7.848989e+002,1.670021e-003
7.868274e+002,1.834808e-003
7.887559e+002,2.046498e-003
7.906843e+002,2.292358e-003
7.926129e+002,2.543777e-003
7.945414e+002,2.771248e-003
7.964698e+002,3.114827e-003
7.983983e+002,3.507210e-003
8.003268e+002,3.910278e-003
8.022554e+002,4.441819e-003
8.041838e+002,5.567033e-003
8.061123e+002,7.284794e-003
8.080408e+002,8.794196e-003
8.099694e+002,8.657493e-003
8.118978e+002,6.972512e-003
8.138263e+002,5.173314e-003
8.157548e+002,4.136455e-003
8.176833e+002,3.631302e-003
8.196118e+002,3.484496e-003
8.215403e+002,3.394771e-003
8.234689e+002,3.410931e-003
8.253973e+002,3.465331e-003
8.273258e+002,3.700992e-003
8.292543e+002,4.033236e-003
8.311829e+002,4.501465e-003
8.331113e+002,5.092710e-003
8.350398e+002,6.279893e-003
8.369683e+002,9.366179e-003
8.388969e+002,1.617026e-002
8.408253e+002,2.018334e-002
8.427538e+002,1.482784e-002
8.446823e+002,8.208649e-003
8.466108e+002,5.290609e-003
8.485393e+002,4.235338e-003
8.504678e+002,3.706252e-003
8.523963e+002,3.326965e-003
8.543248e+002,3.082677e-003
8.562533e+002,2.894924e-003
8.581818e+002,2.838058e-003
8.601103e+002,2.769222e-003
8.620388e+002,2.682463e-003
8.639673e+002,2.510162e-003
8.658958e+002,2.443735e-003
8.678243e+002,2.441595e-003
8.697528e+002,2.458852e-003
8.716813e+002,2.407389e-003
8.736098e+002,2.426006e-003
8.755383e+002,2.380310e-003
8.774668e+002,2.447144e-003
8.793953e+002,2.384332e-003
8.813238e+002,2.377897e-003
8.832523e+002,2.492415e-003
8.851808e+002,2.638074e-003
8.871093e+002,2.726316e-003
8.890378e+002,2.942518e-003
8.909663e+002,3.327546e-003
8.928948e+002,3.926725e-003
8.948232e+002,5.025061e-003
8.967518e+002,6.778024e-003
8.986803e+002,7.999461e-003
9.006088e+002,7.466406e-003
9.025372e+002,5.641079e-003
9.044658e+002,4.004139e-003
9.063943e+002,3.098369e-003
9.083228e+002,2.791027e-003
9.102512e+002,2.631723e-003
9.121797e+002,2.480930e-003
9.141083e+002,2.372281e-003
9.160367e+002,2.313586e-003
9.179653e+002,2.337624e-003
9.198937e+002,2.354788e-003
9.218223e+002,2.319029e-003
9.237507e+002,2.380441e-003
9.256793e+002,2.421146e-003
9.276077e+002,2.546808e-003
9.295363e+002,2.619390e-003
9.314647e+002,2.697545e-003
9.333932e+002,2.811481e-003
9.353217e+002,3.177951e-003
9.372502e+002,3.665176e-003
9.391787e+002,4.135004e-003
9.411072e+002,4.134753e-003
9.430358e+002,3.832928e-003
9.449642e+002,3.553605e-003
9.468928e+002,3.425222e-003
9.488212e+002,3.429830e-003
9.507498e+002,3.596791e-003
9.526782e+002,3.769181e-003
9.546068e+002,4.010097e-003
9.565352e+002,4.304185e-003
9.584637e+002,4.777653e-003
9.603922e+002,5.314242e-003
9.623207e+002,6.030574e-003
9.642492e+002,7.280758e-003
9.661777e+002,9.516857e-003
9.681062e+002,1.367039e-002
9.700347e+002,2.035743e-002
9.719632e+002,2.544128e-002
9.738917e+002,2.383710e-002
9.758202e+002,1.799772e-002
9.777487e+002,1.256530e-002
9.796772e+002,8.882875e-003
9.816057e+002,6.869955e-003
9.835342e+002,5.920818e-003
9.854627e+002,5.755294e-003
9.873912e+002,6.184973e-003
9.893197e+002,7.257581e-003
9.912482e+002,9.170732e-003
9.931767e+002,1.283784e-002
9.951052e+002,1.837808e-002
9.970337e+002,2.253804e-002
9.989622e+002,2.055862e-002
1.000891e+003,1.455294e-002
1.002819e+003,9.697206e-003
1.004748e+003,7.171715e-003
1.006676e+003,5.856246e-003
1.008605e+003,5.133678e-003
1.010533e+003,4.696038e-003
1.012462e+003,4.476087e-003
1.014390e+003,4.340429e-003
1.016319e+003,4.257523e-003
1.018247e+003,4.139567e-003
1.020176e+003,4.102867e-003
1.022104e+003,4.027511e-003
1.024033e+003,3.991626e-003
1.025961e+003,3.967968e-003
1.027890e+003,3.996597e-003
1.029818e+003,4.019895e-003
1.031747e+003,4.143465e-003
1.033675e+003,4.230987e-003
1.035604e+003,4.380710e-003
1.037532e+003,4.556827e-003
1.039461e+003,4.750409e-003
1.041389e+003,5.048554e-003
1.043318e+003,5.456673e-003
1.045246e+003,5.457694e-003
1.047175e+003,5.137399e-003
1.049103e+003,4.700631e-003
1.051032e+003,4.418787e-003
1.052960e+003,4.223892e-003
1.054889e+003,4.120247e-003
1.056817e+003,4.105346e-003
1.058746e+003,4.138987e-003
1.060674e+003,4.102111e-003
1.062603e+003,4.142106e-003
1.064531e+003,4.129687e-003
1.066460e+003,4.160823e-003
1.068388e+003,4.159911e-003
1.070317e+003,4.217256e-003
1.072245e+003,4.284087e-003
1.074174e+003,4.413676e-003
1.076102e+003,4.439924e-003
1.078031e+003,4.586767e-003
1.079959e+003,4.688541e-003
1.081888e+003,4.788617e-003
1.083816e+003,4.821083e-003
1.085745e+003,4.945982e-003
1.087673e+003,5.091977e-003
1.089602e+003,5.320791e-003
1.091530e+003,5.518995e-003
1.093459e+003,5.722631e-003
1.095387e+003,5.980922e-003
1.097316e+003,6.472060e-003
1.099244e+003,7.067047e-003
1.101173e+003,7.659227e-003
1.103101e+003,7.693769e-003
1.105030e+003,7.213018e-003
1.106958e+003,6.513110e-003
1.108887e+003,5.981877e-003
1.110815e+003,5.637931e-003
1.112744e+003,5.493261e-003
1.114672e+003,5.395295e-003
1.116601e+003,5.349682e-003
1.118529e+003,5.258221e-003
1.120458e+003,5.203482e-003
1.122386e+003,5.125113e-003
1.124315e+003,5.138779e-003
1.126243e+003,5.125639e-003
1.128172e+003,5.202193e-003
1.130100e+003,5.308483e-003
1.132029e+003,5.486701e-003
1.133957e+003,5.686671e-003
1.135885e+003,5.991116e-003
1.137814e+003,6.377995e-003
1.139743e+003,6.945096e-003
1.141671e+003,7.656040e-003
1.143600e+003,8.578327e-003
1.145528e+003,9.621851e-003
1.147457e+003,1.095131e-002
1.149385e+003,1.244875e-002
1.151314e+003,1.384374e-002
1.153242e+003,1.467826e-002
1.155171e+003,1.526866e-002
1.157099e+003,1.585853e-002
1.159028e+003,1.685252e-002
1.160956e+003,1.839714e-002
1.162885e+003,2.076482e-002
1.164813e+003,2.363482e-002
1.166742e+003,2.541647e-002
1.168670e+003,2.356557e-002
1.170599e+003,1.854615e-002
1.172527e+003,1.343739e-002
1.174456e+003,9.983683e-003
1.176384e+003,7.892235e-003
1.178313e+003,6.722853e-003
1.180241e+003,5.996782e-003
1.182170e+003,5.603313e-003
1.184098e+003,5.366948e-003
1.186027e+003,5.296846e-003
1.187955e+003,5.227614e-003
1.189884e+003,5.286239e-003
1.191812e+003,5.387193e-003
1.193740e+003,5.501291e-003
1.195669e+003,5.536319e-003
1.197598e+003,5.627173e-003
1.199526e+003,5.756101e-003
1.201455e+003,5.980819e-003
1.203383e+003,6.160157e-003
1.205312e+003,6.404413e-003
1.207240e+003,6.651271e-003
1.209168e+003,6.954594e-003
1.211097e+003,7.223347e-003
1.213026e+003,7.561881e-003
1.214954e+003,7.914548e-003
1.216883e+003,8.313453e-003
1.218811e+003,8.492706e-003
1.220740e+003,8.459105e-003
1.222668e+003,8.178835e-003
1.224596e+003,7.955199e-003
1.226525e+003,7.807391e-003
1.228453e+003,7.813076e-003
1.230382e+003,7.801547e-003
1.232311e+003,7.813521e-003
1.234239e+003,7.819418e-003
1.236167e+003,7.920627e-003
1.238096e+003,7.951909e-003
1.240025e+003,8.049287e-003
1.241953e+003,8.086169e-003
1.243882e+003,8.144816e-003
1.245810e+003,8.159248e-003
1.247739e+003,8.257693e-003
1.249667e+003,8.458667e-003
1.251595e+003,9.120317e-003
1.253524e+003,1.011122e-002
1.255453e+003,1.044728e-002
1.257381e+003,9.332365e-003
1.259310e+003,7.934380e-003
1.261238e+003,6.850136e-003
1.263167e+003,6.229617e-003
1.265095e+003,5.798368e-003
1.267023e+003,5.547418e-003
1.268952e+003,5.321693e-003
1.270880e+003,5.217107e-003
1.272809e+003,5.111566e-003
1.274738e+003,5.114135e-003
1.276666e+003,5.128114e-003
1.278594e+003,5.268712e-003
1.280523e+003,5.349049e-003
1.282451e+003,5.480066e-003
1.284380e+003,5.634552e-003
1.286308e+003,5.939106e-003
1.288237e+003,6.194822e-003
1.290166e+003,6.626481e-003
1.292094e+003,7.146459e-003
1.294022e+003,7.755384e-003
1.295951e+003,8.064040e-003
1.297879e+003,8.106327e-003
1.299808e+003,8.197181e-003
1.301736e+003,9.145675e-003
1.303665e+003,1.021654e-002
1.305594e+003,9.608861e-003
1.307522e+003,7.562762e-003
1.309450e+003,6.246582e-003
1.311379e+003,5.787111e-003
1.313307e+003,5.829614e-003
1.315236e+003,5.860155e-003
1.317164e+003,6.073564e-003
1.319093e+003,6.299827e-003
1.321021e+003,6.702354e-003
1.322950e+003,7.171636e-003
1.324878e+003,7.925186e-003
1.326807e+003,8.445887e-003
1.328735e+003,8.867613e-003
1.330664e+003,8.700812e-003
1.332592e+003,8.242408e-003
1.334521e+003,7.796685e-003
1.336449e+003,7.855825e-003
1.338378e+003,8.055011e-003
1.340306e+003,8.410607e-003
1.342235e+003,8.564182e-003
1.344163e+003,9.258026e-003
1.346092e+003,1.018737e-002
1.348021e+003,1.158189e-002
1.349949e+003,1.328541e-002
1.351877e+003,1.599087e-002
1.353806e+003,1.984489e-002
1.355734e+003,2.532980e-002
1.357663e+003,2.923609e-002
1.359591e+003,2.957335e-002
1.361520e+003,2.653956e-002
1.363448e+003,2.394178e-002
1.365377e+003,2.375382e-002
1.367305e+003,2.812876e-002
1.369234e+003,3.995292e-002
1.371162e+003,6.135003e-002
1.373091e+003,9.195232e-002
1.375019e+003,1.190834e-001
1.376948e+003,1.061954e-001
1.378876e+003,7.266298e-002
1.380805e+003,4.468653e-002
1.382733e+003,2.699665e-002
1.384662e+003,1.695530e-002
1.386590e+003,1.162187e-002
1.388519e+003,8.762460e-003
1.390447e+003,7.353234e-003
1.392376e+003,6.883615e-003
1.394304e+003,6.622062e-003
1.396233e+003,6.538536e-003
1.398161e+003,6.305453e-003
1.400090e+003,6.194177e-003
1.402018e+003,5.970166e-003
1.403947e+003,6.159449e-003
1.405875e+003,6.185224e-003
1.407804e+003,6.245634e-003
1.409732e+003,6.391675e-003
1.411661e+003,6.643827e-003
1.413589e+003,6.820642e-003
1.415518e+003,7.170001e-003
1.417446e+003,7.618731e-003
1.419375e+003,8.087515e-003
1.421303e+003,8.219345e-003
1.423232e+003,8.742827e-003
1.425160e+003,9.483971e-003
1.427089e+003,1.044977e-002
1.429017e+003,1.255895e-002
1.430946e+003,1.666030e-002
1.432874e+003,2.239839e-002
1.434803e+003,2.722796e-002
1.436731e+003,2.827161e-002
1.438660e+003,2.775679e-002
1.440588e+003,2.982872e-002
1.442517e+003,3.500420e-002
1.444445e+003,4.360631e-002
1.446374e+003,5.432069e-002
1.448302e+003,6.604027e-002
1.450231e+003,7.144791e-002
1.452159e+003,7.320864e-002
1.454088e+003,7.333748e-002
1.456016e+003,7.377613e-002
1.457945e+003,7.088485e-002
1.459873e+003,6.764466e-002
1.461802e+003,6.372576e-002
1.463730e+003,5.804770e-002
1.465659e+003,4.659793e-002
1.467587e+003,3.722673e-002
1.469516e+003,2.967804e-002
1.471444e+003,2.332641e-002
1.473373e+003,1.556777e-002
1.475301e+003,1.182117e-002
1.477230e+003,9.020940e-003
1.479158e+003,7.509870e-003
1.481087e+003,6.401367e-003
1.483015e+003,5.503553e-003
1.484944e+003,4.934570e-003
1.486872e+003,4.798749e-003
1.488801e+003,4.681525e-003
1.490729e+003,4.211998e-003
1.492658e+003,3.564544e-003
1.494586e+003,3.430146e-003
1.496515e+003,3.441772e-003
1.498443e+003,3.443039e-003
1.500372e+003,3.179627e-003
1.502300e+003,2.988277e-003
1.504229e+003,3.070390e-003
1.506157e+003,3.802992e-003
1.508086e+003,3.705812e-003
1.510014e+003,3.203877e-003
1.511943e+003,2.930095e-003
1.513871e+003,2.924250e-003
1.515800e+003,3.291379e-003
1.517728e+003,3.424823e-003
1.519657e+003,3.383830e-003
1.521585e+003,3.543492e-003
1.523514e+003,3.050677e-003
1.525442e+003,3.024311e-003
1.527371e+003,2.883881e-003
1.529299e+003,2.695456e-003
1.531228e+003,2.826241e-003
1.533156e+003,3.198342e-003
1.535085e+003,3.098236e-003
1.537013e+003,3.187111e-003
1.538942e+003,3.893665e-003
1.540870e+003,4.206243e-003
1.542799e+003,3.591378e-003
1.544727e+003,3.223482e-003
1.546656e+003,2.843855e-003
1.548584e+003,2.910743e-003
1.550513e+003,3.028317e-003
1.552441e+003,3.056577e-003
1.554370e+003,3.231611e-003
1.556298e+003,3.382670e-003
1.558227e+003,4.263076e-003
1.560155e+003,3.274968e-003
1.562084e+003,2.643642e-003
1.564012e+003,2.609988e-003
1.565941e+003,2.540929e-003
1.567869e+003,2.699025e-003
1.569798e+003,2.889712e-003
1.571726e+003,2.513948e-003
1.573655e+003,2.487668e-003
1.575583e+003,2.766998e-003
1.577512e+003,2.559675e-003
1.579440e+003,2.280295e-003
1.581369e+003,2.217518e-003
1.583297e+003,2.186681e-003
1.585226e+003,2.229367e-003
1.587154e+003,2.253532e-003
1.589083e+003,2.256244e-003
1.591011e+003,2.271100e-003
1.592940e+003,2.309890e-003
1.594868e+003,2.327997e-003
1.596797e+003,2.313407e-003
1.598725e+003,2.352645e-003
1.600654e+003,2.441290e-003
1.602582e+003,2.482036e-003
1.604511e+003,2.471386e-003
1.606439e+003,2.520573e-003
1.608368e+003,2.607856e-003
1.610296e+003,2.617493e-003
1.612225e+003,2.606139e-003
1.614153e+003,2.766856e-003
1.616082e+003,3.101519e-003
1.618010e+003,3.015234e-003
1.619939e+003,2.929940e-003
1.621867e+003,3.129944e-003
1.623796e+003,3.169937e-003
1.625724e+003,3.101069e-003
1.627653e+003,3.289276e-003
1.629581e+003,3.211679e-003
1.631510e+003,3.148085e-003
1.633438e+003,3.344222e-003
1.635367e+003,3.776111e-003
1.637295e+003,3.674434e-003
1.639224e+003,3.460285e-003
1.641152e+003,3.385684e-003
1.643081e+003,3.454544e-003
1.645009e+003,3.921554e-003
1.646938e+003,4.515556e-003
1.648866e+003,3.996921e-003
1.650795e+003,3.942553e-003
1.652723e+003,4.456198e-003
1.654652e+003,3.905804e-003
1.656580e+003,3.529236e-003
1.658509e+003,3.351244e-003
1.660437e+003,3.363111e-003
1.662366e+003,3.482701e-003
1.664294e+003,3.296223e-003
1.666223e+003,3.250704e-003
1.668151e+003,3.460817e-003
1.670080e+003,3.388906e-003
1.672008e+003,3.125608e-003
1.673937e+003,3.065537e-003
1.675865e+003,3.061263e-003
1.677794e+003,2.953317e-003
1.679722e+003,3.108904e-003
1.681651e+003,3.291046e-003
1.683579e+003,3.575394e-003
1.685508e+003,3.083710e-003
1.687436e+003,2.893789e-003
1.689365e+003,2.786295e-003
1.691293e+003,2.577657e-003
1.693222e+003,2.634812e-003
1.695150e+003,2.951980e-003
1.697079e+003,3.052589e-003
1.699007e+003,3.050089e-003
1.700936e+003,2.545603e-003
1.702864e+003,2.311392e-003
1.704793e+003,2.367729e-003
1.706721e+003,2.221515e-003
1.708650e+003,2.190232e-003
1.710578e+003,2.292719e-003
1.712507e+003,2.326587e-003
1.714435e+003,2.645409e-003
1.716364e+003,2.932100e-003
1.718292e+003,2.554499e-003
1.720221e+003,2.089517e-003
1.722149e+003,2.067639e-003
1.724078e+003,2.059441e-003
1.726006e+003,2.071362e-003
1.727935e+003,2.227578e-003
1.729863e+003,2.436308e-003
1.731792e+003,2.633421e-003
1.733720e+003,2.943452e-003
1.735649e+003,2.548089e-003
1.737577e+003,2.519032e-003
1.739506e+003,2.832983e-003
1.741434e+003,3.082216e-003
1.743363e+003,3.288975e-003
1.745291e+003,3.295252e-003
1.747220e+003,3.344525e-003
1.749148e+003,3.343578e-003
1.751077e+003,2.886008e-003
1.753005e+003,2.253393e-003
1.754934e+003,1.960427e-003
1.756862e+003,1.756309e-003
1.758791e+003,1.467383e-003
1.760719e+003,1.435485e-003
1.762648e+003,1.178890e-003
1.764576e+003,9.454824e-004
1.766505e+003,1.000874e-003
1.768433e+003,9.886548e-004
1.770362e+003,1.040643e-003
1.772290e+003,1.175568e-003
1.774219e+003,7.641427e-004
1.776147e+003,6.063879e-004
1.778076e+003,6.198585e-004
1.780004e+003,7.373411e-004
1.781933e+003,6.919261e-004
1.783861e+003,6.893519e-004
1.785790e+003,5.947091e-004
1.787718e+003,4.879907e-004
1.789646e+003,5.780496e-004
1.791575e+003,8.760300e-004
1.793504e+003,7.520542e-004
1.795432e+003,5.898122e-004
1.797361e+003,4.655253e-004
1.799289e+003,4.140716e-004
1.801218e+003,3.446992e-004
1.803146e+003,2.180375e-004
1.805074e+003,1.327731e-004
1.807003e+003,1.811311e-004
1.808932e+003,1.801085e-004
1.810860e+003,1.433417e-004
1.812789e+003,-1.477655e-004
1.814717e+003,-5.437769e-004
1.816646e+003,-7.152688e-004
1.818574e+003,-3.786087e-004
1.820502e+003,-1.084916e-004
1.822431e+003,1.607314e-004
1.824360e+003,2.642274e-004
1.826288e+003,1.425035e-004
1.828217e+003,3.420189e-005
1.830145e+003,2.803467e-005
1.832073e+003,-2.149921e-004
1.834002e+003,-2.074409e-004
1.835931e+003,-1.561027e-004
1.837859e+003,-1.439583e-004
1.839788e+003,-2.361685e-004
1.841716e+003,-1.598839e-004
1.843645e+003,3.569759e-005
1.845573e+003,7.729977e-007
1.847501e+003,-2.835877e-005
1.849430e+003,-1.126342e-005
1.851359e+003,-8.546934e-005
1.853287e+003,-2.487842e-004
1.855216e+003,-3.554523e-004
1.857144e+003,-2.729837e-004
1.859073e+003,-3.636330e-004
1.861001e+003,-3.973972e-004
1.862929e+003,-4.176367e-004
1.864858e+003,-2.335925e-004
1.866787e+003,-2.780929e-006
1.868715e+003,-1.867488e-005
1.870644e+003,-4.561078e-004
1.872572e+003,-6.161630e-004
1.874500e+003,-8.080807e-004
1.876429e+003,-7.919166e-004
1.878357e+003,-6.338954e-004
1.880286e+003,-4.409440e-004
1.882215e+003,-2.933331e-004
1.884143e+003,-1.383964e-004
1.886072e+003,-3.491715e-004
1.888000e+003,-4.042592e-004
1.889928e+003,-2.912022e-004
1.891857e+003,-3.456641e-004
1.893785e+003,-4.669055e-004
1.895714e+003,-5.412847e-004
1.897643e+003,-7.256921e-004
1.899571e+003,-6.178822e-004
1.901500e+003,-6.118938e-004
1.903428e+003,-6.059073e-004
1.905356e+003,-5.999263e-004
1.907285e+003,-5.939454e-004
1.909213e+003,-5.879700e-004
1.911142e+003,-5.819984e-004
1.913071e+003,-5.760267e-004
1.914999e+003,-5.700625e-004
1.916927e+003,-5.641002e-004
1.918856e+003,-5.581416e-004
1.920784e+003,-5.521867e-004
1.922713e+003,-5.462356e-004
1.924641e+003,-5.402900e-004
1.926570e+003,-5.343426e-004
1.928499e+003,-5.284026e-004
1.930427e+003,-5.224664e-004
1.932355e+003,-5.165320e-004
1.934284e+003,-5.106013e-004
1.936212e+003,-5.046725e-004
1.938141e+003,-4.987512e-004
1.940070e+003,-4.928298e-004
1.941998e+003,-4.869122e-004
1.943927e+003,-4.809983e-004
1.945855e+003,-4.750919e-004
1.947783e+003,-4.691835e-004
1.949712e+003,-4.632846e-004
1.951640e+003,-4.573837e-004
1.953569e+003,-4.514866e-004
1.955498e+003,-4.455950e-004
1.957426e+003,-4.397072e-004
1.959354e+003,-4.338231e-004
1.961283e+003,-4.279409e-004
1.963211e+003,-4.220624e-004
1.965140e+003,-4.161876e-004
1.967068e+003,-4.103165e-004
1.968997e+003,-4.044492e-004
1.970926e+003,-3.985837e-004
1.972854e+003,-3.927220e-004
1.974782e+003,-3.868658e-004
1.976711e+003,-3.810134e-004
1.978639e+003,-3.751628e-004
1.980568e+003,-3.693160e-004
1.982496e+003,-3.634710e-004
1.984425e+003,-3.576297e-004
1.986354e+003,-3.517959e-004
1.988282e+003,-3.459621e-004
1.990210e+003,-3.401320e-004
1.992139e+003,-3.343076e-004
1.994067e+003,-3.284868e-004
1.995996e+003,-3.226660e-004
1.997924e+003,-3.168508e-004
1.999853e+003,-3.110375e-004
2.001781e+003,-3.052298e-004
2.003710e+003,-2.994258e-004
2.005638e+003,-2.936237e-004
2.007567e+003,-2.878252e-004
2.009495e+003,-2.820306e-004
2.011424e+003,-2.762415e-004
2.013352e+003,-2.704524e-004
2.015281e+003,-2.646688e-004
2.017209e+003,-2.588872e-004
2.019138e+003,-2.531111e-004
2.021066e+003,-2.473369e-004
2.022995e+003,-2.415664e-004
2.024923e+003,-2.358016e-004
2.026852e+003,-2.300367e-004
2.028781e+003,-2.242774e-004
2.030709e+003,-2.185218e-004
2.032637e+003,-2.127700e-004
2.034566e+003,-2.070200e-004
2.036494e+003,-2.012737e-004
2.038423e+003,-1.955312e-004
2.040351e+003,-1.897942e-004
2.042280e+003,-1.840573e-004
2.044208e+003,-1.783259e-004
2.046137e+003,-1.725983e-004
2.048065e+003,-1.668725e-004
2.049994e+003,-1.611523e-004
2.051922e+003,-1.554359e-004
2.053851e+003,-1.497176e-004
2.055779e+003,-1.440067e-004
2.057708e+003,-1.383014e-004
2.059636e+003,-1.325980e-004
2.061565e+003,-1.268964e-004
2.063493e+003,-1.212023e-004
2.065422e+003,-1.155064e-004
2.067350e+003,-1.098178e-004
2.069279e+003,-1.041293e-004
2.071207e+003,-9.844825e-005
2.073136e+003,-9.276718e-005
2.075064e+003,-8.709356e-005
2.076993e+003,-8.141808e-005
2.078921e+003,-7.575005e-005
2.080850e+003,-7.008761e-005
2.082778e+003,-6.442331e-005
2.084707e+003,-5.876459e-005
2.086635e+003,-5.310774e-005
2.088564e+003,-4.745834e-005
2.090492e+003,-4.180893e-005
2.092421e+003,-3.616512e-005
2.094349e+003,-3.052317e-005
2.096278e+003,-2.488494e-005
2.098206e+003,-1.925044e-005
2.100135e+003,-1.362152e-005
2.102063e+003,-7.992610e-006
2.103992e+003,-2.369285e-006
2.105920e+003,3.248453e-006
2.107849e+003,8.866191e-006
2.109777e+003,1.448020e-005
2.111706e+003,2.008677e-005
2.113634e+003,2.569519e-005
2.115563e+003,3.129989e-005
2.117491e+003,3.689900e-005
2.119420e+003,4.249066e-005
2.121348e+003,4.808605e-005
2.123277e+003,5.367398e-005
2.125205e+003,5.926006e-005
2.127134e+003,6.484240e-005
2.129062e+003,7.042103e-005
2.130991e+003,7.599592e-005
2.132919e+003,8.156709e-005
2.134848e+003,8.713454e-005
2.136776e+003,9.269826e-005
2.138705e+003,9.825826e-005
2.140633e+003,1.038164e-004
2.142562e+003,1.093708e-004
2.144490e+003,1.149215e-004
2.146419e+003,1.204684e-004
2.148347e+003,1.260117e-004
2.150276e+003,1.315530e-004
2.152204e+003,1.370888e-004
2.154133e+003,1.426190e-004
2.156061e+003,1.481511e-004
2.157990e+003,1.536794e-004
2.159918e+003,1.592003e-004
2.161847e+003,1.647174e-004
2.163775e+003,1.702327e-004
2.165704e+003,1.757462e-004
2.167632e+003,1.812540e-004
2.169561e+003,1.867581e-004
2.171489e+003,1.922604e-004
2.173418e+003,1.977608e-004
2.175346e+003,2.032556e-004
2.177275e+003,2.087466e-004
2.179203e+003,2.142359e-004
2.181132e+003,2.197195e-004
2.183060e+003,2.251975e-004
2.184989e+003,2.306756e-004
2.186917e+003,2.361517e-004
2.188846e+003,2.416205e-004
2.190774e+003,2.470855e-004
2.192703e+003,2.525486e-004
2.194631e+003,2.580080e-004
2.196560e+003,2.634674e-004
2.198488e+003,2.689194e-004
2.200417e+003,2.743695e-004
2.202345e+003,2.798159e-004
2.204274e+003,2.852567e-004
2.206202e+003,2.906974e-004
2.208131e+003,2.961308e-004
2.210059e+003,3.015622e-004
2.211988e+003,3.069919e-004
2.213916e+003,3.124159e-004
2.215845e+003,3.178343e-004
2.217773e+003,3.232546e-004
2.219702e+003,3.286693e-004
2.221630e+003,3.340822e-004
2.223559e+003,3.394894e-004
2.225487e+003,3.448930e-004
2.227416e+003,3.502928e-004
2.229344e+003,3.556889e-004
2.231273e+003,3.610849e-004
2.233201e+003,3.664754e-004
2.235130e+003,3.718603e-004
2.237058e+003,3.772434e-004
2.238987e+003,3.826246e-004
2.240915e+003,3.879983e-004
2.242844e+003,3.933720e-004
2.244772e+003,3.987420e-004
2.246701e+003,4.041083e-004
2.248629e+003,4.094690e-004
2.250558e+003,4.148297e-004
2.252486e+003,4.201848e-004
2.254415e+003,4.255343e-004
2.256343e+003,4.308820e-004
2.258272e+003,4.362278e-004
2.260200e+003,4.415680e-004
2.262129e+003,4.469082e-004
2.264057e+003,4.522428e-004
2.265986e+003,4.575718e-004
2.267914e+003,4.628971e-004
2.269843e+003,4.682243e-004
2.271771e+003,4.735459e-004
2.273700e+003,4.788600e-004
2.275628e+003,4.841741e-004
2.277557e+003,4.894845e-004
2.279485e+003,4.947912e-004
2.281414e+003,5.000941e-004
2.283342e+003,5.053915e-004
2.285271e+003,5.106870e-004
2.287199e+003,5.159825e-004
2.289128e+003,5.212724e-004
2.291056e+003,5.265549e-004
2.292985e+003,5.318392e-004
2.294913e+003,5.371161e-004
2.296842e+003,5.423911e-004
2.298770e+003,5.476624e-004
2.300699e+003,5.529318e-004
2.302627e+003,5.581994e-004
2.304556e+003,5.634595e-004
2.306484e+003,5.687159e-004
2.308413e+003,5.739685e-004
2.310341e+003,5.792193e-004
2.312270e+003,5.844682e-004
2.314198e+003,5.897097e-004
2.316127e+003,5.949493e-004
2.318055e+003,6.001871e-004
2.319984e+003,6.054230e-004
2.321912e+003,6.106496e-004
2.323841e+003,6.158762e-004
2.325769e+003,6.210990e-004
2.327698e+003,6.263200e-004
2.329626e+003,6.315336e-004
2.331555e+003,6.367452e-004
2.333483e+003,6.419569e-004
2.335412e+003,6.471612e-004
2.337340e+003,6.523635e-004
2.339269e+003,6.575584e-004
2.341197e+003,6.627571e-004
2.343126e+003,6.679483e-004
2.345054e+003,6.731339e-004
2.346983e+003,6.783195e-004
2.348911e+003,6.835032e-004
2.350840e+003,6.886795e-004
2.352768e+003,6.938521e-004
2.354697e+003,6.990209e-004
2.356625e+003,7.041879e-004
2.358554e+003,7.093530e-004
2.360482e+003,7.145107e-004
2.362411e+003,7.196665e-004
2.364339e+003,7.248223e-004
2.366268e+003,7.299744e-004
2.368196e+003,7.351171e-004
2.370125e+003,7.402599e-004
2.372053e+003,7.454008e-004
2.373982e+003,7.505342e-004
2.375910e+003,7.556658e-004
2.377839e+003,7.607974e-004
2.379767e+003,7.659215e-004
2.381696e+003,7.710420e-004
2.383624e+003,7.761605e-004
2.385553e+003,7.812735e-004
2.387481e+003,7.863883e-004
2.389410e+003,7.914919e-004
2.391338e+003,7.965993e-004
2.393267e+003,8.017011e-004
2.395195e+003,8.067973e-004
2.397124e+003,8.118898e-004
2.399052e+003,8.169804e-004
2.400981e+003,8.213129e-004
2.402909e+003,8.237734e-004
2.404838e+003,9.164363e-004
2.406766e+003,1.141476e-003
2.408695e+003,1.362192e-003
2.410623e+003,1.310652e-003
2.412552e+003,1.181468e-003
2.414480e+003,1.154359e-003
2.416409e+003,1.192603e-003
2.418337e+003,1.228280e-003
2.420266e+003,1.407247e-003
2.422194e+003,1.585620e-003
2.424123e+003,1.572287e-003
2.426051e+003,1.591440e-003
2.427979e+003,1.690248e-003
2.429908e+003,1.672085e-003
2.431837e+003,1.631081e-003
2.433765e+003,1.602365e-003
2.435694e+003,1.687439e-003
2.437622e+003,1.831239e-003
2.439551e+003,1.812652e-003
2.441479e+003,1.816502e-003
2.443407e+003,1.867833e-003
2.445336e+003,1.861617e-003
2.447265e+003,1.937652e-003
2.449193e+003,1.940001e-003
2.451122e+003,1.959940e-003
2.453050e+003,2.094772e-003
2.454979e+003,2.174612e-003
2.456907e+003,2.128612e-003
2.458836e+003,2.122663e-003
2.460764e+003,1.939481e-003
2.462693e+003,1.790460e-003
2.464621e+003,1.695696e-003
2.466550e+003,1.755979e-003
2.468478e+003,1.896901e-003
2.470406e+003,1.918869e-003
2.472335e+003,1.862692e-003
2.474264e+003,1.862196e-003
2.476192e+003,1.757009e-003
2.478121e+003,1.696274e-003
2.480049e+003,1.629148e-003
2.481978e+003,1.706894e-003
2.483906e+003,1.907267e-003
2.485835e+003,2.001174e-003
2.487763e+003,1.950776e-003
2.489692e+003,1.992334e-003
2.491620e+003,2.191368e-003
2.493549e+003,2.178280e-003
2.495477e+003,2.036823e-003
2.497406e+003,2.018170e-003
2.499334e+003,1.968002e-003
2.501263e+003,2.003275e-003
2.503191e+003,1.920629e-003
2.505120e+003,1.874739e-003
2.507048e+003,1.954718e-003
2.508977e+003,2.103020e-003
2.510905e+003,2.196979e-003
2.512833e+003,2.214335e-003
2.514762e+003,2.210159e-003
2.516691e+003,2.360981e-003
2.518619e+003,2.435105e-003
2.520548e+003,2.479034e-003
2.522476e+003,2.530796e-003
2.524405e+003,2.590407e-003
2.526333e+003,2.587559e-003
2.528261e+003,2.703723e-003
2.530190e+003,2.812527e-003
2.532119e+003,2.856901e-003
2.534047e+003,2.839690e-003
2.535976e+003,2.940666e-003
2.537904e+003,3.076881e-003
2.539833e+003,3.094014e-003
2.541761e+003,3.068013e-003
2.543689e+003,3.150661e-003
2.545618e+003,3.265858e-003
2.547547e+003,3.336076e-003
2.549475e+003,3.439318e-003
2.551404e+003,3.713628e-003
2.553332e+003,3.731787e-003
2.555260e+003,3.694264e-003
2.557189e+003,3.703399e-003
2.559117e+003,3.756873e-003
2.561046e+003,3.918877e-003
2.562975e+003,4.001092e-003
2.564903e+003,3.790140e-003
2.566832e+003,3.951726e-003
2.568760e+003,4.264640e-003
2.570688e+003,4.506579e-003
2.572617e+003,4.670350e-003
2.574546e+003,4.964050e-003
2.576474e+003,5.219847e-003
2.578403e+003,5.426165e-003
2.580331e+003,5.523732e-003
2.582260e+003,5.588293e-003
2.584188e+003,5.474450e-003
2.586116e+003,5.310660e-003
2.588045e+003,5.163239e-003
2.589974e+003,4.997144e-003
2.591902e+003,5.014839e-003
2.593831e+003,5.140917e-003
2.595759e+003,5.088145e-003
2.597688e+003,5.005395e-003
2.599616e+003,5.150069e-003
2.601544e+003,5.430883e-003
2.603473e+003,5.624114e-003
2.605402e+003,5.826322e-003
2.607330e+003,6.011225e-003
2.609259e+003,6.130463e-003
2.611187e+003,6.278625e-003
2.613115e+003,6.471401e-003
2.615044e+003,6.586095e-003
2.616972e+003,6.615484e-003
2.618901e+003,6.631287e-003
2.620830e+003,6.663570e-003
2.622758e+003,6.639648e-003
2.624687e+003,6.659560e-003
2.626615e+003,6.689398e-003
2.628543e+003,6.594915e-003
2.630472e+003,6.583245e-003
2.632400e+003,6.599637e-003
2.634329e+003,6.658467e-003
2.636258e+003,6.763699e-003
2.638186e+003,6.847467e-003
2.640115e+003,6.989954e-003
2.642043e+003,7.100405e-003
2.643971e+003,7.249396e-003
2.645900e+003,7.376477e-003
2.647828e+003,7.390829e-003
2.649757e+003,7.475469e-003
2.651686e+003,7.653655e-003
2.653614e+003,7.737247e-003
2.655542e+003,7.807126e-003
2.657471e+003,7.840665e-003
2.659399e+003,7.739360e-003
2.661328e+003,7.539064e-003
2.663256e+003,7.246867e-003
2.665185e+003,6.977320e-003
2.667114e+003,6.838324e-003
2.669042e+003,6.795086e-003
2.670970e+003,6.816410e-003
2.672899e+003,6.907979e-003
2.674827e+003,6.946390e-003
2.676756e+003,6.931983e-003
2.678685e+003,6.913362e-003
2.680613e+003,6.869279e-003
2.682542e+003,6.875439e-003
2.684470e+003,6.921653e-003
2.686398e+003,6.984266e-003
2.688327e+003,6.960787e-003
2.690255e+003,6.981254e-003
2.692184e+003,7.003287e-003
2.694113e+003,7.008946e-003
2.696041e+003,7.052813e-003
2.697969e+003,7.171934e-003
2.699898e+003,7.332798e-003
2.701826e+003,7.519532e-003
2.703755e+003,7.708391e-003
2.705683e+003,7.926980e-003
2.707612e+003,8.192239e-003
2.709541e+003,8.460682e-003
2.711469e+003,8.792862e-003
2.713397e+003,9.239975e-003
2.715326e+003,9.777870e-003
2.717254e+003,1.045929e-002
2.719183e+003,1.118024e-002
2.721111e+003,1.164645e-002
2.723040e+003,1.162442e-002
2.724969e+003,1.118683e-002
2.726897e+003,1.061566e-002
2.728825e+003,1.011887e-002
2.730754e+003,9.664562e-003
2.732682e+003,9.348888e-003
2.734611e+003,9.165592e-003
2.736539e+003,8.912660e-003
2.738468e+003,8.598555e-003
2.740396e+003,8.343194e-003
2.742325e+003,8.090498e-003
2.744253e+003,7.978605e-003
2.746182e+003,7.939408e-003
2.748110e+003,7.879857e-003
2.750039e+003,7.917196e-003
2.751967e+003,7.997168e-003
2.753896e+003,8.077610e-003
2.755824e+003,8.184496e-003
2.757753e+003,8.295752e-003
2.759681e+003,8.434482e-003
2.761610e+003,8.670285e-003
2.763538e+003,8.882280e-003
2.765467e+003,9.054016e-003
2.767395e+003,9.269811e-003
2.769324e+003,9.435102e-003
2.771252e+003,9.597324e-003
2.773181e+003,9.806626e-003
2.775109e+003,1.008232e-002
2.777038e+003,1.041635e-002
2.778966e+003,1.084565e-002
2.780895e+003,1.130981e-002
2.782823e+003,1.179947e-002
2.784752e+003,1.238463e-002
2.786680e+003,1.315500e-002
2.788609e+003,1.393786e-002
2.790537e+003,1.466293e-002
2.792466e+003,1.530742e-002
2.794394e+003,1.589238e-002
2.796323e+003,1.642775e-002
2.798251e+003,1.696616e-002
2.800180e+003,1.765640e-002
2.802108e+003,1.872010e-002
2.804037e+003,2.004374e-002
2.805965e+003,2.137193e-002
2.807894e+003,2.249626e-002
2.809822e+003,2.361024e-002
2.811751e+003,2.476044e-002
2.813679e+003,2.595161e-002
2.815608e+003,2.736949e-002
2.817536e+003,2.916526e-002
2.819465e+003,3.134767e-002
2.821393e+003,3.410533e-002
2.823322e+003,3.774669e-002
2.825250e+003,4.260660e-002
2.827179e+003,4.950659e-002
2.829107e+003,5.970274e-002
2.831036e+003,7.455388e-002
2.832964e+003,9.407711e-002
2.834893e+003,1.140474e-001
2.836821e+003,1.269095e-001
2.838750e+003,1.278394e-001
2.840678e+003,1.178050e-001
2.842607e+003,1.017590e-001
2.844535e+003,8.538748e-002
2.846464e+003,7.226061e-002
2.848392e+003,6.316832e-002
2.850321e+003,5.737911e-002
2.852249e+003,5.431796e-002
2.854178e+003,5.405012e-002
2.856106e+003,5.719577e-002
2.858035e+003,6.493454e-002
2.859963e+003,7.877586e-002
2.861892e+003,9.822918e-002
2.863820e+003,1.172684e-001
2.865749e+003,1.271679e-001
2.867677e+003,1.263370e-001
2.869606e+003,1.209270e-001
2.871534e+003,1.165161e-001
2.873463e+003,1.153339e-001
2.875391e+003,1.171646e-001
2.877320e+003,1.186056e-001
2.879248e+003,1.169956e-001
2.881177e+003,1.133790e-001
2.883105e+003,1.099702e-001
2.885034e+003,1.076914e-001
2.886962e+003,1.064456e-001
2.888891e+003,1.062588e-001
2.890819e+003,1.076400e-001
2.892748e+003,1.111927e-001
2.894676e+003,1.174680e-001
2.896605e+003,1.266227e-001
2.898533e+003,1.379981e-001
2.900462e+003,1.507318e-001
2.902390e+003,1.639785e-001
2.904319e+003,1.766231e-001
2.906247e+003,1.876188e-001
2.908176e+003,1.973676e-001
2.910104e+003,2.088863e-001
2.912033e+003,2.256110e-001
2.913961e+003,2.460989e-001
2.915890e+003,2.614596e-001
2.917818e+003,2.619122e-001
2.919747e+003,2.483177e-001
2.921675e+003,2.296963e-001
2.923604e+003,2.115983e-001
2.925532e+003,1.931189e-001
2.927461e+003,1.724206e-001
2.929389e+003,1.505135e-001
2.931318e+003,1.301148e-001
2.933246e+003,1.137141e-001
2.935175e+003,1.028874e-001
2.937103e+003,9.828427e-002
2.939032e+003,1.009412e-001
2.940960e+003,1.124913e-001
2.942889e+003,1.339326e-001
2.944817e+003,1.627426e-001
2.946746e+003,1.913926e-001
2.948674e+003,2.092483e-001
2.950603e+003,2.083475e-001
2.952531e+003,1.923303e-001
2.954460e+003,1.744086e-001
2.956388e+003,1.647963e-001
2.958317e+003,1.631168e-001
2.960245e+003,1.607755e-001
2.962174e+003,1.487797e-001
2.964102e+003,1.283587e-001
2.966031e+003,1.067187e-001
2.967959e+003,8.703443e-002
2.969888e+003,6.953546e-002
2.971816e+003,5.465232e-002
2.973745e+003,4.252147e-002
2.975673e+003,3.303139e-002
2.977602e+003,2.571307e-002
2.979530e+003,2.014277e-002
2.981459e+003,1.592599e-002
2.983387e+003,1.270931e-002
2.985316e+003,1.023308e-002
2.987244e+003,8.364059e-003
2.989173e+003,6.853089e-003
2.991101e+003,5.580174e-003
2.993030e+003,4.531361e-003
2.994958e+003,3.694370e-003
2.996887e+003,3.075803e-003
2.998815e+003,2.636680e-003
3.000744e+003,2.232980e-003
3.002672e+003,1.810392e-003
3.004601e+003,1.472032e-003
3.006529e+003,1.253875e-003
3.008458e+003,1.059987e-003
3.010386e+003,9.308923e-004
3.012315e+003,7.425845e-004
3.014243e+003,4.894827e-004
3.016172e+003,3.207847e-004
3.018100e+003,2.036896e-004
3.020029e+003,8.940324e-005
3.021957e+003,3.693812e-005
3.023886e+003,-3.622659e-005
3.025814e+003,-1.581348e-004
3.027743e+003,-2.596397e-004
3.029671e+003,-2.593584e-004
3.031600e+003,-3.235899e-004
3.033528e+003,-3.986545e-004
3.035457e+003,-3.762357e-004
3.037385e+003,-3.559440e-004
3.039314e+003,-3.893115e-004
3.041242e+003,-3.928393e-004
3.043171e+003,-3.930926e-004
3.045099e+003,-3.572498e-004
3.047028e+003,-3.912337e-004
3.048956e+003,-4.180595e-004
3.050885e+003,-3.817677e-004
3.052813e+003,-2.387278e-004
3.054742e+003,-1.649410e-004
3.056670e+003,-1.283251e-004
3.058599e+003,-1.468323e-004
3.060527e+003,-9.683333e-005
3.062456e+003,-5.856343e-005
3.064384e+003,-1.419727e-004
3.066313e+003,-1.969058e-004
3.068241e+003,-2.044458e-004
3.070170e+003,-1.692846e-004
3.072098e+003,-1.906287e-004
3.074027e+003,-2.017301e-004
3.075955e+003,-7.352419e-005
3.077884e+003,-6.637722e-005
3.079812e+003,-1.226868e-004
3.081741e+003,-5.936250e-005
3.083669e+003,4.132837e-005
3.085598e+003,1.477264e-005
3.087526e+003,-7.981248e-005
3.089455e+003,-9.792484e-005
3.091383e+003,-1.164898e-005
3.093312e+003,1.578145e-004
3.095240e+003,1.895688e-004
3.097169e+003,1.196638e-004
3.099097e+003,1.555141e-004
3.101026e+003,2.919734e-004
3.102954e+003,3.385525e-004
3.104883e+003,2.005640e-004
3.106811e+003,1.564547e-004
3.108740e+003,2.788473e-004
3.110668e+003,3.755409e-004
3.112597e+003,4.169345e-004
3.114525e+003,4.747920e-004
3.116454e+003,5.455669e-004
3.118382e+003,5.239081e-004
3.120311e+003,4.927218e-004
3.122239e+003,6.072056e-004
3.124168e+003,7.317550e-004
3.126096e+003,7.616896e-004
3.128025e+003,7.592011e-004
3.129953e+003,8.628089e-004
3.131882e+003,9.896271e-004
3.133810e+003,1.028784e-003
3.135739e+003,1.037776e-003
3.137667e+003,1.035847e-003
3.139596e+003,9.770300e-004
3.141524e+003,1.042269e-003
3.143453e+003,1.153605e-003
3.145381e+003,1.156613e-003
3.147310e+003,1.135042e-003
3.149238e+003,1.077881e-003
3.151167e+003,9.988118e-004
3.153095e+003,1.130899e-003
3.155024e+003,1.232857e-003
3.156952e+003,1.155533e-003
3.158881e+003,1.072126e-003
3.160809e+003,1.101661e-003
3.162738e+003,1.045270e-003
3.164666e+003,1.067432e-003
3.166594e+003,1.097111e-003
3.168523e+003,1.113435e-003
3.170452e+003,1.139846e-003
3.172380e+003,1.199421e-003
3.174309e+003,1.256170e-003
3.176237e+003,1.409959e-003
3.178166e+003,1.547825e-003
3.180094e+003,1.523377e-003
3.182022e+003,1.463601e-003
3.183951e+003,1.573207e-003
3.185880e+003,1.624987e-003
3.187808e+003,1.611173e-003
3.189737e+003,1.666265e-003
3.191665e+003,1.687311e-003
3.193594e+003,1.590330e-003
3.195522e+003,1.669480e-003
3.197450e+003,1.809290e-003
3.199379e+003,1.847005e-003
3.201308e+003,1.837987e-003
3.203236e+003,1.799054e-003
3.205165e+003,1.789339e-003
3.207093e+003,1.766695e-003
3.209021e+003,1.707233e-003
3.210950e+003,1.629014e-003
3.212878e+003,1.683258e-003
3.214807e+003,1.622753e-003
3.216736e+003,1.537699e-003
3.218664e+003,1.527747e-003
3.220593e+003,1.395488e-003
3.222521e+003,1.308512e-003
3.224449e+003,1.239855e-003
3.226378e+003,1.254110e-003
3.228307e+003,1.270240e-003
3.230235e+003,1.179036e-003
3.232164e+003,1.188565e-003
3.234092e+003,1.271579e-003
3.236021e+003,1.317492e-003
3.237949e+003,1.195863e-003
3.239877e+003,1.081217e-003
3.241806e+003,1.138359e-003
3.243735e+003,1.213998e-003
3.245663e+003,1.213463e-003
3.247592e+003,1.181304e-003
3.249520e+003,1.224680e-003
3.251448e+003,1.313061e-003
3.253377e+003,1.344133e-003
3.255305e+003,1.342548e-003
3.257234e+003,1.347233e-003
3.259163e+003,1.343325e-003
3.261091e+003,1.410518e-003
3.263020e+003,1.408396e-003
3.264948e+003,1.513017e-003
3.266876e+003,1.694208e-003
3.268805e+003,1.742201e-003
3.270733e+003,1.630414e-003
3.272662e+003,1.595747e-003
3.274591e+003,1.680948e-003
3.276519e+003,1.782432e-003
3.278448e+003,1.630811e-003
3.280376e+003,1.565753e-003
3.282304e+003,1.737583e-003
3.284233e+003,1.753692e-003
3.286161e+003,1.724128e-003
3.288090e+003,1.792496e-003
3.290019e+003,1.762357e-003
3.291947e+003,1.751548e-003
3.293875e+003,1.734043e-003
3.295804e+003,1.685079e-003
3.297732e+003,1.636609e-003
3.299661e+003,1.695642e-003
3.301589e+003,1.753181e-003
3.303518e+003,1.799835e-003
3.305447e+003,1.808977e-003
3.307375e+003,1.819914e-003
3.309303e+003,1.758453e-003
3.311232e+003,1.754023e-003
3.313160e+003,1.670593e-003
3.315089e+003,1.634486e-003
3.317018e+003,1.680436e-003
3.318946e+003,1.535643e-003
3.320875e+003,1.528688e-003
3.322803e+003,1.693400e-003
3.324731e+003,1.768138e-003
3.326660e+003,1.745539e-003
3.328588e+003,1.658415e-003
3.330517e+003,1.586616e-003
3.332446e+003,1.549210e-003
3.334374e+003,1.685953e-003
3.336302e+003,1.828723e-003
3.338231e+003,1.731768e-003
3.340159e+003,1.633568e-003
3.342088e+003,1.646684e-003
3.344016e+003,1.614245e-003
3.345945e+003,1.683019e-003
3.347874e+003,1.646698e-003
3.349802e+003,1.606142e-003
3.351730e+003,1.612114e-003
3.353659e+003,1.593592e-003
3.355587e+003,1.598535e-003
3.357516e+003,1.614150e-003
3.359444e+003,1.505844e-003
3.361373e+003,1.451969e-003
3.363302e+003,1.421118e-003
3.365230e+003,1.424015e-003
3.367158e+003,1.496464e-003
3.369087e+003,1.516031e-003
3.371015e+003,1.462555e-003
3.372944e+003,1.388486e-003
3.374872e+003,1.354724e-003
3.376801e+003,1.342492e-003
3.378729e+003,1.246979e-003
3.380658e+003,1.168730e-003
3.382586e+003,1.213070e-003
3.384515e+003,1.307918e-003
3.386443e+003,1.171855e-003
3.388372e+003,1.090851e-003
3.390300e+003,1.174308e-003
3.392229e+003,1.257518e-003
3.394157e+003,1.134869e-003
3.396086e+003,1.097025e-003
3.398014e+003,1.061894e-003
3.399943e+003,1.096135e-003
3.401871e+003,1.145821e-003
3.403800e+003,1.161035e-003
3.405728e+003,1.095451e-003
3.407657e+003,1.140714e-003
3.409585e+003,1.179107e-003
3.411514e+003,1.065090e-003
3.413442e+003,1.074629e-003
3.415371e+003,1.070088e-003
3.417299e+003,1.059188e-003
3.419228e+003,1.057515e-003
3.421156e+003,9.691101e-004
3.423085e+003,9.272322e-004
3.425013e+003,8.686353e-004
3.426942e+003,8.143689e-004
3.428870e+003,8.321181e-004
3.430799e+003,9.172466e-004
3.432727e+003,8.106958e-004
3.434656e+003,6.744377e-004
3.436584e+003,5.951636e-004
3.438513e+003,6.230380e-004
3.440441e+003,7.276647e-004
3.442370e+003,7.000361e-004
3.444298e+003,6.587561e-004
3.446227e+003,7.572863e-004
3.448155e+003,5.994607e-004
3.450084e+003,4.980117e-004
3.452012e+003,4.555751e-004
3.453941e+003,4.164781e-004
3.455869e+003,4.498400e-004
3.457798e+003,3.784504e-004
3.459726e+003,4.035179e-004
3.461655e+003,5.335212e-004
3.463583e+003,4.793555e-004
3.465512e+003,3.441144e-004
3.467440e+003,2.614371e-004
3.469369e+003,2.377313e-004
3.471297e+003,3.256369e-004
3.473226e+003,3.335010e-004
3.475154e+003,1.182016e-004
3.477083e+003,-1.134537e-005
3.479011e+003,2.129059e-004
3.480940e+003,3.261883e-004
3.482868e+003,2.095662e-004
3.484797e+003,2.148971e-004
3.486725e+003,2.533216e-004
3.488654e+003,1.132488e-004
3.490582e+003,1.005642e-005
3.492511e+003,-3.191829e-005
3.494439e+003,-4.183687e-005
3.496368e+003,-8.601509e-005
3.498296e+003,-1.139399e-004
3.500225e+003,9.359792e-005
3.502153e+003,2.567843e-004
3.504082e+003,2.137758e-005
3.506010e+003,-1.070946e-004
3.507939e+003,1.232829e-004
3.509867e+003,1.451503e-004
3.511796e+003,-1.746882e-004
3.513724e+003,-3.009383e-004
3.515653e+003,-2.308469e-004
3.517581e+003,-6.789528e-005
3.519510e+003,7.394701e-007
3.521438e+003,5.827099e-005
3.523367e+003,1.018215e-004
3.525295e+003,-4.271604e-005
3.527224e+003,-5.482137e-005
3.529152e+003,-1.520459e-004
3.531081e+003,-4.127268e-004
3.533009e+003,-5.439930e-004
3.534938e+003,-3.770124e-004
3.536866e+003,-3.426466e-004
3.538795e+003,-4.990809e-004
3.540723e+003,-5.351715e-004
3.542652e+003,-4.277602e-004
3.544580e+003,-6.789528e-005
3.546509e+003,-1.252685e-004
3.548437e+003,-5.462505e-004
3.550366e+003,-6.671026e-004
3.552294e+003,-6.311014e-004
3.554223e+003,-9.411033e-004
3.556151e+003,-1.033664e-003
3.558080e+003,-7.651672e-004
3.560008e+003,-5.687010e-004
3.561937e+003,-6.677378e-004
3.563865e+003,-3.575105e-004
3.565794e+003,3.223959e-004
3.567722e+003,5.357526e-005
3.569651e+003,-6.603841e-004
3.571579e+003,-1.085378e-003
3.573508e+003,-1.355158e-003
3.575436e+003,-1.290508e-003
3.577365e+003,-1.040457e-003
3.579293e+003,-8.593295e-004
3.581222e+003,-9.558015e-004
3.583150e+003,-1.041004e-003
3.585079e+003,-7.537007e-004
3.587007e+003,-2.619438e-005
3.588936e+003,-3.934894e-004
3.590864e+003,-1.009464e-003
3.592793e+003,-1.021216e-003
3.594721e+003,-7.290021e-004
3.596650e+003,-8.105561e-004
3.598578e+003,-8.696020e-004
3.600507e+003,-8.258875e-004
3.602435e+003,-9.957887e-004
3.604364e+003,-1.012815e-003
3.606292e+003,-6.486960e-004
3.608221e+003,-4.141126e-004
3.610149e+003,-3.816169e-004
3.612078e+003,-2.012551e-004
3.614006e+003,-4.167277e-004
3.615935e+003,-6.415602e-004
3.617863e+003,-4.023295e-004
3.619792e+003,-3.322344e-004
3.621720e+003,-5.144812e-004
3.623649e+003,-7.657781e-004
3.625577e+003,-4.892852e-004
3.627506e+003,7.694867e-004
3.629434e+003,6.065462e-004
3.631363e+003,-6.224532e-004
3.633291e+003,-9.772517e-004
3.635220e+003,-1.367930e-003
3.637148e+003,-1.240881e-003
3.639077e+003,-9.428263e-004
3.641005e+003,-6.471127e-004
3.642934e+003,-6.421804e-004
3.644862e+003,-4.522819e-004
3.646791e+003,7.746331e-004
3.648719e+003,1.798727e-003
3.650648e+003,6.336644e-004
3.652576e+003,-8.729845e-004
3.654505e+003,-9.830203e-004
3.656433e+003,-8.885413e-004
3.658362e+003,-1.127500e-003
3.660290e+003,-1.005089e-003
3.662219e+003,-9.643752e-004
3.664147e+003,-1.087377e-003
3.666076e+003,-7.522646e-004
3.668004e+003,2.034232e-004
3.669933e+003,7.854924e-004
3.671861e+003,3.642701e-004
3.673790e+003,5.160663e-004
3.675718e+003,-3.292449e-004
3.677647e+003,-9.145662e-004
3.679575e+003,-6.610882e-004
3.681504e+003,-5.454253e-004
3.683432e+003,-3.201719e-004
3.685361e+003,-1.066066e-004
3.687289e+003,6.254166e-004
3.689218e+003,7.904507e-004
3.691146e+003,-9.571388e-005
3.693075e+003,-6.156471e-004
3.695003e+003,-6.728377e-004
3.696932e+003,-7.406939e-004
3.698860e+003,-6.023180e-004
3.700789e+003,-5.252659e-006
3.702717e+003,-1.024175e-004
3.704646e+003,-5.537085e-004
3.706574e+003,-4.322175e-004
3.708503e+003,1.647342e-004
3.710431e+003,8.464120e-004
3.712360e+003,3.261678e-004
3.714288e+003,-1.980867e-004
3.716217e+003,-2.835449e-004
3.718145e+003,-1.285225e-005
3.720074e+003,1.905560e-004
3.722002e+003,2.796501e-004
3.723931e+003,4.702397e-004
3.725859e+003,4.606321e-004
3.727788e+003,-2.976879e-005
3.729716e+003,7.751398e-005
3.731645e+003,4.356503e-004
3.733573e+003,1.061592e-003
3.735502e+003,1.527280e-003
3.737430e+003,5.766004e-004
3.739359e+003,3.450178e-004
3.741287e+003,6.888397e-004
3.743216e+003,1.619186e-003
3.745144e+003,1.842450e-003
3.747073e+003,1.707513e-003
3.749001e+003,2.608936e-003
3.750930e+003,2.612744e-003
3.752858e+003,1.421027e-003
3.754787e+003,9.283684e-004
3.756715e+003,1.013830e-003
3.758644e+003,9.593926e-004
3.760572e+003,6.770417e-004
3.762501e+003,6.156340e-004
3.764429e+003,9.046122e-004
3.766358e+003,6.747432e-004
3.768286e+003,7.105134e-004
3.770215e+003,5.461834e-004
3.772143e+003,9.537116e-005
3.774072e+003,1.233071e-006
3.776000e+003,2.113171e-004
3.777929e+003,7.182956e-004
3.779857e+003,5.491860e-004
3.781786e+003,1.596697e-004
3.783714e+003,1.920946e-004
3.785643e+003,-8.336827e-005
3.787571e+003,-2.051927e-004
3.789500e+003,-2.591796e-004
3.791428e+003,-2.954341e-004
3.793357e+003,1.141243e-004
3.795285e+003,7.033460e-004
3.797214e+003,7.208735e-004
3.799142e+003,8.065924e-004
3.801071e+003,1.291681e-003
3.802999e+003,5.545914e-004
3.804927e+003,2.143234e-004
3.806856e+003,2.185106e-004
3.808785e+003,-2.532862e-004
3.810713e+003,-1.987629e-004
3.812642e+003,2.594218e-004
3.814570e+003,1.070753e-003
3.816499e+003,1.063507e-003
3.818427e+003,1.072899e-003
3.820355e+003,1.683977e-003
3.822284e+003,5.415715e-004
3.824213e+003,1.394786e-004
3.826141e+003,1.414195e-004
3.828070e+003,7.379428e-005
3.829998e+003,4.840344e-004
3.831927e+003,8.858629e-004
3.833855e+003,1.068275e-003
3.835783e+003,1.411147e-003
3.837712e+003,1.255449e-003
3.839641e+003,7.727370e-004
3.841569e+003,3.217272e-004
3.843498e+003,2.880432e-004
3.845426e+003,3.054999e-004
3.847354e+003,4.359223e-004
3.849283e+003,8.039847e-004
3.851211e+003,1.915161e-003
3.853140e+003,2.506997e-003
3.855069e+003,6.702989e-004
3.856997e+003,3.844723e-004
3.858926e+003,1.488589e-004
3.860854e+003,5.504154e-004
3.862782e+003,1.422238e-003
3.864711e+003,1.489975e-003
3.866640e+003,9.348691e-004
3.868568e+003,1.124132e-003
3.870497e+003,7.478371e-004
3.872425e+003,7.773824e-004
3.874354e+003,8.933693e-004
3.876282e+003,4.127212e-004
3.878210e+003,8.650012e-004
3.880139e+003,1.207288e-003
3.882068e+003,8.705407e-004
3.883996e+003,1.358241e-003
3.885925e+003,8.474477e-004
3.887853e+003,3.489852e-005
3.889781e+003,6.147884e-004
3.891710e+003,8.538701e-004
3.893638e+003,4.771911e-004
3.895567e+003,7.473454e-004
3.897496e+003,1.367576e-003
3.899424e+003,1.732055e-003
3.901353e+003,1.615327e-003
3.903281e+003,1.274187e-003
3.905209e+003,5.718507e-004
3.907138e+003,1.209043e-004
3.909066e+003,8.511543e-005
3.910995e+003,2.101958e-004
3.912924e+003,3.703162e-004
3.914852e+003,7.743910e-004
3.916781e+003,1.085099e-003
3.918709e+003,8.878261e-004
3.920637e+003,5.233288e-004
3.922566e+003,5.660430e-004
3.924494e+003,8.261576e-004
3.926423e+003,5.544871e-004
3.928352e+003,6.508976e-004
3.930280e+003,8.528605e-004
3.932208e+003,7.362440e-004
3.934137e+003,4.489757e-004
3.936065e+003,4.226305e-004
3.937994e+003,3.590025e-004
3.939922e+003,4.069880e-004
3.941851e+003,8.484721e-004
3.943780e+003,6.502010e-004
3.945708e+003,4.678853e-004
3.947636e+003,7.477030e-004
3.949565e+003,6.346442e-004
3.951493e+003,3.994443e-004
3.953422e+003,3.030747e-004
3.955351e+003,3.175251e-004
3.957279e+003,3.825165e-004
3.959208e+003,2.710074e-004
3.961136e+003,3.170297e-004
3.963064e+003,2.747327e-004
3.964993e+003,1.687668e-004
3.966921e+003,2.476312e-004
3.968850e+003,3.060549e-004
3.970779e+003,3.580973e-004
3.972707e+003,4.229322e-004
3.974635e+003,4.345216e-004
3.976564e+003,3.053285e-004
3.978492e+003,3.335327e-004
3.980421e+003,3.332570e-004
3.982349e+003,3.355257e-004
3.984278e+003,3.251471e-004
3.986207e+003,2.715327e-004
3.988135e+003,3.783219e-004
3.990063e+003,5.460195e-004
3.991992e+003,5.443394e-004
3.993920e+003,5.375333e-004
3.995849e+003,5.088449e-004
3.997777e+003,4.073195e-004
3.999706e+003,2.858303e-004
4.001635e+003,0.000000e+000
