3.991992e+002,0.000000e+000
4.011277e+002,0.000000e+000
4.030562e+002,0.000000e+000
4.049846e+002,0.000000e+000
4.069131e+002,0.000000e+000
4.088416e+002,0.000000e+000
4.107701e+002,0.000000e+000
4.126986e+002,0.000000e+000
4.146271e+002,0.000000e+000
4.165556e+002,0.000000e+000
4.184841e+002,0.000000e+000
4.204126e+002,0.000000e+000
4.223411e+002,0.000000e+000
4.242697e+002,0.000000e+000
4.261982e+002,0.000000e+000
4.281266e+002,0.000000e+000
4.300551e+002,0.000000e+000
4.319836e+002,0.000000e+000
4.339121e+002,0.000000e+000
4.358406e+002,0.000000e+000
4.377691e+002,0.000000e+000
4.396976e+002,0.000000e+000
4.416261e+002,0.000000e+000
4.435546e+002,0.000000e+000
4.454831e+002,0.000000e+000
4.474116e+002,0.000000e+000
4.493401e+002,0.000000e+000
4.512686e+002,0.000000e+000
4.531971e+002,0.000000e+000
4.551256e+002,0.000000e+000
4.570541e+002,0.000000e+000
4.589826e+002,0.000000e+000
4.609111e+002,0.000000e+000
4.628396e+002,0.000000e+000
4.647681e+002,0.000000e+000
4.666966e+002,0.000000e+000
4.686251e+002,0.000000e+000
4.705536e+002,0.000000e+000
4.724821e+002,0.000000e+000
4.744106e+002,0.000000e+000
4.763391e+002,0.000000e+000
4.782676e+002,0.000000e+000
4.801961e+002,0.000000e+000
4.821246e+002,0.000000e+000
4.840531e+002,0.000000e+000
4.859816e+002,0.000000e+000
4.879101e+002,0.000000e+000
4.898386e+002,0.000000e+000
4.917671e+002,0.000000e+000
4.936956e+002,0.000000e+000
4.956241e+002,0.000000e+000
4.975526e+002,0.000000e+000
4.994811e+002,0.000000e+000
5.014096e+002,0.000000e+000
5.033381e+002,0.000000e+000
5.052666e+002,0.000000e+000
5.071951e+002,0.000000e+000
5.091236e+002,0.000000e+000
5.110521e+002,0.000000e+000
5.129806e+002,0.000000e+000
5.149091e+002,0.000000e+000
5.168376e+002,0.000000e+000
5.187661e+002,0.000000e+000
5.206946e+002,0.000000e+000
5.226230e+002,0.000000e+000
5.245516e+002,7.639658e-004
5.264800e+002,8.423477e-004
5.284086e+002,8.433349e-004
5.303370e+002,8.363184e-004
5.322656e+002,8.109938e-004
5.341940e+002,7.863734e-004
5.361226e+002,5.058311e-004
5.380510e+002,2.844352e-004
5.399796e+002,1.419280e-004
5.419081e+002,8.236617e-006
5.438365e+002,-1.176074e-004
5.457650e+002,-1.228265e-004
5.476935e+002,-1.634918e-004
5.496221e+002,-7.813424e-005
5.515505e+002,-4.371814e-005
5.534790e+002,1.811627e-004
5.554075e+002,2.451185e-004
5.573361e+002,1.673196e-004
5.592645e+002,-1.128968e-004
5.611931e+002,-2.071299e-004
5.631215e+002,-2.383385e-004
5.650500e+002,-2.405122e-004
5.669785e+002,-3.161542e-004
5.689070e+002,-3.573969e-004
5.708355e+002,-4.061740e-004
5.727640e+002,-3.020074e-004
5.746925e+002,-3.886782e-004
5.766210e+002,-4.022513e-004
5.785495e+002,-3.643036e-004
5.804780e+002,-2.609566e-004
5.824065e+002,-2.986696e-004
5.843350e+002,-3.124978e-004
5.862635e+002,-3.670696e-004
5.881920e+002,-3.229585e-004
5.901205e+002,-3.602225e-004
5.920490e+002,-4.315563e-004
5.939775e+002,-4.584361e-004
5.959060e+002,-3.348738e-004
5.978345e+002,-2.876166e-004
5.997630e+002,-2.767555e-004
6.016915e+002,-2.923477e-004
6.036200e+002,-2.792198e-004
6.055485e+002,-2.993364e-004
6.074770e+002,-2.345983e-004
6.094055e+002,-2.690144e-004
6.113340e+002,-2.208501e-004
6.132625e+002,-3.486965e-004
6.151910e+002,-4.155152e-004
6.171195e+002,-3.480762e-004
6.190480e+002,-1.840442e-004
6.209765e+002,-8.323230e-005
6.229050e+002,7.466786e-005
6.248335e+002,1.087971e-004
6.267620e+002,1.759920e-004
6.286905e+002,6.253272e-005
6.306190e+002,2.361834e-005
6.325475e+002,6.039999e-005
6.344760e+002,2.155937e-004
6.364045e+002,2.800096e-004
6.383330e+002,3.406703e-004
6.402615e+002,2.652891e-004
6.421899e+002,2.595689e-004
6.441185e+002,2.386589e-004
6.460470e+002,2.261978e-004
6.479755e+002,8.676946e-005
6.499039e+002,2.218038e-005
6.518325e+002,4.723482e-005
6.537610e+002,1.616385e-004
6.556895e+002,9.503961e-005
6.576179e+002,6.164797e-005
6.595464e+002,-8.735806e-006
6.614750e+002,-1.547299e-005
6.634034e+002,5.923770e-005
6.653319e+002,2.196915e-004
6.672604e+002,3.153365e-004
6.691890e+002,4.492085e-004
6.711174e+002,3.244635e-004
6.730460e+002,2.134256e-004
6.749745e+002,1.003519e-004
6.769030e+002,5.460344e-005
6.788314e+002,2.084300e-005
6.807599e+002,6.327964e-005
6.826885e+002,4.192628e-005
6.846169e+002,3.398396e-005
6.865454e+002,5.840324e-005
6.884739e+002,1.571439e-004
6.904025e+002,1.508445e-004
6.923309e+002,1.817923e-004
6.942594e+002,2.316386e-004
6.961879e+002,2.883673e-004
6.981165e+002,2.231225e-004
7.000449e+002,1.698453e-004
7.019734e+002,1.651719e-004
7.039019e+002,2.634227e-004
7.058304e+002,2.256930e-004
7.077589e+002,2.866369e-004
7.096874e+002,2.747737e-004
7.116159e+002,2.583098e-004
7.135444e+002,2.885647e-004
7.154729e+002,3.433470e-004
7.174014e+002,2.914760e-004
7.193299e+002,3.952142e-004
7.212584e+002,4.778933e-004
7.231869e+002,5.743038e-004
7.251154e+002,5.556941e-004
7.270439e+002,5.053692e-004
7.289724e+002,4.652496e-004
7.309009e+002,4.856642e-004
7.328294e+002,3.718920e-004
7.347579e+002,3.536176e-004
7.366864e+002,3.441405e-004
7.386149e+002,3.722869e-004
7.405434e+002,3.877115e-004
7.424719e+002,4.511140e-004
7.444004e+002,3.960803e-004
7.463289e+002,3.549401e-004
7.482574e+002,2.867281e-004
7.501859e+002,3.257710e-004
7.521144e+002,3.357865e-004
7.540428e+002,3.622584e-004
7.559714e+002,3.634933e-004
7.578999e+002,4.669316e-004
7.598284e+002,4.809462e-004
7.617568e+002,5.097836e-004
7.636854e+002,4.748497e-004
7.656139e+002,5.500577e-004
7.675424e+002,6.042104e-004
7.694709e+002,7.010233e-004
7.713994e+002,6.853454e-004
7.733279e+002,6.906372e-004
7.752563e+002,6.917212e-004
7.771849e+002,8.029547e-004
7.791134e+002,9.315293e-004
7.810419e+002,1.119478e-003
7.829703e+002,1.253784e-003
7.848989e+002,1.468629e-003
7.868274e+002,1.772840e-003
7.887559e+002,2.175806e-003
7.906843e+002,2.447862e-003
7.926129e+002,2.750520e-003
7.945414e+002,3.080277e-003
7.964698e+002,3.469685e-003
7.983983e+002,3.898844e-003
8.003268e+002,4.547406e-003
8.022554e+002,5.403457e-003
8.041838e+002,6.973712e-003
8.061123e+002,9.372517e-003
8.080408e+002,1.150895e-002
8.099694e+002,1.139685e-002
8.118978e+002,9.161066e-003
8.138263e+002,6.567236e-003
8.157548e+002,5.000027e-003
8.176833e+002,4.221739e-003
8.196118e+002,3.943890e-003
8.215403e+002,3.790533e-003
8.234689e+002,3.854388e-003
8.253973e+002,3.943037e-003
8.273258e+002,4.175868e-003
8.292543e+002,4.541639e-003
8.311829e+002,5.136674e-003
8.331113e+002,5.892938e-003
8.350398e+002,7.499892e-003
8.369683e+002,1.182425e-002
8.388969e+002,2.149051e-002
8.408253e+002,2.743149e-002
8.427538e+002,1.998298e-002
8.446823e+002,1.077202e-002
8.466108e+002,6.647136e-003
8.485393e+002,4.940052e-003
8.504678e+002,4.170086e-003
8.523963e+002,3.756069e-003
8.543248e+002,3.484135e-003
8.562533e+002,3.194412e-003
8.581818e+002,2.989648e-003
8.601103e+002,2.861731e-003
8.620388e+002,2.741637e-003
8.639673e+002,2.639115e-003
8.658958e+002,2.601653e-003
8.678243e+002,2.464836e-003
8.697528e+002,2.485385e-003
8.716813e+002,2.467776e-003
8.736098e+002,2.446024e-003
8.755383e+002,2.364267e-003
8.774668e+002,2.383264e-003
8.793953e+002,2.325507e-003
8.813238e+002,2.309592e-003
8.832523e+002,2.436226e-003
8.851808e+002,2.692143e-003
8.871093e+002,2.846003e-003
8.890378e+002,3.039198e-003
8.909663e+002,3.359582e-003
8.928948e+002,4.204480e-003
8.948232e+002,5.920287e-003
8.967518e+002,8.538472e-003
8.986803e+002,1.024481e-002
9.006088e+002,9.378623e-003
9.025372e+002,6.715272e-003
9.044658e+002,4.501721e-003
9.063943e+002,3.257636e-003
9.083228e+002,2.784878e-003
9.102512e+002,2.490494e-003
9.121797e+002,2.357749e-003
9.141083e+002,2.240459e-003
9.160367e+002,2.160579e-003
9.179653e+002,2.172660e-003
9.198937e+002,2.228756e-003
9.218223e+002,2.144335e-003
9.237507e+002,2.108047e-003
9.256793e+002,2.123794e-003
9.276077e+002,2.277080e-003
9.295363e+002,2.290638e-003
9.314647e+002,2.477504e-003
9.333932e+002,2.792919e-003
9.353217e+002,3.279287e-003
9.372502e+002,4.028326e-003
9.391787e+002,4.763732e-003
9.411072e+002,4.760053e-003
9.430358e+002,4.309880e-003
9.449642e+002,3.891312e-003
9.468928e+002,3.745643e-003
9.488212e+002,3.735194e-003
9.507498e+002,3.928825e-003
9.526782e+002,4.166914e-003
9.546068e+002,4.597913e-003
9.565352e+002,5.059237e-003
9.584637e+002,5.684817e-003
9.603922e+002,6.467985e-003
9.623207e+002,7.602777e-003
9.642492e+002,9.229666e-003
9.661777e+002,1.223240e-002
9.681062e+002,1.810300e-002
9.700347e+002,2.764661e-002
9.719632e+002,3.503291e-002
9.738917e+002,3.285343e-002
9.758202e+002,2.461729e-002
9.777487e+002,1.706645e-002
9.796772e+002,1.197410e-002
9.816057e+002,9.191003e-003
9.835342e+002,7.878276e-003
9.854627e+002,7.668566e-003
9.873912e+002,8.206163e-003
9.893197e+002,9.647325e-003
9.912482e+002,1.241779e-002
9.931767e+002,1.762359e-002
9.951052e+002,2.556647e-002
9.970337e+002,3.179561e-002
9.989622e+002,2.930845e-002
1.000891e+003,2.097296e-002
1.002819e+003,1.425400e-002
1.004748e+003,1.081143e-002
1.006676e+003,9.141812e-003
1.008605e+003,8.415949e-003
1.010533e+003,8.153593e-003
1.012462e+003,8.216910e-003
1.014390e+003,8.381711e-003
1.016319e+003,8.608658e-003
1.018247e+003,8.627918e-003
1.020176e+003,8.464392e-003
1.022104e+003,8.123707e-003
1.024033e+003,7.785205e-003
1.025961e+003,7.399373e-003
1.027890e+003,7.140812e-003
1.029818e+003,6.987166e-003
1.031747e+003,7.030763e-003
1.033675e+003,7.090379e-003
1.035604e+003,7.224571e-003
1.037532e+003,7.291339e-003
1.039461e+003,7.536221e-003
1.041389e+003,8.111119e-003
1.043318e+003,8.761600e-003
1.045246e+003,8.700565e-003
1.047175e+003,7.986240e-003
1.049103e+003,7.117633e-003
1.051032e+003,6.485496e-003
1.052960e+003,5.944282e-003
1.054889e+003,5.641356e-003
1.056817e+003,5.351733e-003
1.058746e+003,5.122859e-003
1.060674e+003,4.936684e-003
1.062603e+003,4.905295e-003
1.064531e+003,4.875176e-003
1.066460e+003,4.893925e-003
1.068388e+003,4.836038e-003
1.070317e+003,4.857868e-003
1.072245e+003,4.903100e-003
1.074174e+003,4.997469e-003
1.076102e+003,5.099818e-003
1.078031e+003,5.314291e-003
1.079959e+003,5.449880e-003
1.081888e+003,5.601060e-003
1.083816e+003,5.676992e-003
1.085745e+003,5.831636e-003
1.087673e+003,5.940493e-003
1.089602e+003,6.173212e-003
1.091530e+003,6.403413e-003
1.093459e+003,6.764866e-003
1.095387e+003,7.170673e-003
1.097316e+003,7.834997e-003
1.099244e+003,8.734178e-003
1.101173e+003,9.639189e-003
1.103101e+003,9.700164e-003
1.105030e+003,8.942641e-003
1.106958e+003,7.880013e-003
1.108887e+003,7.165231e-003
1.110815e+003,6.662041e-003
1.112744e+003,6.440397e-003
1.114672e+003,6.299883e-003
1.116601e+003,6.205820e-003
1.118529e+003,6.068662e-003
1.120458e+003,6.010380e-003
1.122386e+003,5.904246e-003
1.124315e+003,5.898986e-003
1.126243e+003,5.929556e-003
1.128172e+003,6.062325e-003
1.130100e+003,6.215382e-003
1.132029e+003,6.553352e-003
1.133957e+003,6.933987e-003
1.135885e+003,7.525425e-003
1.137814e+003,8.220397e-003
1.139743e+003,9.219322e-003
1.141671e+003,1.042613e-002
1.143600e+003,1.194071e-002
1.145528e+003,1.382191e-002
1.147457e+003,1.638841e-002
1.149385e+003,1.931955e-002
1.151314e+003,2.193946e-002
1.153242e+003,2.336943e-002
1.155171e+003,2.412397e-002
1.157099e+003,2.484823e-002
1.159028e+003,2.613905e-002
1.160956e+003,2.815649e-002
1.162885e+003,3.140610e-002
1.164813e+003,3.537724e-002
1.166742e+003,3.779958e-002
1.168670e+003,3.495566e-002
1.170599e+003,2.756820e-002
1.172527e+003,2.000534e-002
1.174456e+003,1.479996e-002
1.176384e+003,1.159137e-002
1.178313e+003,9.743690e-003
1.180241e+003,8.619279e-003
1.182170e+003,8.006454e-003
1.184098e+003,7.648654e-003
1.186027e+003,7.539432e-003
1.187955e+003,7.503398e-003
1.189884e+003,7.648870e-003
1.191812e+003,7.799424e-003
1.193740e+003,8.093625e-003
1.195669e+003,8.392699e-003
1.197598e+003,8.797679e-003
1.199526e+003,9.281047e-003
1.201455e+003,9.945452e-003
1.203383e+003,1.058127e-002
1.205312e+003,1.131065e-002
1.207240e+003,1.190573e-002
1.209168e+003,1.244070e-002
1.211097e+003,1.289231e-002
1.213026e+003,1.340535e-002
1.214954e+003,1.392103e-002
1.216883e+003,1.453513e-002
1.218811e+003,1.483577e-002
1.220740e+003,1.481579e-002
1.222668e+003,1.446482e-002
1.224596e+003,1.421171e-002
1.226525e+003,1.407325e-002
1.228453e+003,1.413710e-002
1.230382e+003,1.417969e-002
1.232311e+003,1.437229e-002
1.234239e+003,1.453588e-002
1.236167e+003,1.472043e-002
1.238096e+003,1.482359e-002
1.240025e+003,1.498957e-002
1.241953e+003,1.505163e-002
1.243882e+003,1.510257e-002
1.245810e+003,1.499877e-002
1.247739e+003,1.496954e-002
1.249667e+003,1.507283e-002
1.251595e+003,1.581237e-002
1.253524e+003,1.700158e-002
1.255453e+003,1.722740e-002
1.257381e+003,1.530528e-002
1.259310e+003,1.294215e-002
1.261238e+003,1.105919e-002
1.263167e+003,9.727821e-003
1.265095e+003,8.613952e-003
1.267023e+003,7.806383e-003
1.268952e+003,7.134955e-003
1.270880e+003,6.784126e-003
1.272809e+003,6.527968e-003
1.274738e+003,6.446239e-003
1.276666e+003,6.352130e-003
1.278594e+003,6.440334e-003
1.280523e+003,6.526802e-003
1.282451e+003,6.697293e-003
1.284380e+003,6.820440e-003
1.286308e+003,7.112052e-003
1.288237e+003,7.446863e-003
1.290166e+003,8.078717e-003
1.292094e+003,8.822747e-003
1.294022e+003,9.685554e-003
1.295951e+003,1.007577e-002
1.297879e+003,1.010502e-002
1.299808e+003,1.022307e-002
1.301736e+003,1.153845e-002
1.303665e+003,1.306149e-002
1.305594e+003,1.226595e-002
1.307522e+003,9.409450e-003
1.309450e+003,7.537868e-003
1.311379e+003,6.808184e-003
1.313307e+003,6.749909e-003
1.315236e+003,6.753985e-003
1.317164e+003,7.060125e-003
1.319093e+003,7.353120e-003
1.321021e+003,7.906165e-003
1.322950e+003,8.550774e-003
1.324878e+003,9.639259e-003
1.326807e+003,1.040383e-002
1.328735e+003,1.089172e-002
1.330664e+003,1.053600e-002
1.332592e+003,9.890579e-003
1.334521e+003,9.242367e-003
1.336449e+003,9.124368e-003
1.338378e+003,9.100102e-003
1.340306e+003,9.669621e-003
1.342235e+003,1.017196e-002
1.344163e+003,1.117210e-002
1.346092e+003,1.237623e-002
1.348021e+003,1.428922e-002
1.349949e+003,1.662812e-002
1.351877e+003,2.038222e-002
1.353806e+003,2.580506e-002
1.355734e+003,3.363470e-002
1.357663e+003,3.931700e-002
1.359591e+003,3.975685e-002
1.361520e+003,3.512269e-002
1.363448e+003,3.132164e-002
1.365377e+003,3.108829e-002
1.367305e+003,3.696701e-002
1.369234e+003,5.349894e-002
1.371162e+003,8.446398e-002
1.373091e+003,1.300473e-001
1.375019e+003,1.717203e-001
1.376948e+003,1.521276e-001
1.378876e+003,1.019484e-001
1.380805e+003,6.185649e-002
1.382733e+003,3.723101e-002
1.384662e+003,2.318659e-002
1.386590e+003,1.543166e-002
1.388519e+003,1.145767e-002
1.390447e+003,9.608928e-003
1.392376e+003,8.831870e-003
1.394304e+003,8.116961e-003
1.396233e+003,7.880241e-003
1.398161e+003,7.534813e-003
1.400090e+003,7.555827e-003
1.402018e+003,7.393342e-003
1.403947e+003,7.478148e-003
1.405875e+003,7.500812e-003
1.407804e+003,7.682987e-003
1.409732e+003,7.762820e-003
1.411661e+003,8.030821e-003
1.413589e+003,8.247696e-003
1.415518e+003,8.584064e-003
1.417446e+003,8.867491e-003
1.419375e+003,9.452607e-003
1.421303e+003,9.903345e-003
1.423232e+003,1.054917e-002
1.425160e+003,1.167760e-002
1.427089e+003,1.303764e-002
1.429017e+003,1.569517e-002
1.430946e+003,2.129680e-002
1.432874e+003,2.939322e-002
1.434803e+003,3.610868e-002
1.436731e+003,3.731914e-002
1.438660e+003,3.670356e-002
1.440588e+003,3.967836e-002
1.442517e+003,4.709272e-002
1.444445e+003,5.938065e-002
1.446374e+003,7.471004e-002
1.448302e+003,9.186307e-002
1.450231e+003,9.990993e-002
1.452159e+003,1.023453e-001
1.454088e+003,1.022316e-001
1.456016e+003,1.021524e-001
1.457945e+003,9.828788e-002
1.459873e+003,9.474130e-002
1.461802e+003,8.957554e-002
1.463730e+003,8.139403e-002
1.465659e+003,6.508883e-002
1.467587e+003,5.189700e-002
1.469516e+003,4.104145e-002
1.471444e+003,3.161255e-002
1.473373e+003,2.047721e-002
1.475301e+003,1.560402e-002
1.477230e+003,1.207761e-002
1.479158e+003,1.005144e-002
1.481087e+003,8.440845e-003
1.483015e+003,7.242333e-003
1.484944e+003,6.312933e-003
1.486872e+003,5.682610e-003
1.488801e+003,5.039211e-003
1.490729e+003,4.609820e-003
1.492658e+003,4.259419e-003
1.494586e+003,4.123107e-003
1.496515e+003,3.849972e-003
1.498443e+003,3.640249e-003
1.500372e+003,3.397379e-003
1.502300e+003,3.222488e-003
1.504229e+003,3.101245e-003
1.506157e+003,3.234636e-003
1.508086e+003,3.112465e-003
1.510014e+003,2.879139e-003
1.511943e+003,2.732567e-003
1.513871e+003,2.726540e-003
1.515800e+003,2.719820e-003
1.517728e+003,2.603345e-003
1.519657e+003,2.429884e-003
1.521585e+003,2.475191e-003
1.523514e+003,2.397332e-003
1.525442e+003,2.343718e-003
1.527371e+003,2.320413e-003
1.529299e+003,2.300847e-003
1.531228e+003,2.277128e-003
1.533156e+003,2.386112e-003
1.535085e+003,2.426859e-003
1.537013e+003,2.384149e-003
1.538942e+003,2.486724e-003
1.540870e+003,2.670258e-003
1.542799e+003,2.474934e-003
1.544727e+003,2.421152e-003
1.546656e+003,2.402689e-003
1.548584e+003,2.408259e-003
1.550513e+003,2.427652e-003
1.552441e+003,2.422504e-003
1.554370e+003,2.519976e-003
1.556298e+003,2.528977e-003
1.558227e+003,2.703395e-003
1.560155e+003,2.573662e-003
1.562084e+003,2.359938e-003
1.564012e+003,2.338082e-003
1.565941e+003,2.324399e-003
1.567869e+003,2.342157e-003
1.569798e+003,2.412148e-003
1.571726e+003,2.310470e-003
1.573655e+003,2.270170e-003
1.575583e+003,2.403606e-003
1.577512e+003,2.457317e-003
1.579440e+003,2.334993e-003
1.581369e+003,2.286293e-003
1.583297e+003,2.319869e-003
1.585226e+003,2.396911e-003
1.587154e+003,2.413381e-003
1.589083e+003,2.382398e-003
1.591011e+003,2.391651e-003
1.592940e+003,2.437502e-003
1.594868e+003,2.479292e-003
1.596797e+003,2.513163e-003
1.598725e+003,2.522271e-003
1.600654e+003,2.545234e-003
1.602582e+003,2.604991e-003
1.604511e+003,2.626751e-003
1.606439e+003,2.630983e-003
1.608368e+003,2.672456e-003
1.610296e+003,2.708040e-003
1.612225e+003,2.736162e-003
1.614153e+003,2.782222e-003
1.616082e+003,2.896365e-003
1.618010e+003,2.892084e-003
1.619939e+003,2.817880e-003
1.621867e+003,2.886254e-003
1.623796e+003,3.005993e-003
1.625724e+003,2.965365e-003
1.627653e+003,3.018107e-003
1.629581e+003,3.081072e-003
1.631510e+003,3.098167e-003
1.633438e+003,3.172811e-003
1.635367e+003,3.364839e-003
1.637295e+003,3.281139e-003
1.639224e+003,3.147636e-003
1.641152e+003,3.130428e-003
1.643081e+003,3.168847e-003
1.645009e+003,3.347959e-003
1.646938e+003,3.593218e-003
1.648866e+003,3.350392e-003
1.650795e+003,3.166296e-003
1.652723e+003,3.276758e-003
1.654652e+003,3.071323e-003
1.656580e+003,2.885938e-003
1.658509e+003,2.825789e-003
1.660437e+003,2.850119e-003
1.662366e+003,2.814919e-003
1.664294e+003,2.734691e-003
1.666223e+003,2.668336e-003
1.668151e+003,2.773561e-003
1.670080e+003,2.839878e-003
1.672008e+003,2.638724e-003
1.673937e+003,2.531540e-003
1.675865e+003,2.575666e-003
1.677794e+003,2.528824e-003
1.679722e+003,2.530728e-003
1.681651e+003,2.553627e-003
1.683579e+003,2.745338e-003
1.685508e+003,2.545003e-003
1.687436e+003,2.407141e-003
1.689365e+003,2.391625e-003
1.691293e+003,2.384018e-003
1.693222e+003,2.405304e-003
1.695150e+003,2.605427e-003
1.697079e+003,2.478484e-003
1.699007e+003,2.347507e-003
1.700936e+003,2.378825e-003
1.702864e+003,2.269056e-003
1.704793e+003,2.304763e-003
1.706721e+003,2.335735e-003
1.708650e+003,2.299983e-003
1.710578e+003,2.361361e-003
1.712507e+003,2.361383e-003
1.714435e+003,2.415802e-003
1.716364e+003,2.489701e-003
1.718292e+003,2.488766e-003
1.720221e+003,2.327226e-003
1.722149e+003,2.291504e-003
1.724078e+003,2.305090e-003
1.726006e+003,2.349645e-003
1.727935e+003,2.405051e-003
1.729863e+003,2.539873e-003
1.731792e+003,2.627276e-003
1.733720e+003,2.872422e-003
1.735649e+003,2.975792e-003
1.737577e+003,3.092948e-003
1.739506e+003,3.599398e-003
1.741434e+003,4.047722e-003
1.743363e+003,4.419643e-003
1.745291e+003,4.755843e-003
1.747220e+003,4.938856e-003
1.749148e+003,4.983436e-003
1.751077e+003,4.580818e-003
1.753005e+003,3.946763e-003
1.754934e+003,3.422488e-003
1.756862e+003,2.869472e-003
1.758791e+003,2.366122e-003
1.760719e+003,2.038211e-003
1.762648e+003,1.692291e-003
1.764576e+003,1.407020e-003
1.766505e+003,1.245689e-003
1.768433e+003,1.191769e-003
1.770362e+003,1.073569e-003
1.772290e+003,1.002982e-003
1.774219e+003,7.495619e-004
1.776147e+003,6.734170e-004
1.778076e+003,7.195063e-004
1.780004e+003,7.850341e-004
1.781933e+003,7.024556e-004
1.783861e+003,7.041730e-004
1.785790e+003,6.767176e-004
1.787718e+003,6.331429e-004
1.789646e+003,6.538816e-004
1.791575e+003,7.198267e-004
1.793504e+003,6.292574e-004
1.795432e+003,5.808100e-004
1.797361e+003,5.683042e-004
1.799289e+003,5.464256e-004
1.801218e+003,4.497133e-004
1.803146e+003,4.151762e-004
1.805074e+003,3.658198e-004
1.807003e+003,2.817884e-004
1.808932e+003,1.585633e-004
1.810860e+003,-4.295260e-006
1.812789e+003,-2.447404e-004
1.814717e+003,-5.091242e-004
1.816646e+003,-6.694235e-004
1.818574e+003,-2.695248e-004
1.820502e+003,6.488338e-005
1.822431e+003,2.415590e-004
1.824360e+003,3.375150e-004
1.826288e+003,3.409274e-004
1.828217e+003,2.569631e-004
1.830145e+003,3.081597e-004
1.832073e+003,7.816777e-005
1.834002e+003,-2.650917e-005
1.835931e+003,-9.242445e-006
1.837859e+003,9.873882e-005
1.839788e+003,-6.720424e-006
1.841716e+003,4.880875e-005
1.843645e+003,1.966245e-004
1.845573e+003,1.373701e-004
1.847501e+003,-1.023412e-004
1.849430e+003,-1.008213e-004
1.851359e+003,-1.350977e-004
1.853287e+003,-1.031384e-004
1.855216e+003,-8.210167e-005
1.857144e+003,-1.510680e-004
1.859073e+003,-2.311729e-004
1.861001e+003,-2.793185e-004
1.862929e+003,-2.306700e-004
1.864858e+003,-1.576506e-004
1.866787e+003,-9.467825e-005
1.868715e+003,6.698444e-005
1.870644e+003,-1.324974e-004
1.872572e+003,-1.883954e-004
1.874500e+003,-3.732145e-004
1.876429e+003,-3.292151e-004
1.878357e+003,-3.035255e-004
1.880286e+003,-2.211072e-004
1.882215e+003,-1.617484e-004
1.884143e+003,-1.371615e-004
1.886072e+003,-3.424510e-004
1.888000e+003,-2.865493e-004
1.889928e+003,-1.717508e-004
1.891857e+003,-1.893677e-004
1.893785e+003,-3.739484e-004
1.895714e+003,-2.819225e-004
1.897643e+003,-1.806803e-004
1.899571e+003,-1.561716e-004
1.901500e+003,-1.473688e-004
1.903428e+003,-1.385659e-004
1.905356e+003,-1.297668e-004
1.907285e+003,-1.209751e-004
1.909213e+003,-1.121871e-004
1.911142e+003,-1.034029e-004
1.913071e+003,-9.462237e-005
1.914999e+003,-8.585304e-005
1.916927e+003,-7.707998e-005
1.918856e+003,-6.831437e-005
1.920784e+003,-5.955249e-005
1.922713e+003,-5.079433e-005
1.924641e+003,-4.204363e-005
1.926570e+003,-3.329292e-005
1.928499e+003,-2.454966e-005
1.930427e+003,-1.581013e-005
1.932355e+003,-7.078052e-006
1.934284e+003,1.657754e-006
1.936212e+003,1.037866e-005
1.938141e+003,1.909956e-005
1.940070e+003,2.782047e-005
1.941998e+003,3.653392e-005
1.943927e+003,4.523620e-005
1.945855e+003,5.393848e-005
1.947783e+003,6.264076e-005
1.949712e+003,7.133558e-005
1.951640e+003,8.002669e-005
1.953569e+003,8.871034e-005
1.955498e+003,9.739771e-005
1.957426e+003,1.060739e-004
1.959354e+003,1.147352e-004
1.961283e+003,1.234114e-004
1.963211e+003,1.320727e-004
1.965140e+003,1.407340e-004
1.967068e+003,1.493916e-004
1.968997e+003,1.580380e-004
1.970926e+003,1.666807e-004
1.972854e+003,1.753271e-004
1.974782e+003,1.839623e-004
1.976711e+003,1.925938e-004
1.978639e+003,2.012253e-004
1.980568e+003,2.098493e-004
1.982496e+003,2.184622e-004
1.984425e+003,2.270788e-004
1.986354e+003,2.356917e-004
1.988282e+003,2.442971e-004
1.990210e+003,2.528951e-004
1.992139e+003,2.615005e-004
1.994067e+003,2.700835e-004
1.995996e+003,2.786703e-004
1.997924e+003,2.872534e-004
1.999853e+003,2.958365e-004
2.001781e+003,3.044084e-004
2.003710e+003,3.129803e-004
2.005638e+003,3.215447e-004
2.007567e+003,3.301091e-004
2.009495e+003,3.386661e-004
2.011424e+003,3.472157e-004
2.013352e+003,3.557652e-004
2.015281e+003,3.643036e-004
2.017209e+003,3.728494e-004
2.019138e+003,3.813803e-004
2.021066e+003,3.899112e-004
2.022995e+003,3.984384e-004
2.024923e+003,4.069582e-004
2.026852e+003,4.154742e-004
2.028781e+003,4.239902e-004
2.030709e+003,4.324950e-004
2.032637e+003,4.409999e-004
2.034566e+003,4.494973e-004
2.036494e+003,4.579946e-004
2.038423e+003,4.664809e-004
2.040351e+003,4.749633e-004
2.042280e+003,4.834495e-004
2.044208e+003,4.919283e-004
2.046137e+003,5.003996e-004
2.048065e+003,5.088672e-004
2.049994e+003,5.173273e-004
2.051922e+003,5.257837e-004
2.053851e+003,5.342439e-004
2.055779e+003,5.426928e-004
2.057708e+003,5.511381e-004
2.059636e+003,5.595796e-004
2.061565e+003,5.680136e-004
2.063493e+003,5.764477e-004
2.065422e+003,5.848706e-004
2.067350e+003,5.932935e-004
2.069279e+003,6.017201e-004
2.071207e+003,6.101318e-004
2.073136e+003,6.185435e-004
2.075064e+003,6.269477e-004
2.076993e+003,6.353483e-004
2.078921e+003,6.437413e-004
2.080850e+003,6.521307e-004
2.082778e+003,6.605238e-004
2.084707e+003,6.689131e-004
2.086635e+003,6.772913e-004
2.088564e+003,6.856620e-004
2.090492e+003,6.940328e-004
2.092421e+003,7.023923e-004
2.094349e+003,7.107593e-004
2.096278e+003,7.191114e-004
2.098206e+003,7.274710e-004
2.100135e+003,7.358156e-004
2.102063e+003,7.441603e-004
2.103992e+003,7.524975e-004
2.105920e+003,7.608309e-004
2.107849e+003,7.691570e-004
2.109777e+003,7.774793e-004
2.111706e+003,7.858016e-004
2.113634e+003,7.941239e-004
2.115563e+003,8.024350e-004
2.117491e+003,8.107424e-004
2.119420e+003,8.190423e-004
2.121348e+003,8.273423e-004
2.123277e+003,8.356348e-004
2.125205e+003,8.439273e-004
2.127134e+003,8.522123e-004
2.129062e+003,8.604974e-004
2.130991e+003,8.687750e-004
2.132919e+003,8.770451e-004
2.134848e+003,8.853152e-004
2.136776e+003,8.935779e-004
2.138705e+003,9.018332e-004
2.140633e+003,9.100884e-004
2.142562e+003,9.183362e-004
2.144490e+003,9.265766e-004
2.146419e+003,9.348169e-004
2.148347e+003,9.430572e-004
2.150276e+003,9.512976e-004
2.152204e+003,9.595230e-004
2.154133e+003,9.677336e-004
2.156061e+003,9.759665e-004
2.157990e+003,9.841770e-004
2.159918e+003,9.923875e-004
2.161847e+003,1.000591e-003
2.163775e+003,1.008794e-003
2.165704e+003,1.016982e-003
2.167632e+003,1.025170e-003
2.169561e+003,1.033366e-003
2.171489e+003,1.041546e-003
2.173418e+003,1.049735e-003
2.175346e+003,1.057908e-003
2.177275e+003,1.066074e-003
2.179203e+003,1.074232e-003
2.181132e+003,1.082405e-003
2.183060e+003,1.090549e-003
2.184989e+003,1.098707e-003
2.186917e+003,1.106858e-003
2.188846e+003,1.114994e-003
2.190774e+003,1.123130e-003
2.192703e+003,1.131266e-003
2.194631e+003,1.139395e-003
2.196560e+003,1.147524e-003
2.198488e+003,1.155630e-003
2.200417e+003,1.163766e-003
2.202345e+003,1.171872e-003
2.204274e+003,1.179978e-003
2.206202e+003,1.188084e-003
2.208131e+003,1.196183e-003
2.210059e+003,1.204282e-003
2.211988e+003,1.212358e-003
2.213916e+003,1.220450e-003
2.215845e+003,1.228526e-003
2.217773e+003,1.236603e-003
2.219702e+003,1.244687e-003
2.221630e+003,1.252748e-003
2.223559e+003,1.260810e-003
2.225487e+003,1.268864e-003
2.227416e+003,1.276925e-003
2.229344e+003,1.284964e-003
2.231273e+003,1.293026e-003
2.233201e+003,1.301058e-003
2.235130e+003,1.309089e-003
2.237058e+003,1.317121e-003
2.238987e+003,1.325145e-003
2.240915e+003,1.333170e-003
2.242844e+003,1.341194e-003
2.244772e+003,1.349203e-003
2.246701e+003,1.357220e-003
2.248629e+003,1.365222e-003
2.250558e+003,1.373224e-003
2.252486e+003,1.381218e-003
2.254415e+003,1.389220e-003
2.256343e+003,1.397192e-003
2.258272e+003,1.405180e-003
2.260200e+003,1.413152e-003
2.262129e+003,1.421131e-003
2.264057e+003,1.429103e-003
2.265986e+003,1.437068e-003
2.267914e+003,1.445025e-003
2.269843e+003,1.452982e-003
2.271771e+003,1.460932e-003
2.273700e+003,1.468875e-003
2.275628e+003,1.476824e-003
2.277557e+003,1.484767e-003
2.279485e+003,1.492694e-003
2.281414e+003,1.500621e-003
2.283342e+003,1.508549e-003
2.285271e+003,1.516476e-003
2.287199e+003,1.524389e-003
2.289128e+003,1.532309e-003
2.291056e+003,1.540206e-003
2.292985e+003,1.548104e-003
2.294913e+003,1.556002e-003
2.296842e+003,1.563899e-003
2.298770e+003,1.571789e-003
2.300699e+003,1.579680e-003
2.302627e+003,1.587562e-003
2.304556e+003,1.595438e-003
2.306484e+003,1.603305e-003
2.308413e+003,1.611173e-003
2.310341e+003,1.619026e-003
2.312270e+003,1.626886e-003
2.314198e+003,1.634739e-003
2.316127e+003,1.642585e-003
2.318055e+003,1.650438e-003
2.319984e+003,1.658283e-003
2.321912e+003,1.666121e-003
2.323841e+003,1.673952e-003
2.325769e+003,1.681775e-003
2.327698e+003,1.689598e-003
2.329626e+003,1.697421e-003
2.331555e+003,1.705229e-003
2.333483e+003,1.713037e-003
2.335412e+003,1.720831e-003
2.337340e+003,1.728646e-003
2.339269e+003,1.736440e-003
2.341197e+003,1.744233e-003
2.343126e+003,1.752004e-003
2.345054e+003,1.759797e-003
2.346983e+003,1.767591e-003
2.348911e+003,1.775354e-003
2.350840e+003,1.783118e-003
2.352768e+003,1.790881e-003
2.354697e+003,1.798652e-003
2.356625e+003,1.806408e-003
2.358554e+003,1.814157e-003
2.360482e+003,1.821890e-003
2.362411e+003,1.829639e-003
2.364339e+003,1.837388e-003
2.366268e+003,1.845114e-003
2.368196e+003,1.852848e-003
2.370125e+003,1.860574e-003
2.372053e+003,1.868293e-003
2.373982e+003,1.876011e-003
2.375910e+003,1.883715e-003
2.377839e+003,1.891427e-003
2.379767e+003,1.899131e-003
2.381696e+003,1.906827e-003
2.383624e+003,1.914516e-003
2.385553e+003,1.922205e-003
2.387481e+003,1.929887e-003
2.389410e+003,1.937576e-003
2.391338e+003,1.945257e-003
2.393267e+003,1.952916e-003
2.395195e+003,1.960590e-003
2.397124e+003,1.968250e-003
2.399052e+003,1.975909e-003
2.400981e+003,1.977980e-003
2.402909e+003,1.747362e-003
2.404838e+003,1.727700e-003
2.406766e+003,1.992010e-003
2.408695e+003,2.322741e-003
2.410623e+003,2.346992e-003
2.412552e+003,2.360813e-003
2.414480e+003,2.422951e-003
2.416409e+003,2.403423e-003
2.418337e+003,2.325937e-003
2.420266e+003,2.477661e-003
2.422194e+003,2.614468e-003
2.424123e+003,2.659626e-003
2.426051e+003,2.657510e-003
2.427979e+003,2.760082e-003
2.429908e+003,2.802685e-003
2.431837e+003,2.768487e-003
2.433765e+003,2.804227e-003
2.435694e+003,2.787359e-003
2.437622e+003,2.675317e-003
2.439551e+003,2.754070e-003
2.441479e+003,2.816781e-003
2.443407e+003,2.866127e-003
2.445336e+003,2.916150e-003
2.447265e+003,2.988435e-003
2.449193e+003,2.948053e-003
2.451122e+003,2.991796e-003
2.453050e+003,3.019467e-003
2.454979e+003,3.042966e-003
2.456907e+003,2.991013e-003
2.458836e+003,2.940997e-003
2.460764e+003,2.891846e-003
2.462693e+003,2.748847e-003
2.464621e+003,2.567880e-003
2.466550e+003,2.577767e-003
2.468478e+003,2.504386e-003
2.470406e+003,2.486035e-003
2.472335e+003,2.559021e-003
2.474264e+003,2.694316e-003
2.476192e+003,2.700433e-003
2.478121e+003,2.732784e-003
2.480049e+003,2.690703e-003
2.481978e+003,2.764024e-003
2.483906e+003,2.791636e-003
2.485835e+003,2.765998e-003
2.487763e+003,2.739854e-003
2.489692e+003,2.721645e-003
2.491620e+003,2.801970e-003
2.493549e+003,2.944656e-003
2.495477e+003,2.985977e-003
2.497406e+003,3.158361e-003
2.499334e+003,3.058210e-003
2.501263e+003,2.877899e-003
2.503191e+003,2.835423e-003
2.505120e+003,2.973579e-003
2.507048e+003,3.004298e-003
2.508977e+003,2.937421e-003
2.510905e+003,2.903596e-003
2.512833e+003,3.002375e-003
2.514762e+003,3.073581e-003
2.516691e+003,3.231615e-003
2.518619e+003,3.328979e-003
2.520548e+003,3.329955e-003
2.522476e+003,3.350921e-003
2.524405e+003,3.503092e-003
2.526333e+003,3.638193e-003
2.528261e+003,3.764488e-003
2.530190e+003,3.793910e-003
2.532119e+003,3.876835e-003
2.534047e+003,4.030667e-003
2.535976e+003,4.138321e-003
2.537904e+003,4.105166e-003
2.539833e+003,4.360065e-003
2.541761e+003,4.450396e-003
2.543689e+003,4.367284e-003
2.545618e+003,4.451141e-003
2.547547e+003,4.569136e-003
2.549475e+003,4.461020e-003
2.551404e+003,4.545197e-003
2.553332e+003,4.809082e-003
2.555260e+003,4.979938e-003
2.557189e+003,5.031757e-003
2.559117e+003,5.107507e-003
2.561046e+003,5.151078e-003
2.562975e+003,5.367465e-003
2.564903e+003,5.565934e-003
2.566832e+003,5.754098e-003
2.568760e+003,5.733825e-003
2.570688e+003,5.906291e-003
2.572617e+003,6.332375e-003
2.574546e+003,6.614454e-003
2.576474e+003,6.831355e-003
2.578403e+003,7.268511e-003
2.580331e+003,7.520877e-003
2.582260e+003,7.539108e-003
2.584188e+003,7.371776e-003
2.586116e+003,7.210366e-003
2.588045e+003,6.967582e-003
2.589974e+003,6.804839e-003
2.591902e+003,6.662682e-003
2.593831e+003,6.608859e-003
2.595759e+003,6.571412e-003
2.597688e+003,6.662324e-003
2.599616e+003,6.810315e-003
2.601544e+003,6.934494e-003
2.603473e+003,7.058747e-003
2.605402e+003,7.371873e-003
2.607330e+003,7.658519e-003
2.609259e+003,7.946208e-003
2.611187e+003,8.077607e-003
2.613115e+003,8.183733e-003
2.615044e+003,8.351475e-003
2.616972e+003,8.437194e-003
2.618901e+003,8.448288e-003
2.620830e+003,8.485489e-003
2.622758e+003,8.529119e-003
2.624687e+003,8.520842e-003
2.626615e+003,8.473597e-003
2.628543e+003,8.453131e-003
2.630472e+003,8.441836e-003
2.632400e+003,8.500770e-003
2.634329e+003,8.565210e-003
2.636258e+003,8.639373e-003
2.638186e+003,8.750759e-003
2.640115e+003,8.914858e-003
2.642043e+003,9.113669e-003
2.643971e+003,9.274222e-003
2.645900e+003,9.434544e-003
2.647828e+003,9.582438e-003
2.649757e+003,9.728551e-003
2.651686e+003,9.900101e-003
2.653614e+003,1.002967e-002
2.655542e+003,1.014765e-002
2.657471e+003,1.023271e-002
2.659399e+003,1.024747e-002
2.661328e+003,1.008955e-002
2.663256e+003,9.694152e-003
2.665185e+003,9.307161e-003
2.667114e+003,9.169370e-003
2.669042e+003,9.151563e-003
2.670970e+003,9.229384e-003
2.672899e+003,9.311244e-003
2.674827e+003,9.373687e-003
2.676756e+003,9.412088e-003
2.678685e+003,9.473242e-003
2.680613e+003,9.489708e-003
2.682542e+003,9.467244e-003
2.684470e+003,9.411648e-003
2.686398e+003,9.415105e-003
2.688327e+003,9.450458e-003
2.690255e+003,9.460457e-003
2.692184e+003,9.484239e-003
2.694113e+003,9.512059e-003
2.696041e+003,9.549573e-003
2.697969e+003,9.719253e-003
2.699898e+003,9.881757e-003
2.701826e+003,1.009262e-002
2.703755e+003,1.033933e-002
2.705683e+003,1.061012e-002
2.707612e+003,1.095161e-002
2.709541e+003,1.137505e-002
2.711469e+003,1.190528e-002
2.713397e+003,1.257476e-002
2.715326e+003,1.332162e-002
2.717254e+003,1.422287e-002
2.719183e+003,1.515976e-002
2.721111e+003,1.570515e-002
2.723040e+003,1.566051e-002
2.724969e+003,1.513208e-002
2.726897e+003,1.432105e-002
2.728825e+003,1.360239e-002
2.730754e+003,1.303928e-002
2.732682e+003,1.262519e-002
2.734611e+003,1.232195e-002
2.736539e+003,1.200043e-002
2.738468e+003,1.163927e-002
2.740396e+003,1.130883e-002
2.742325e+003,1.105669e-002
2.744253e+003,1.085502e-002
2.746182e+003,1.079537e-002
2.748110e+003,1.080142e-002
2.750039e+003,1.076377e-002
2.751967e+003,1.078819e-002
2.753896e+003,1.090723e-002
2.755824e+003,1.112979e-002
2.757753e+003,1.134184e-002
2.759681e+003,1.152357e-002
2.761610e+003,1.176846e-002
2.763538e+003,1.199681e-002
2.765467e+003,1.222330e-002
2.767395e+003,1.243132e-002
2.769324e+003,1.263455e-002
2.771252e+003,1.284537e-002
2.773181e+003,1.314237e-002
2.775109e+003,1.356333e-002
2.777038e+003,1.402406e-002
2.778966e+003,1.455341e-002
2.780895e+003,1.519576e-002
2.782823e+003,1.584379e-002
2.784752e+003,1.659955e-002
2.786680e+003,1.755581e-002
2.788609e+003,1.859797e-002
2.790537e+003,1.964261e-002
2.792466e+003,2.056699e-002
2.794394e+003,2.133577e-002
2.796323e+003,2.194077e-002
2.798251e+003,2.256130e-002
2.800180e+003,2.349546e-002
2.802108e+003,2.490987e-002
2.804037e+003,2.667323e-002
2.805965e+003,2.843691e-002
2.807894e+003,3.005067e-002
2.809822e+003,3.149630e-002
2.811751e+003,3.293101e-002
2.813679e+003,3.455888e-002
2.815608e+003,3.647254e-002
2.817536e+003,3.886318e-002
2.819465e+003,4.185754e-002
2.821393e+003,4.557788e-002
2.823322e+003,5.033128e-002
2.825250e+003,5.682710e-002
2.827179e+003,6.610121e-002
2.829107e+003,7.979634e-002
2.831036e+003,1.000489e-001
2.832964e+003,1.270481e-001
2.834893e+003,1.552233e-001
2.836821e+003,1.738324e-001
2.838750e+003,1.754061e-001
2.840678e+003,1.610784e-001
2.842607e+003,1.380942e-001
2.844535e+003,1.145608e-001
2.846464e+003,9.553972e-002
2.848392e+003,8.228965e-002
2.850321e+003,7.408212e-002
2.852249e+003,7.018714e-002
2.854178e+003,7.036985e-002
2.856106e+003,7.523435e-002
2.858035e+003,8.636196e-002
2.859963e+003,1.060075e-001
2.861892e+003,1.337031e-001
2.863820e+003,1.607776e-001
2.865749e+003,1.744217e-001
2.867677e+003,1.725029e-001
2.869606e+003,1.642657e-001
2.871534e+003,1.576034e-001
2.873463e+003,1.557620e-001
2.875391e+003,1.584466e-001
2.877320e+003,1.606885e-001
2.879248e+003,1.585386e-001
2.881177e+003,1.536148e-001
2.883105e+003,1.488624e-001
2.885034e+003,1.454462e-001
2.886962e+003,1.433931e-001
2.888891e+003,1.427599e-001
2.890819e+003,1.442825e-001
2.892748e+003,1.490976e-001
2.894676e+003,1.578823e-001
2.896605e+003,1.708026e-001
2.898533e+003,1.870672e-001
2.900462e+003,2.053725e-001
2.902390e+003,2.245581e-001
2.904319e+003,2.431226e-001
2.906247e+003,2.591661e-001
2.908176e+003,2.731158e-001
2.910104e+003,2.901489e-001
2.912033e+003,3.160127e-001
2.913961e+003,3.485579e-001
2.915890e+003,3.732357e-001
2.917818e+003,3.738907e-001
2.919747e+003,3.519638e-001
2.921675e+003,3.224621e-001
2.923604e+003,2.944040e-001
2.925532e+003,2.665374e-001
2.927461e+003,2.359134e-001
2.929389e+003,2.038415e-001
2.931318e+003,1.746852e-001
2.933246e+003,1.518783e-001
2.935175e+003,1.370602e-001
2.937103e+003,1.311356e-001
2.939032e+003,1.354040e-001
2.940960e+003,1.522485e-001
2.942889e+003,1.831700e-001
2.944817e+003,2.253773e-001
2.946746e+003,2.686127e-001
2.948674e+003,2.955307e-001
2.950603e+003,2.929355e-001
2.952531e+003,2.673782e-001
2.954460e+003,2.399884e-001
2.956388e+003,2.261015e-001
2.958317e+003,2.246692e-001
2.960245e+003,2.223006e-001
2.962174e+003,2.056914e-001
2.964102e+003,1.766093e-001
2.966031e+003,1.458299e-001
2.967959e+003,1.179690e-001
2.969888e+003,9.331679e-002
2.971816e+003,7.263809e-002
2.973745e+003,5.615774e-002
2.975673e+003,4.347084e-002
2.977602e+003,3.385120e-002
2.979530e+003,2.653655e-002
2.981459e+003,2.099486e-002
2.983387e+003,1.681559e-002
2.985316e+003,1.355503e-002
2.987244e+003,1.104072e-002
2.989173e+003,9.070121e-003
2.991101e+003,7.461175e-003
2.993030e+003,6.162435e-003
2.994958e+003,5.126975e-003
2.996887e+003,4.332751e-003
2.998815e+003,3.746659e-003
3.000744e+003,3.204793e-003
3.002672e+003,2.678663e-003
3.004601e+003,2.261065e-003
3.006529e+003,1.899712e-003
3.008458e+003,1.532465e-003
3.010386e+003,1.265496e-003
3.012315e+003,1.016833e-003
3.014243e+003,7.027537e-004
3.016172e+003,4.876629e-004
3.018100e+003,3.684610e-004
3.020029e+003,2.174154e-004
3.021957e+003,5.137175e-005
3.023886e+003,-6.359816e-005
3.025814e+003,-1.666769e-004
3.027743e+003,-2.668947e-004
3.029671e+003,-2.996475e-004
3.031600e+003,-3.285930e-004
3.033528e+003,-3.986582e-004
3.035457e+003,-3.834814e-004
3.037385e+003,-3.918558e-004
3.039314e+003,-4.608035e-004
3.041242e+003,-4.042238e-004
3.043171e+003,-3.058314e-004
3.045099e+003,-2.769604e-004
3.047028e+003,-2.483577e-004
3.048956e+003,-2.219975e-004
3.050885e+003,-2.706796e-004
3.052813e+003,-2.542660e-004
3.054742e+003,-2.100095e-004
3.056670e+003,-2.311468e-004
3.058599e+003,-2.374575e-004
3.060527e+003,-1.641437e-004
3.062456e+003,-1.843125e-004
3.064384e+003,-2.218038e-004
3.066313e+003,-1.833439e-004
3.068241e+003,-1.150221e-004
3.070170e+003,-8.014590e-005
3.072098e+003,-1.284778e-004
3.074027e+003,-1.611486e-004
3.075955e+003,-1.919121e-004
3.077884e+003,-1.847297e-004
3.079812e+003,-1.087487e-004
3.081741e+003,-5.649030e-005
3.083669e+003,-1.183301e-004
3.085598e+003,-1.493990e-004
3.087526e+003,6.181002e-005
3.089455e+003,2.056882e-004
3.091383e+003,2.490804e-004
3.093312e+003,2.663359e-004
3.095240e+003,2.767742e-004
3.097169e+003,2.474636e-004
3.099097e+003,2.407581e-004
3.101026e+003,2.701133e-004
3.102954e+003,3.317595e-004
3.104883e+003,3.207847e-004
3.106811e+003,4.007295e-004
3.108740e+003,4.437044e-004
3.110668e+003,4.703999e-004
3.112597e+003,4.696324e-004
3.114525e+003,5.943850e-004
3.116454e+003,6.617978e-004
3.118382e+003,6.772801e-004
3.120311e+003,6.866977e-004
3.122239e+003,7.352456e-004
3.124168e+003,8.535832e-004
3.126096e+003,9.959191e-004
3.128025e+003,1.117006e-003
3.129953e+003,1.146831e-003
3.131882e+003,1.182795e-003
3.133810e+003,1.260839e-003
3.135739e+003,1.305498e-003
3.137667e+003,1.412787e-003
3.139596e+003,1.488574e-003
3.141524e+003,1.485921e-003
3.143453e+003,1.560494e-003
3.145381e+003,1.499914e-003
3.147310e+003,1.412317e-003
3.149238e+003,1.472659e-003
3.151167e+003,1.516171e-003
3.153095e+003,1.498960e-003
3.155024e+003,1.522586e-003
3.156952e+003,1.573846e-003
3.158881e+003,1.490436e-003
3.160809e+003,1.451261e-003
3.162738e+003,1.494110e-003
3.164666e+003,1.468688e-003
3.166594e+003,1.455739e-003
3.168523e+003,1.506083e-003
3.170452e+003,1.534641e-003
3.172380e+003,1.583859e-003
3.174309e+003,1.682498e-003
3.176237e+003,1.751587e-003
3.178166e+003,1.829349e-003
3.180094e+003,1.902819e-003
3.182022e+003,1.963459e-003
3.183951e+003,2.042837e-003
3.185880e+003,2.014369e-003
3.187808e+003,2.084039e-003
3.189737e+003,2.120130e-003
3.191665e+003,2.132572e-003
3.193594e+003,2.166554e-003
3.195522e+003,2.237946e-003
3.197450e+003,2.185158e-003
3.199379e+003,2.065815e-003
3.201308e+003,2.033435e-003
3.203236e+003,2.114214e-003
3.205165e+003,2.201244e-003
3.207093e+003,2.074771e-003
3.209021e+003,1.919657e-003
3.210950e+003,1.881957e-003
3.212878e+003,1.831636e-003
3.214807e+003,1.776345e-003
3.216736e+003,1.741663e-003
3.218664e+003,1.739278e-003
3.220593e+003,1.686350e-003
3.222521e+003,1.562513e-003
3.224449e+003,1.487322e-003
3.226378e+003,1.421884e-003
3.228307e+003,1.285993e-003
3.230235e+003,1.177117e-003
3.232164e+003,1.125485e-003
3.234092e+003,1.102962e-003
3.236021e+003,1.144826e-003
3.237949e+003,1.181580e-003
3.239877e+003,1.117982e-003
3.241806e+003,1.108147e-003
3.243735e+003,1.064897e-003
3.245663e+003,1.136594e-003
3.247592e+003,1.156494e-003
3.249520e+003,1.160935e-003
3.251448e+003,1.196779e-003
3.253377e+003,1.221023e-003
3.255305e+003,1.282595e-003
3.257234e+003,1.328401e-003
3.259163e+003,1.297675e-003
3.261091e+003,1.284041e-003
3.263020e+003,1.325391e-003
3.264948e+003,1.451194e-003
3.266876e+003,1.440860e-003
3.268805e+003,1.448140e-003
3.270733e+003,1.474477e-003
3.272662e+003,1.577877e-003
3.274591e+003,1.603507e-003
3.276519e+003,1.499794e-003
3.278448e+003,1.437269e-003
3.280376e+003,1.527838e-003
3.282304e+003,1.588792e-003
3.284233e+003,1.597919e-003
3.286161e+003,1.547433e-003
3.288090e+003,1.626708e-003
3.290019e+003,1.676992e-003
3.291947e+003,1.695640e-003
3.293875e+003,1.681566e-003
3.295804e+003,1.733132e-003
3.297732e+003,1.742467e-003
3.299661e+003,1.687258e-003
3.301589e+003,1.610406e-003
3.303518e+003,1.570769e-003
3.305447e+003,1.570523e-003
3.307375e+003,1.669504e-003
3.309303e+003,1.686223e-003
3.311232e+003,1.548804e-003
3.313160e+003,1.554072e-003
3.315089e+003,1.634069e-003
3.317018e+003,1.704842e-003
3.318946e+003,1.673304e-003
3.320875e+003,1.673676e-003
3.322803e+003,1.661636e-003
3.324731e+003,1.736008e-003
3.326660e+003,1.841910e-003
3.328588e+003,1.750514e-003
3.330517e+003,1.715191e-003
3.332446e+003,1.734853e-003
3.334374e+003,1.814917e-003
3.336302e+003,1.873866e-003
3.338231e+003,1.882032e-003
3.340159e+003,1.947246e-003
3.342088e+003,2.060622e-003
3.344016e+003,1.939684e-003
3.345945e+003,1.897968e-003
3.347874e+003,1.993895e-003
3.349802e+003,1.963355e-003
3.351730e+003,1.880735e-003
3.353659e+003,1.837209e-003
3.355587e+003,1.907453e-003
3.357516e+003,1.988620e-003
3.359444e+003,1.936123e-003
3.361373e+003,1.953885e-003
3.363302e+003,1.929127e-003
3.365230e+003,1.923576e-003
3.367158e+003,1.966938e-003
3.369087e+003,1.888908e-003
3.371015e+003,1.792930e-003
3.372944e+003,1.764752e-003
3.374872e+003,1.847915e-003
3.376801e+003,1.900800e-003
3.378729e+003,1.854047e-003
3.380658e+003,1.773976e-003
3.382586e+003,1.628689e-003
3.384515e+003,1.588188e-003
3.386443e+003,1.615793e-003
3.388372e+003,1.706146e-003
3.390300e+003,1.782246e-003
3.392229e+003,1.717262e-003
3.394157e+003,1.624830e-003
3.396086e+003,1.600802e-003
3.398014e+003,1.723461e-003
3.399943e+003,1.790375e-003
3.401871e+003,1.701869e-003
3.403800e+003,1.677215e-003
3.405728e+003,1.628213e-003
3.407657e+003,1.670137e-003
3.409585e+003,1.770116e-003
3.411514e+003,1.818977e-003
3.413442e+003,1.714751e-003
3.415371e+003,1.556955e-003
3.417299e+003,1.514256e-003
3.419228e+003,1.562446e-003
3.421156e+003,1.531713e-003
3.423085e+003,1.538873e-003
3.425013e+003,1.487166e-003
3.426942e+003,1.418874e-003
3.428870e+003,1.438133e-003
3.430799e+003,1.484588e-003
3.432727e+003,1.468070e-003
3.434656e+003,1.423486e-003
3.436584e+003,1.455136e-003
3.438513e+003,1.328446e-003
3.440441e+003,1.231052e-003
3.442370e+003,1.335338e-003
3.444298e+003,1.320973e-003
3.446227e+003,1.193695e-003
3.448155e+003,1.071788e-003
3.450084e+003,1.084812e-003
3.452012e+003,1.138784e-003
3.453941e+003,1.101218e-003
3.455869e+003,1.039192e-003
3.457798e+003,1.100346e-003
3.459726e+003,1.000181e-003
3.461655e+003,9.586439e-004
3.463583e+003,1.021929e-003
3.465512e+003,9.584576e-004
3.467440e+003,9.136125e-004
3.469369e+003,9.949356e-004
3.471297e+003,9.526461e-004
3.473226e+003,8.660629e-004
3.475154e+003,8.997470e-004
3.477083e+003,8.911490e-004
3.479011e+003,8.729175e-004
3.480940e+003,9.219646e-004
3.482868e+003,9.886399e-004
3.484797e+003,8.697286e-004
3.486725e+003,8.254200e-004
3.488654e+003,8.339509e-004
3.490582e+003,7.831380e-004
3.492511e+003,8.169189e-004
3.494439e+003,8.986369e-004
3.496368e+003,9.446815e-004
3.498296e+003,8.592829e-004
3.500225e+003,8.103028e-004
3.502153e+003,8.526444e-004
3.504082e+003,9.110719e-004
3.506010e+003,9.120703e-004
3.507939e+003,7.951409e-004
3.509867e+003,6.894469e-004
3.511796e+003,6.878227e-004
3.513724e+003,6.512627e-004
3.515653e+003,6.373897e-004
3.517581e+003,5.610809e-004
3.519510e+003,5.915835e-004
3.521438e+003,6.168857e-004
3.523367e+003,5.435571e-004
3.525295e+003,3.962070e-004
3.527224e+003,2.880171e-004
3.529152e+003,2.837628e-004
3.531081e+003,3.526583e-004
3.533009e+003,2.653301e-004
3.534938e+003,1.910627e-004
3.536866e+003,2.962798e-004
3.538795e+003,3.496408e-004
3.540723e+003,3.718957e-004
3.542652e+003,3.846213e-004
3.544580e+003,3.607646e-004
3.546509e+003,3.596470e-004
3.548437e+003,3.089234e-004
3.550366e+003,2.562478e-004
3.552294e+003,2.084523e-004
3.554223e+003,7.003546e-006
3.556151e+003,-5.058944e-005
3.558080e+003,-2.025813e-005
3.560008e+003,1.362637e-004
3.561937e+003,1.126379e-004
3.563865e+003,-5.412847e-005
3.565794e+003,-8.977950e-005
3.567722e+003,-3.333390e-005
3.569651e+003,-1.257360e-004
3.571579e+003,-1.708716e-004
3.573508e+003,-1.436621e-004
3.575436e+003,-1.672804e-004
3.577365e+003,-3.481582e-004
3.579293e+003,-3.800467e-004
3.581222e+003,-9.351224e-005
3.583150e+003,-3.466755e-005
3.585079e+003,-9.571016e-005
3.587007e+003,-2.345443e-005
3.588936e+003,-1.777485e-004
3.590864e+003,-3.147274e-004
3.592793e+003,-2.010837e-004
3.594721e+003,5.438179e-005
3.596650e+003,-1.438484e-004
3.598578e+003,-2.175644e-004
3.600507e+003,-9.517372e-005
3.602435e+003,-1.381561e-004
3.604364e+003,-1.938567e-004
3.606292e+003,-4.542619e-005
3.608221e+003,2.404079e-004
3.610149e+003,1.081154e-004
3.612078e+003,-1.272187e-004
3.614006e+003,2.744049e-005
3.615935e+003,-7.681549e-006
3.617863e+003,3.042072e-005
3.619792e+003,1.284182e-004
3.621720e+003,-5.680323e-005
3.623649e+003,-2.094135e-004
3.625577e+003,-1.444593e-004
3.627506e+003,2.586320e-004
3.629434e+003,5.315244e-004
3.631363e+003,-1.765788e-006
3.633291e+003,-3.723800e-005
3.635220e+003,2.501160e-005
3.637148e+003,-8.560717e-006
3.639077e+003,7.442385e-005
3.641005e+003,2.616271e-004
3.642934e+003,2.473816e-004
3.644862e+003,3.526211e-004
3.646791e+003,1.008101e-003
3.648719e+003,9.610727e-004
3.650648e+003,2.832487e-004
3.652576e+003,1.354814e-004
3.654505e+003,2.788007e-004
3.656433e+003,4.814416e-004
3.658362e+003,1.585409e-004
3.660290e+003,1.540184e-004
3.662219e+003,3.247857e-004
3.664147e+003,4.338622e-004
3.666076e+003,3.131777e-004
3.668004e+003,4.682019e-004
3.669933e+003,9.195954e-004
3.671861e+003,6.817579e-004
3.673790e+003,7.117763e-004
3.675718e+003,1.571156e-003
3.677647e+003,1.054026e-003
3.679575e+003,6.131902e-004
3.681504e+003,4.396513e-004
3.683432e+003,6.189048e-004
3.685361e+003,8.642823e-004
3.687289e+003,9.524897e-004
3.689218e+003,1.014195e-003
3.691146e+003,9.064078e-004
3.693075e+003,6.705821e-004
3.695003e+003,7.105693e-004
3.696932e+003,9.316951e-004
3.698860e+003,8.709207e-004
3.700789e+003,9.338036e-004
3.702717e+003,9.571910e-004
3.704646e+003,9.381324e-004
3.706574e+003,1.032472e-003
3.708503e+003,1.219086e-003
3.710431e+003,1.509473e-003
3.712360e+003,1.341552e-003
3.714288e+003,1.102254e-003
3.716217e+003,1.092561e-003
3.718145e+003,1.148067e-003
3.720074e+003,1.323022e-003
3.722002e+003,1.518145e-003
3.723931e+003,1.428224e-003
3.725859e+003,1.376972e-003
3.727788e+003,1.325287e-003
3.729716e+003,1.526639e-003
3.731645e+003,2.078004e-003
3.733573e+003,2.236269e-003
3.735502e+003,2.173334e-003
3.737430e+003,1.665585e-003
3.739359e+003,1.592085e-003
3.741287e+003,1.537085e-003
3.743216e+003,1.825705e-003
3.745144e+003,2.394900e-003
3.747073e+003,1.962945e-003
3.749001e+003,1.979515e-003
3.750930e+003,2.096057e-003
3.752858e+003,1.866207e-003
3.754787e+003,1.664840e-003
3.756715e+003,1.782827e-003
3.758644e+003,1.927927e-003
3.760572e+003,2.048850e-003
3.762501e+003,1.758769e-003
3.764429e+003,1.792811e-003
3.766358e+003,1.930960e-003
3.768286e+003,1.826718e-003
3.770215e+003,1.872867e-003
3.772143e+003,1.791008e-003
3.774072e+003,1.821637e-003
3.776000e+003,1.880199e-003
3.777929e+003,1.970097e-003
3.779857e+003,2.078362e-003
3.781786e+003,1.771994e-003
3.783714e+003,1.671664e-003
3.785643e+003,1.822256e-003
3.787571e+003,1.829728e-003
3.789500e+003,1.797892e-003
3.791428e+003,1.928188e-003
3.793357e+003,1.940973e-003
3.795285e+003,2.112851e-003
3.797214e+003,2.058685e-003
3.799142e+003,1.705162e-003
3.801071e+003,1.910903e-003
3.802999e+003,1.862928e-003
3.804927e+003,1.768239e-003
3.806856e+003,2.082802e-003
3.808785e+003,2.000302e-003
3.810713e+003,1.996629e-003
3.812642e+003,2.030618e-003
3.814570e+003,2.235129e-003
3.816499e+003,2.404593e-003
3.818427e+003,2.007820e-003
3.820355e+003,2.066985e-003
3.822284e+003,2.100930e-003
3.824213e+003,1.767166e-003
3.826141e+003,2.039671e-003
3.828070e+003,2.159327e-003
3.829998e+003,2.161413e-003
3.831927e+003,2.179980e-003
3.833855e+003,2.066568e-003
3.835783e+003,2.268918e-003
3.837712e+003,2.397999e-003
3.839641e+003,2.236076e-003
3.841569e+003,2.135277e-003
3.843498e+003,2.001472e-003
3.845426e+003,1.918904e-003
3.847354e+003,1.999699e-003
3.849283e+003,2.315283e-003
3.851211e+003,2.526805e-003
3.853140e+003,3.039323e-003
3.855069e+003,2.472520e-003
3.856997e+003,2.093755e-003
3.858926e+003,2.216011e-003
3.860854e+003,2.517439e-003
3.862782e+003,2.515160e-003
3.864711e+003,2.546087e-003
3.866640e+003,2.192460e-003
3.868568e+003,2.102159e-003
3.870497e+003,2.350062e-003
3.872425e+003,2.129160e-003
3.874354e+003,2.323911e-003
3.876282e+003,2.264336e-003
3.878210e+003,2.172843e-003
3.880139e+003,2.487034e-003
3.882068e+003,2.343833e-003
3.883996e+003,2.284132e-003
3.885925e+003,2.655052e-003
3.887853e+003,2.300180e-003
3.889781e+003,2.283350e-003
3.891710e+003,2.548873e-003
3.893638e+003,2.417579e-003
3.895567e+003,2.244212e-003
3.897496e+003,2.415225e-003
3.899424e+003,2.775460e-003
3.901353e+003,2.687640e-003
3.903281e+003,2.521642e-003
3.905209e+003,2.354130e-003
3.907138e+003,2.148405e-003
3.909066e+003,2.224848e-003
3.910995e+003,2.458408e-003
3.912924e+003,2.482243e-003
3.914852e+003,2.368525e-003
3.916781e+003,2.489753e-003
3.918709e+003,2.448760e-003
3.920637e+003,2.388760e-003
3.922566e+003,2.328299e-003
3.924494e+003,2.455875e-003
3.926423e+003,2.416424e-003
3.928352e+003,2.427191e-003
3.930280e+003,2.516471e-003
3.932208e+003,2.620779e-003
3.934137e+003,2.539657e-003
3.936065e+003,2.326436e-003
3.937994e+003,2.437495e-003
3.939922e+003,2.540424e-003
3.941851e+003,2.536990e-003
3.943780e+003,2.355814e-003
3.945708e+003,2.308816e-003
3.947636e+003,2.465561e-003
3.949565e+003,2.487630e-003
3.951493e+003,2.438083e-003
3.953422e+003,2.416432e-003
3.955351e+003,2.419934e-003
3.957279e+003,2.409503e-003
3.959208e+003,2.409339e-003
3.961136e+003,2.429016e-003
3.963064e+003,2.503201e-003
3.964993e+003,2.464175e-003
3.966921e+003,2.560876e-003
3.968850e+003,2.710849e-003
3.970779e+003,2.518304e-003
3.972707e+003,2.380088e-003
3.974635e+003,2.537504e-003
3.976564e+003,2.698638e-003
3.978492e+003,2.772406e-003
3.980421e+003,2.772786e-003
3.982349e+003,2.765395e-003
3.984278e+003,2.802163e-003
3.986207e+003,2.938338e-003
3.988135e+003,2.928026e-003
3.990063e+003,2.826497e-003
3.991992e+003,2.775252e-003
3.993920e+003,2.804875e-003
3.995849e+003,2.905130e-003
3.997777e+003,2.869606e-003
3.999706e+003,2.818696e-003
4.001635e+003,0.000000e+000
