3.991992e+002,0.000000e+000
4.011277e+002,0.000000e+000
4.030562e+002,0.000000e+000
4.049846e+002,0.000000e+000
4.069131e+002,0.000000e+000
4.088416e+002,0.000000e+000
4.107701e+002,0.000000e+000
4.126986e+002,0.000000e+000
4.146271e+002,0.000000e+000
4.165556e+002,0.000000e+000
4.184841e+002,0.000000e+000
4.204126e+002,0.000000e+000
4.223411e+002,0.000000e+000
4.242697e+002,0.000000e+000
4.261982e+002,0.000000e+000
4.281266e+002,0.000000e+000
4.300551e+002,0.000000e+000
4.319836e+002,0.000000e+000
4.339121e+002,0.000000e+000
4.358406e+002,0.000000e+000
4.377691e+002,0.000000e+000
4.396976e+002,0.000000e+000
4.416261e+002,0.000000e+000
4.435546e+002,0.000000e+000
4.454831e+002,0.000000e+000
4.474116e+002,0.000000e+000
4.493401e+002,0.000000e+000
4.512686e+002,0.000000e+000
4.531971e+002,0.000000e+000
4.551256e+002,0.000000e+000
4.570541e+002,0.000000e+000
4.589826e+002,0.000000e+000
4.609111e+002,0.000000e+000
4.628396e+002,0.000000e+000
4.647681e+002,0.000000e+000
4.666966e+002,0.000000e+000
4.686251e+002,0.000000e+000
4.705536e+002,0.000000e+000
4.724821e+002,0.000000e+000
4.744106e+002,0.000000e+000
4.763391e+002,0.000000e+000
4.782676e+002,0.000000e+000
4.801961e+002,0.000000e+000
4.821246e+002,0.000000e+000
4.840531e+002,0.000000e+000
4.859816e+002,0.000000e+000
4.879101e+002,0.000000e+000
4.898386e+002,0.000000e+000
4.917671e+002,0.000000e+000
4.936956e+002,0.000000e+000
4.956241e+002,0.000000e+000
4.975526e+002,0.000000e+000
4.994811e+002,0.000000e+000
5.014096e+002,0.000000e+000
5.033381e+002,0.000000e+000
5.052666e+002,0.000000e+000
5.071951e+002,0.000000e+000
5.091236e+002,0.000000e+000
5.110521e+002,0.000000e+000
5.129806e+002,0.000000e+000
5.149091e+002,0.000000e+000
5.168376e+002,0.000000e+000
5.187661e+002,0.000000e+000
5.206946e+002,0.000000e+000
5.226230e+002,0.000000e+000
5.245516e+002,3.318814e-005
5.264800e+002,1.741351e-004
5.284086e+002,2.757151e-004
5.303370e+002,2.147876e-004
5.322656e+002,-8.477902e-006
5.341940e+002,-1.486342e-004
5.361226e+002,-3.851442e-004
5.380510e+002,-3.032765e-004
5.399796e+002,-4.055193e-004
5.419081e+002,-4.352296e-004
5.438365e+002,-4.863958e-004
5.457650e+002,-5.181937e-004
5.476935e+002,-5.107222e-004
5.496221e+002,-4.222454e-004
5.515505e+002,-2.948141e-004
5.534790e+002,-1.347606e-004
5.554075e+002,-1.561540e-004
5.573361e+002,-2.123077e-004
5.592645e+002,-3.584647e-004
5.611931e+002,-3.897699e-004
5.631215e+002,-4.461717e-004
5.650500e+002,-4.312954e-004
5.669785e+002,-4.136025e-004
5.689070e+002,-2.433833e-004
5.708355e+002,-1.185292e-004
5.727640e+002,-3.003358e-005
5.746925e+002,4.643452e-005
5.766210e+002,1.402558e-004
5.785495e+002,-2.197397e-005
5.804780e+002,-1.135201e-005
5.824065e+002,1.823128e-005
5.843350e+002,7.835409e-005
5.862635e+002,8.266605e-005
5.881920e+002,8.363940e-005
5.901205e+002,5.056249e-005
5.920490e+002,1.657979e-004
5.939775e+002,1.088923e-004
5.959060e+002,6.634847e-005
5.978345e+002,1.042939e-004
5.997630e+002,2.399018e-004
6.016915e+002,2.628674e-004
6.036200e+002,3.013670e-004
6.055485e+002,2.884694e-004
6.074770e+002,3.379524e-004
6.094055e+002,2.812599e-004
6.113340e+002,3.260143e-004
6.132625e+002,2.855101e-004
6.151910e+002,2.064110e-004
6.171195e+002,7.159321e-005
6.190480e+002,2.180537e-004
6.209765e+002,3.134287e-004
6.229050e+002,4.289664e-004
6.248335e+002,5.702110e-004
6.267620e+002,6.403249e-004
6.286905e+002,6.322959e-004
6.306190e+002,6.880666e-004
6.325475e+002,6.730606e-004
6.344760e+002,7.976521e-004
6.364045e+002,8.427671e-004
6.383330e+002,8.887018e-004
6.402615e+002,9.325210e-004
6.421899e+002,9.722950e-004
6.441185e+002,9.819525e-004
6.460470e+002,1.094877e-003
6.479755e+002,1.103089e-003
6.499039e+002,1.106881e-003
6.518325e+002,1.056718e-003
6.537610e+002,1.117109e-003
6.556895e+002,1.159899e-003
6.576179e+002,1.344345e-003
6.595464e+002,1.374507e-003
6.614750e+002,1.295348e-003
6.634034e+002,1.331426e-003
6.653319e+002,1.453381e-003
6.672604e+002,1.510777e-003
6.691890e+002,1.653524e-003
6.711174e+002,1.742063e-003
6.730460e+002,1.756908e-003
6.749745e+002,1.740665e-003
6.769030e+002,1.901060e-003
6.788314e+002,1.994305e-003
6.807599e+002,2.116196e-003
6.826885e+002,2.264376e-003
6.846169e+002,2.561680e-003
6.865454e+002,2.749899e-003
6.884739e+002,2.948408e-003
6.904025e+002,3.091299e-003
6.923309e+002,3.329480e-003
6.942594e+002,3.501481e-003
6.961879e+002,3.802222e-003
6.981165e+002,4.126174e-003
7.000449e+002,4.357027e-003
7.019734e+002,4.394637e-003
7.039019e+002,4.415707e-003
7.058304e+002,4.375988e-003
7.077589e+002,4.479035e-003
7.096874e+002,4.659171e-003
7.116159e+002,4.949747e-003
7.135444e+002,5.211305e-003
7.154729e+002,5.715831e-003
7.174014e+002,6.338061e-003
7.193299e+002,7.016439e-003
7.212584e+002,7.400260e-003
7.231869e+002,7.419467e-003
7.251154e+002,7.085671e-003
7.270439e+002,6.615044e-003
7.289724e+002,6.136723e-003
7.309009e+002,5.817318e-003
7.328294e+002,5.379104e-003
7.347579e+002,4.938483e-003
7.366864e+002,4.560167e-003
7.386149e+002,4.286700e-003
7.405434e+002,3.914673e-003
7.424719e+002,3.640850e-003
7.444004e+002,3.393658e-003
7.463289e+002,3.106241e-003
7.482574e+002,2.863796e-003
7.501859e+002,2.788307e-003
7.521144e+002,2.638821e-003
7.540428e+002,2.582177e-003
7.559714e+002,2.573025e-003
7.578999e+002,2.543877e-003
7.598284e+002,2.515214e-003
7.617568e+002,2.554926e-003
7.636854e+002,2.547249e-003
7.656139e+002,2.554490e-003
7.675424e+002,2.465378e-003
7.694709e+002,2.378830e-003
7.713994e+002,2.258926e-003
7.733279e+002,2.214251e-003
7.752563e+002,2.111574e-003
7.771849e+002,2.111058e-003
7.791134e+002,2.162280e-003
7.810419e+002,2.314778e-003
7.829703e+002,2.464213e-003
7.848989e+002,2.762208e-003
7.868274e+002,3.064556e-003
7.887559e+002,3.416177e-003
7.906843e+002,3.749083e-003
7.926129e+002,4.138032e-003
7.945414e+002,4.531844e-003
7.964698e+002,5.038792e-003
7.983983e+002,5.548165e-003
8.003268e+002,6.310091e-003
8.022554e+002,7.388066e-003
8.041838e+002,9.299856e-003
8.061123e+002,1.209230e-002
8.080408e+002,1.446055e-002
8.099694e+002,1.419064e-002
8.118978e+002,1.161711e-002
8.138263e+002,8.779023e-003
8.157548e+002,7.077180e-003
8.176833e+002,6.218089e-003
8.196118e+002,5.821013e-003
8.215403e+002,5.606531e-003
8.234689e+002,5.639376e-003
8.253973e+002,5.770851e-003
8.273258e+002,6.061916e-003
8.292543e+002,6.439232e-003
8.311829e+002,7.093009e-003
8.331113e+002,7.939650e-003
8.350398e+002,9.689486e-003
8.369683e+002,1.416386e-002
8.388969e+002,2.407599e-002
8.408253e+002,3.047622e-002
8.427538e+002,2.336934e-002
8.446823e+002,1.397472e-002
8.466108e+002,9.579336e-003
8.485393e+002,7.728682e-003
8.504678e+002,6.810462e-003
8.523963e+002,6.293233e-003
8.543248e+002,6.005895e-003
8.562533e+002,5.729941e-003
8.581818e+002,5.531737e-003
8.601103e+002,5.344037e-003
8.620388e+002,5.245436e-003
8.639673e+002,5.089809e-003
8.658958e+002,5.029677e-003
8.678243e+002,4.975386e-003
8.697528e+002,4.948893e-003
8.716813e+002,4.855998e-003
8.736098e+002,4.847112e-003
8.755383e+002,4.819416e-003
8.774668e+002,4.825181e-003
8.793953e+002,4.677559e-003
8.813238e+002,4.673675e-003
8.832523e+002,4.858781e-003
8.851808e+002,5.168602e-003
8.871093e+002,5.381653e-003
8.890378e+002,5.702402e-003
8.909663e+002,6.130904e-003
8.928948e+002,7.171612e-003
8.948232e+002,9.203126e-003
8.967518e+002,1.216487e-002
8.986803e+002,1.414862e-002
9.006088e+002,1.329348e-002
9.025372e+002,1.031087e-002
9.044658e+002,7.646812e-003
9.063943e+002,6.167898e-003
9.083228e+002,5.598934e-003
9.102512e+002,5.299767e-003
9.121797e+002,5.136549e-003
9.141083e+002,4.932850e-003
9.160367e+002,4.795873e-003
9.179653e+002,4.658307e-003
9.198937e+002,4.605265e-003
9.218223e+002,4.540754e-003
9.237507e+002,4.574688e-003
9.256793e+002,4.699675e-003
9.276077e+002,4.782356e-003
9.295363e+002,4.738847e-003
9.314647e+002,4.922418e-003
9.333932e+002,5.296428e-003
9.353217e+002,6.022649e-003
9.372502e+002,7.053772e-003
9.391787e+002,7.982228e-003
9.411072e+002,8.122753e-003
9.430358e+002,7.807257e-003
9.449642e+002,7.438364e-003
9.468928e+002,7.326854e-003
9.488212e+002,7.369802e-003
9.507498e+002,7.582190e-003
9.526782e+002,7.844065e-003
9.546068e+002,8.334343e-003
9.565352e+002,9.102503e-003
9.584637e+002,1.009359e-002
9.603922e+002,1.126918e-002
9.623207e+002,1.275844e-002
9.642492e+002,1.473828e-002
9.661777e+002,1.811792e-002
9.681062e+002,2.436804e-002
9.700347e+002,3.453831e-002
9.719632e+002,4.256251e-002
9.738917e+002,4.046459e-002
9.758202e+002,3.168997e-002
9.777487e+002,2.317505e-002
9.796772e+002,1.715170e-002
9.816057e+002,1.374800e-002
9.835342e+002,1.214633e-002
9.854627e+002,1.170760e-002
9.873912e+002,1.205323e-002
9.893197e+002,1.347999e-002
9.912482e+002,1.644441e-002
9.931767e+002,2.204800e-002
9.951052e+002,3.050052e-002
9.970337e+002,3.707157e-002
9.989622e+002,3.442599e-002
1.000891e+003,2.560735e-002
1.002819e+003,1.831795e-002
1.004748e+003,1.443128e-002
1.006676e+003,1.245412e-002
1.008605e+003,1.141058e-002
1.010533e+003,1.081245e-002
1.012462e+003,1.054132e-002
1.014390e+003,1.039915e-002
1.016319e+003,1.042278e-002
1.018247e+003,1.042506e-002
1.020176e+003,1.044502e-002
1.022104e+003,1.037633e-002
1.024033e+003,1.032181e-002
1.025961e+003,1.028007e-002
1.027890e+003,1.032004e-002
1.029818e+003,1.038446e-002
1.031747e+003,1.058849e-002
1.033675e+003,1.079879e-002
1.035604e+003,1.097739e-002
1.037532e+003,1.104154e-002
1.039461e+003,1.125234e-002
1.041389e+003,1.176332e-002
1.043318e+003,1.245863e-002
1.045246e+003,1.254873e-002
1.047175e+003,1.208436e-002
1.049103e+003,1.149742e-002
1.051032e+003,1.122773e-002
1.052960e+003,1.111041e-002
1.054889e+003,1.111917e-002
1.056817e+003,1.121678e-002
1.058746e+003,1.138416e-002
1.060674e+003,1.145649e-002
1.062603e+003,1.162757e-002
1.064531e+003,1.175979e-002
1.066460e+003,1.196710e-002
1.068388e+003,1.213077e-002
1.070317e+003,1.238667e-002
1.072245e+003,1.271949e-002
1.074174e+003,1.329213e-002
1.076102e+003,1.399172e-002
1.078031e+003,1.491426e-002
1.079959e+003,1.586553e-002
1.081888e+003,1.675453e-002
1.083816e+003,1.738194e-002
1.085745e+003,1.796561e-002
1.087673e+003,1.859009e-002
1.089602e+003,1.945628e-002
1.091530e+003,2.038955e-002
1.093459e+003,2.131313e-002
1.095387e+003,2.210283e-002
1.097316e+003,2.300549e-002
1.099244e+003,2.396820e-002
1.101173e+003,2.476025e-002
1.103101e+003,2.448200e-002
1.105030e+003,2.329095e-002
1.106958e+003,2.195466e-002
1.108887e+003,2.122688e-002
1.110815e+003,2.103189e-002
1.112744e+003,2.132295e-002
1.114672e+003,2.176474e-002
1.116601e+003,2.217116e-002
1.118529e+003,2.221091e-002
1.120458e+003,2.194402e-002
1.122386e+003,2.126375e-002
1.124315e+003,2.050960e-002
1.126243e+003,1.986583e-002
1.128172e+003,1.975617e-002
1.130100e+003,2.027676e-002
1.132029e+003,2.148125e-002
1.133957e+003,2.329614e-002
1.135885e+003,2.560227e-002
1.137814e+003,2.801808e-002
1.139743e+003,3.055621e-002
1.141671e+003,3.290039e-002
1.143600e+003,3.527850e-002
1.145528e+003,3.768790e-002
1.147457e+003,4.052722e-002
1.149385e+003,4.382338e-002
1.151314e+003,4.704943e-002
1.153242e+003,4.938839e-002
1.155171e+003,5.125553e-002
1.157099e+003,5.303493e-002
1.159028e+003,5.518083e-002
1.160956e+003,5.781937e-002
1.162885e+003,6.137133e-002
1.164813e+003,6.518494e-002
1.166742e+003,6.706209e-002
1.168670e+003,6.344391e-002
1.170599e+003,5.508036e-002
1.172527e+003,4.633863e-002
1.174456e+003,3.991156e-002
1.176384e+003,3.555253e-002
1.178313e+003,3.268287e-002
1.180241e+003,3.065486e-002
1.182170e+003,2.921194e-002
1.184098e+003,2.801262e-002
1.186027e+003,2.713181e-002
1.187955e+003,2.633702e-002
1.189884e+003,2.566838e-002
1.191812e+003,2.497708e-002
1.193740e+003,2.439299e-002
1.195669e+003,2.381818e-002
1.197598e+003,2.343341e-002
1.199526e+003,2.316673e-002
1.201455e+003,2.314790e-002
1.203383e+003,2.326202e-002
1.205312e+003,2.361765e-002
1.207240e+003,2.409450e-002
1.209168e+003,2.468668e-002
1.211097e+003,2.515495e-002
1.213026e+003,2.575435e-002
1.214954e+003,2.640972e-002
1.216883e+003,2.713005e-002
1.218811e+003,2.761474e-002
1.220740e+003,2.779649e-002
1.222668e+003,2.760698e-002
1.224596e+003,2.755474e-002
1.226525e+003,2.765534e-002
1.228453e+003,2.801085e-002
1.230382e+003,2.836845e-002
1.232311e+003,2.879008e-002
1.234239e+003,2.912599e-002
1.236167e+003,2.951358e-002
1.238096e+003,2.970120e-002
1.240025e+003,2.980391e-002
1.241953e+003,2.967096e-002
1.243882e+003,2.942465e-002
1.245810e+003,2.891796e-002
1.247739e+003,2.840955e-002
1.249667e+003,2.798032e-002
1.251595e+003,2.827108e-002
1.253524e+003,2.920352e-002
1.255453e+003,2.929195e-002
1.257381e+003,2.717376e-002
1.259310e+003,2.451071e-002
1.261238e+003,2.234151e-002
1.263167e+003,2.085425e-002
1.265095e+003,1.965353e-002
1.267023e+003,1.877952e-002
1.268952e+003,1.806711e-002
1.270880e+003,1.766926e-002
1.272809e+003,1.737268e-002
1.274738e+003,1.735666e-002
1.276666e+003,1.732750e-002
1.278594e+003,1.739835e-002
1.280523e+003,1.736214e-002
1.282451e+003,1.726774e-002
1.284380e+003,1.704461e-002
1.286308e+003,1.702889e-002
1.288237e+003,1.717806e-002
1.290166e+003,1.778727e-002
1.292094e+003,1.863494e-002
1.294022e+003,1.961550e-002
1.295951e+003,2.004062e-002
1.297879e+003,2.004612e-002
1.299808e+003,2.015483e-002
1.301736e+003,2.145209e-002
1.303665e+003,2.287992e-002
1.305594e+003,2.183376e-002
1.307522e+003,1.867579e-002
1.309450e+003,1.663192e-002
1.311379e+003,1.581477e-002
1.313307e+003,1.573918e-002
1.315236e+003,1.575817e-002
1.317164e+003,1.606952e-002
1.319093e+003,1.625822e-002
1.321021e+003,1.666038e-002
1.322950e+003,1.724903e-002
1.324878e+003,1.826292e-002
1.326807e+003,1.896410e-002
1.328735e+003,1.947982e-002
1.330664e+003,1.908293e-002
1.332592e+003,1.831620e-002
1.334521e+003,1.760028e-002
1.336449e+003,1.756599e-002
1.338378e+003,1.781781e-002
1.340306e+003,1.878108e-002
1.342235e+003,1.956927e-002
1.344163e+003,2.086262e-002
1.346092e+003,2.240330e-002
1.348021e+003,2.479249e-002
1.349949e+003,2.772893e-002
1.351877e+003,3.222941e-002
1.353806e+003,3.865158e-002
1.355734e+003,4.786146e-002
1.357663e+003,5.464609e-002
1.359591e+003,5.546563e-002
1.361520e+003,5.046821e-002
1.363448e+003,4.606376e-002
1.365377e+003,4.567295e-002
1.367305e+003,5.244157e-002
1.369234e+003,7.174899e-002
1.371162e+003,1.082519e-001
1.373091e+003,1.625236e-001
1.375019e+003,2.144335e-001
1.376948e+003,1.967659e-001
1.378876e+003,1.397326e-001
1.380805e+003,8.908809e-002
1.382733e+003,5.636179e-002
1.384662e+003,3.753458e-002
1.386590e+003,2.698804e-002
1.388519e+003,2.107684e-002
1.390447e+003,1.824998e-002
1.392376e+003,1.690844e-002
1.394304e+003,1.574039e-002
1.396233e+003,1.530901e-002
1.398161e+003,1.491581e-002
1.400090e+003,1.499099e-002
1.402018e+003,1.481583e-002
1.403947e+003,1.474923e-002
1.405875e+003,1.439780e-002
1.407804e+003,1.439820e-002
1.409732e+003,1.457935e-002
1.411661e+003,1.532507e-002
1.413589e+003,1.618057e-002
1.415518e+003,1.708806e-002
1.417446e+003,1.767699e-002
1.419375e+003,1.821102e-002
1.421303e+003,1.836323e-002
1.423232e+003,1.882794e-002
1.425160e+003,2.004320e-002
1.427089e+003,2.194221e-002
1.429017e+003,2.573107e-002
1.430946e+003,3.338059e-002
1.432874e+003,4.398672e-002
1.434803e+003,5.290237e-002
1.436731e+003,5.541480e-002
1.438660e+003,5.511416e-002
1.440588e+003,5.853538e-002
1.442517e+003,6.709024e-002
1.444445e+003,8.135201e-002
1.446374e+003,9.957404e-002
1.448302e+003,1.213646e-001
1.450231e+003,1.335323e-001
1.452159e+003,1.394296e-001
1.454088e+003,1.417173e-001
1.456016e+003,1.434218e-001
1.457945e+003,1.401390e-001
1.459873e+003,1.367438e-001
1.461802e+003,1.306460e-001
1.463730e+003,1.208447e-001
1.465659e+003,1.005858e-001
1.467587e+003,8.283654e-002
1.469516e+003,6.622381e-002
1.471444e+003,5.082260e-002
1.473373e+003,3.316696e-002
1.475301e+003,2.566939e-002
1.477230e+003,2.023376e-002
1.479158e+003,1.727590e-002
1.481087e+003,1.475617e-002
1.483015e+003,1.286183e-002
1.484944e+003,1.141454e-002
1.486872e+003,1.051106e-002
1.488801e+003,9.553818e-003
1.490729e+003,9.000074e-003
1.492658e+003,8.466195e-003
1.494586e+003,8.251756e-003
1.496515e+003,7.715353e-003
1.498443e+003,7.176900e-003
1.500372e+003,6.545618e-003
1.502300e+003,6.223342e-003
1.504229e+003,5.892863e-003
1.506157e+003,5.865063e-003
1.508086e+003,5.661188e-003
1.510014e+003,5.477516e-003
1.511943e+003,5.254289e-003
1.513871e+003,5.193398e-003
1.515800e+003,5.122634e-003
1.517728e+003,5.049267e-003
1.519657e+003,4.879467e-003
1.521585e+003,4.840244e-003
1.523514e+003,4.767261e-003
1.525442e+003,4.844080e-003
1.527371e+003,4.748334e-003
1.529299e+003,4.711358e-003
1.531228e+003,4.691600e-003
1.533156e+003,4.938810e-003
1.535085e+003,4.938457e-003
1.537013e+003,4.927798e-003
1.538942e+003,5.014963e-003
1.540870e+003,5.426969e-003
1.542799e+003,5.260622e-003
1.544727e+003,5.066040e-003
1.546656e+003,4.823487e-003
1.548584e+003,4.826473e-003
1.550513e+003,4.764954e-003
1.552441e+003,4.671232e-003
1.554370e+003,4.555434e-003
1.556298e+003,4.512878e-003
1.558227e+003,4.583958e-003
1.560155e+003,4.575718e-003
1.562084e+003,4.315438e-003
1.564012e+003,4.223183e-003
1.565941e+003,4.189582e-003
1.567869e+003,4.248996e-003
1.569798e+003,4.322234e-003
1.571726e+003,4.314382e-003
1.573655e+003,4.278679e-003
1.575583e+003,4.370573e-003
1.577512e+003,4.353922e-003
1.579440e+003,4.241206e-003
1.581369e+003,4.175158e-003
1.583297e+003,4.117573e-003
1.585226e+003,4.033280e-003
1.587154e+003,4.008795e-003
1.589083e+003,4.012013e-003
1.591011e+003,4.036275e-003
1.592940e+003,4.001711e-003
1.594868e+003,4.041850e-003
1.596797e+003,4.086338e-003
1.598725e+003,4.111507e-003
1.600654e+003,4.153400e-003
1.602582e+003,4.229216e-003
1.604511e+003,4.256965e-003
1.606439e+003,4.351259e-003
1.608368e+003,4.405299e-003
1.610296e+003,4.421780e-003
1.612225e+003,4.411740e-003
1.614153e+003,4.431683e-003
1.616082e+003,4.535321e-003
1.618010e+003,4.672061e-003
1.619939e+003,4.682270e-003
1.621867e+003,4.790857e-003
1.623796e+003,4.984502e-003
1.625724e+003,5.079469e-003
1.627653e+003,5.148364e-003
1.629581e+003,5.195998e-003
1.631510e+003,5.223308e-003
1.633438e+003,5.298300e-003
1.635367e+003,5.519114e-003
1.637295e+003,5.762576e-003
1.639224e+003,5.774171e-003
1.641152e+003,5.849746e-003
1.643081e+003,5.956160e-003
1.645009e+003,6.172094e-003
1.646938e+003,6.623236e-003
1.648866e+003,6.612847e-003
1.650795e+003,6.490817e-003
1.652723e+003,6.705996e-003
1.654652e+003,6.878970e-003
1.656580e+003,6.655701e-003
1.658509e+003,6.430814e-003
1.660437e+003,6.238042e-003
1.662366e+003,6.142632e-003
1.664294e+003,6.000571e-003
1.666223e+003,5.838416e-003
1.668151e+003,5.826970e-003
1.670080e+003,5.899007e-003
1.672008e+003,5.791137e-003
1.673937e+003,5.728450e-003
1.675865e+003,5.783048e-003
1.677794e+003,5.841864e-003
1.679722e+003,6.005394e-003
1.681651e+003,6.023110e-003
1.683579e+003,6.230384e-003
1.685508e+003,6.373289e-003
1.687436e+003,6.402612e-003
1.689365e+003,6.527995e-003
1.691293e+003,6.667621e-003
1.693222e+003,6.791339e-003
1.695150e+003,7.149267e-003
1.697079e+003,7.540167e-003
1.699007e+003,7.699564e-003
1.700936e+003,8.223552e-003
1.702864e+003,8.502174e-003
1.704793e+003,8.906603e-003
1.706721e+003,9.559523e-003
1.708650e+003,1.001745e-002
1.710578e+003,1.040110e-002
1.712507e+003,1.078971e-002
1.714435e+003,1.129730e-002
1.716364e+003,1.197244e-002
1.718292e+003,1.303565e-002
1.720221e+003,1.390766e-002
1.722149e+003,1.495698e-002
1.724078e+003,1.681358e-002
1.726006e+003,1.894992e-002
1.727935e+003,2.151998e-002
1.729863e+003,2.528971e-002
1.731792e+003,2.920449e-002
1.733720e+003,3.651239e-002
1.735649e+003,4.676737e-002
1.737577e+003,5.253800e-002
1.739506e+003,6.295018e-002
1.741434e+003,7.285350e-002
1.743363e+003,8.001962e-002
1.745291e+003,8.385263e-002
1.747220e+003,8.357436e-002
1.749148e+003,7.813656e-002
1.751077e+003,6.791745e-002
1.753005e+003,5.611408e-002
1.754934e+003,4.698858e-002
1.756862e+003,3.578572e-002
1.758791e+003,2.706178e-002
1.760719e+003,2.107204e-002
1.762648e+003,1.533743e-002
1.764576e+003,1.210812e-002
1.766505e+003,1.004059e-002
1.768433e+003,8.154706e-003
1.770362e+003,7.088307e-003
1.772290e+003,6.184773e-003
1.774219e+003,5.452650e-003
1.776147e+003,4.844793e-003
1.778076e+003,4.391986e-003
1.780004e+003,4.146543e-003
1.781933e+003,3.831039e-003
1.783861e+003,3.583603e-003
1.785790e+003,3.316924e-003
1.787718e+003,3.099478e-003
1.789646e+003,2.968843e-003
1.791575e+003,2.921402e-003
1.793504e+003,2.790922e-003
1.795432e+003,2.556119e-003
1.797361e+003,2.293510e-003
1.799289e+003,2.176926e-003
1.801218e+003,2.117167e-003
1.803146e+003,2.046227e-003
1.805074e+003,1.859328e-003
1.807003e+003,1.675051e-003
1.808932e+003,1.589908e-003
1.810860e+003,1.464969e-003
1.812789e+003,1.192547e-003
1.814717e+003,7.690312e-004
1.816646e+003,4.774285e-004
1.818574e+003,8.970248e-004
1.820502e+003,1.190435e-003
1.822431e+003,1.246284e-003
1.824360e+003,1.194626e-003
1.826288e+003,1.183899e-003
1.828217e+003,1.309747e-003
1.830145e+003,1.362491e-003
1.832073e+003,1.065584e-003
1.834002e+003,8.100085e-004
1.835931e+003,6.405534e-004
1.837859e+003,7.189922e-004
1.839788e+003,6.393744e-004
1.841716e+003,6.012497e-004
1.843645e+003,5.714772e-004
1.845573e+003,5.340688e-004
1.847501e+003,4.687654e-004
1.849430e+003,4.889620e-004
1.851359e+003,4.368629e-004
1.853287e+003,4.411964e-004
1.855216e+003,4.577590e-004
1.857144e+003,3.908128e-004
1.859073e+003,2.671704e-004
1.861001e+003,2.739951e-004
1.862929e+003,1.854915e-004
1.864858e+003,1.588333e-004
1.866787e+003,7.722154e-005
1.868715e+003,1.842212e-004
1.870644e+003,-1.957454e-005
1.872572e+003,-4.150160e-005
1.874500e+003,-8.285232e-005
1.876429e+003,-4.630163e-005
1.878357e+003,-1.799371e-004
1.880286e+003,-9.752437e-005
1.882215e+003,2.564304e-005
1.884143e+003,3.486313e-005
1.886072e+003,-9.037182e-005
1.888000e+003,-5.928800e-006
1.889928e+003,-1.436360e-004
1.891857e+003,-4.081428e-004
1.893785e+003,-6.362982e-004
1.895714e+003,-4.089326e-004
1.897643e+003,-2.685487e-004
1.899571e+003,-3.288146e-004
1.901500e+003,-3.181640e-004
1.903428e+003,-3.075227e-004
1.905356e+003,-2.968889e-004
1.907285e+003,-2.862662e-004
1.909213e+003,-2.756529e-004
1.911142e+003,-2.650507e-004
1.913071e+003,-2.544578e-004
1.914999e+003,-2.438743e-004
1.916927e+003,-2.332982e-004
1.918856e+003,-2.227351e-004
1.920784e+003,-2.121851e-004
1.922713e+003,-2.016369e-004
1.924641e+003,-1.911018e-004
1.926570e+003,-1.805816e-004
1.928499e+003,-1.700651e-004
1.930427e+003,-1.595598e-004
1.932355e+003,-1.490656e-004
1.934284e+003,-1.385789e-004
1.936212e+003,-1.281053e-004
1.938141e+003,-1.176409e-004
1.940070e+003,-1.071841e-004
1.941998e+003,-9.673648e-005
1.943927e+003,-8.630194e-005
1.945855e+003,-7.587485e-005
1.947783e+003,-6.546080e-005
1.949712e+003,-5.505234e-005
1.951640e+003,-4.465692e-005
1.953569e+003,-3.427081e-005
1.955498e+003,-2.389401e-005
1.957426e+003,-1.352653e-005
1.959354e+003,-3.166497e-006
1.961283e+003,7.178634e-006
1.963211e+003,1.751631e-005
1.965140e+003,2.784468e-005
1.967068e+003,3.816374e-005
1.968997e+003,4.847161e-005
1.970926e+003,5.876832e-005
1.972854e+003,6.905571e-005
1.974782e+003,7.933564e-005
1.976711e+003,8.960627e-005
1.978639e+003,9.986386e-005
1.980568e+003,1.101121e-004
1.982496e+003,1.203530e-004
1.984425e+003,1.305826e-004
1.986354e+003,1.408029e-004
1.988282e+003,1.510121e-004
1.990210e+003,1.612119e-004
1.992139e+003,1.714006e-004
1.994067e+003,1.815818e-004
1.995996e+003,1.917519e-004
1.997924e+003,2.019126e-004
1.999853e+003,2.120640e-004
2.001781e+003,2.222061e-004
2.003710e+003,2.323370e-004
2.005638e+003,2.424568e-004
2.007567e+003,2.525691e-004
2.009495e+003,2.626721e-004
2.011424e+003,2.727639e-004
2.013352e+003,2.828445e-004
2.015281e+003,2.929159e-004
2.017209e+003,3.029797e-004
2.019138e+003,3.130324e-004
2.021066e+003,3.230758e-004
2.022995e+003,3.331061e-004
2.024923e+003,3.431309e-004
2.026852e+003,3.531426e-004
2.028781e+003,3.631469e-004
2.030709e+003,3.731400e-004
2.032637e+003,3.831256e-004
2.034566e+003,3.930982e-004
2.036494e+003,4.030615e-004
2.038423e+003,4.130173e-004
2.040351e+003,4.229601e-004
2.042280e+003,4.328955e-004
2.044208e+003,4.428215e-004
2.046137e+003,4.527364e-004
2.048065e+003,4.626401e-004
2.049994e+003,4.725363e-004
2.051922e+003,4.824214e-004
2.053851e+003,4.922953e-004
2.055779e+003,5.021635e-004
2.057708e+003,5.120169e-004
2.059636e+003,5.218647e-004
2.061565e+003,5.317014e-004
2.063493e+003,5.415268e-004
2.065422e+003,5.513430e-004
2.067350e+003,5.611517e-004
2.069279e+003,5.709473e-004
2.071207e+003,5.807336e-004
2.073136e+003,5.905125e-004
2.075064e+003,6.002784e-004
2.076993e+003,6.100368e-004
2.078921e+003,6.197859e-004
2.080850e+003,6.295238e-004
2.082778e+003,6.392505e-004
2.084707e+003,6.489698e-004
2.086635e+003,6.586798e-004
2.088564e+003,6.683767e-004
2.090492e+003,6.780643e-004
2.092421e+003,6.877445e-004
2.094349e+003,6.974135e-004
2.096278e+003,7.070713e-004
2.098206e+003,7.167216e-004
2.100135e+003,7.263608e-004
2.102063e+003,7.359926e-004
2.103992e+003,7.456131e-004
2.105920e+003,7.552225e-004
2.107849e+003,7.648207e-004
2.109777e+003,7.744133e-004
2.111706e+003,7.839929e-004
2.113634e+003,7.935632e-004
2.115563e+003,8.031260e-004
2.117491e+003,8.126758e-004
2.119420e+003,8.222181e-004
2.121348e+003,8.317512e-004
2.123277e+003,8.412711e-004
2.125205e+003,8.507818e-004
2.127134e+003,8.602850e-004
2.129062e+003,8.697771e-004
2.130991e+003,8.792598e-004
2.132919e+003,8.887313e-004
2.134848e+003,8.981954e-004
2.136776e+003,9.076484e-004
2.138705e+003,9.170901e-004
2.140633e+003,9.265244e-004
2.142562e+003,9.359457e-004
2.144490e+003,9.453613e-004
2.146419e+003,9.547640e-004
2.148347e+003,9.641591e-004
2.150276e+003,9.735432e-004
2.152204e+003,9.829160e-004
2.154133e+003,9.922814e-004
2.156061e+003,1.001634e-003
2.157990e+003,1.010980e-003
2.159918e+003,1.020314e-003
2.161847e+003,1.029640e-003
2.163775e+003,1.038956e-003
2.165704e+003,1.048261e-003
2.167632e+003,1.057556e-003
2.169561e+003,1.066843e-003
2.171489e+003,1.076121e-003
2.173418e+003,1.085384e-003
2.175346e+003,1.094641e-003
2.177275e+003,1.103887e-003
2.179203e+003,1.113124e-003
2.181132e+003,1.122352e-003
2.183060e+003,1.131568e-003
2.184989e+003,1.140775e-003
2.186917e+003,1.149973e-003
2.188846e+003,1.159159e-003
2.190774e+003,1.168339e-003
2.192703e+003,1.177507e-003
2.194631e+003,1.186663e-003
2.196560e+003,1.195811e-003
2.198488e+003,1.204949e-003
2.200417e+003,1.214078e-003
2.202345e+003,1.223195e-003
2.204274e+003,1.232304e-003
2.206202e+003,1.241405e-003
2.208131e+003,1.250492e-003
2.210059e+003,1.259571e-003
2.211988e+003,1.268644e-003
2.213916e+003,1.277702e-003
2.215845e+003,1.286753e-003
2.217773e+003,1.295792e-003
2.219702e+003,1.304822e-003
2.221630e+003,1.313843e-003
2.223559e+003,1.322852e-003
2.225487e+003,1.331855e-003
2.227416e+003,1.340844e-003
2.229344e+003,1.349825e-003
2.231273e+003,1.358796e-003
2.233201e+003,1.367755e-003
2.235130e+003,1.376709e-003
2.237058e+003,1.385650e-003
2.238987e+003,1.394583e-003
2.240915e+003,1.403505e-003
2.242844e+003,1.412418e-003
2.244772e+003,1.421317e-003
2.246701e+003,1.430213e-003
2.248629e+003,1.439095e-003
2.250558e+003,1.447966e-003
2.252486e+003,1.456831e-003
2.254415e+003,1.465684e-003
2.256343e+003,1.474528e-003
2.258272e+003,1.483362e-003
2.260200e+003,1.492186e-003
2.262129e+003,1.500998e-003
2.264057e+003,1.509802e-003
2.265986e+003,1.518598e-003
2.267914e+003,1.527382e-003
2.269843e+003,1.536155e-003
2.271771e+003,1.544921e-003
2.273700e+003,1.553677e-003
2.275628e+003,1.562420e-003
2.277557e+003,1.571156e-003
2.279485e+003,1.579879e-003
2.281414e+003,1.588598e-003
2.283342e+003,1.597304e-003
2.285271e+003,1.605999e-003
2.287199e+003,1.614684e-003
2.289128e+003,1.623360e-003
2.291056e+003,1.632027e-003
2.292985e+003,1.640685e-003
2.294913e+003,1.649331e-003
2.296842e+003,1.657967e-003
2.298770e+003,1.666594e-003
2.300699e+003,1.675211e-003
2.302627e+003,1.683818e-003
2.304556e+003,1.692414e-003
2.306484e+003,1.701003e-003
2.308413e+003,1.709582e-003
2.310341e+003,1.718150e-003
2.312270e+003,1.726707e-003
2.314198e+003,1.735259e-003
2.316127e+003,1.743797e-003
2.318055e+003,1.752326e-003
2.319984e+003,1.760844e-003
2.321912e+003,1.769353e-003
2.323841e+003,1.777852e-003
2.325769e+003,1.786342e-003
2.327698e+003,1.794823e-003
2.329626e+003,1.803292e-003
2.331555e+003,1.811752e-003
2.333483e+003,1.820201e-003
2.335412e+003,1.828641e-003
2.337340e+003,1.837073e-003
2.339269e+003,1.845490e-003
2.341197e+003,1.853904e-003
2.343126e+003,1.862306e-003
2.345054e+003,1.870697e-003
2.346983e+003,1.879076e-003
2.348911e+003,1.887448e-003
2.350840e+003,1.895811e-003
2.352768e+003,1.904164e-003
2.354697e+003,1.912504e-003
2.356625e+003,1.920838e-003
2.358554e+003,1.929160e-003
2.360482e+003,1.937471e-003
2.362411e+003,1.945775e-003
2.364339e+003,1.954066e-003
2.366268e+003,1.962351e-003
2.368196e+003,1.970625e-003
2.370125e+003,1.978887e-003
2.372053e+003,1.987141e-003
2.373982e+003,1.995383e-003
2.375910e+003,2.003618e-003
2.377839e+003,2.011841e-003
2.379767e+003,2.020057e-003
2.381696e+003,2.028260e-003
2.383624e+003,2.036456e-003
2.385553e+003,2.044642e-003
2.387481e+003,2.052816e-003
2.389410e+003,2.060978e-003
2.391338e+003,2.069134e-003
2.393267e+003,2.077281e-003
2.395195e+003,2.085416e-003
2.397124e+003,2.093542e-003
2.399052e+003,2.101658e-003
2.400981e+003,2.005661e-003
2.402909e+003,1.862925e-003
2.404838e+003,1.808580e-003
2.406766e+003,2.108453e-003
2.408695e+003,2.433954e-003
2.410623e+003,2.344022e-003
2.412552e+003,2.262808e-003
2.414480e+003,2.325775e-003
2.416409e+003,2.526209e-003
2.418337e+003,2.566177e-003
2.420266e+003,2.580987e-003
2.422194e+003,2.543544e-003
2.424123e+003,2.637550e-003
2.426051e+003,2.616176e-003
2.427979e+003,2.702072e-003
2.429908e+003,2.782954e-003
2.431837e+003,2.732789e-003
2.433765e+003,2.721744e-003
2.435694e+003,2.777033e-003
2.437622e+003,2.667829e-003
2.439551e+003,2.555836e-003
2.441479e+003,2.632530e-003
2.443407e+003,2.747834e-003
2.445336e+003,2.697751e-003
2.447265e+003,2.844021e-003
2.449193e+003,2.863590e-003
2.451122e+003,2.849022e-003
2.453050e+003,2.978964e-003
2.454979e+003,3.072824e-003
2.456907e+003,2.886850e-003
2.458836e+003,2.678029e-003
2.460764e+003,2.565574e-003
2.462693e+003,2.499102e-003
2.464621e+003,2.347346e-003
2.466550e+003,2.272239e-003
2.468478e+003,2.149472e-003
2.470406e+003,2.041135e-003
2.472335e+003,2.055433e-003
2.474264e+003,2.239173e-003
2.476192e+003,2.283836e-003
2.478121e+003,2.326461e-003
2.480049e+003,2.454601e-003
2.481978e+003,2.628183e-003
2.483906e+003,2.595240e-003
2.485835e+003,2.480369e-003
2.487763e+003,2.386533e-003
2.489692e+003,2.577554e-003
2.491620e+003,2.602888e-003
2.493549e+003,2.522187e-003
2.495477e+003,2.582660e-003
2.497406e+003,2.554705e-003
2.499334e+003,2.523361e-003
2.501263e+003,2.582958e-003
2.503191e+003,2.553767e-003
2.505120e+003,2.475193e-003
2.507048e+003,2.458330e-003
2.508977e+003,2.487639e-003
2.510905e+003,2.466653e-003
2.512833e+003,2.642285e-003
2.514762e+003,2.751332e-003
2.516691e+003,2.986224e-003
2.518619e+003,3.120152e-003
2.520548e+003,3.165152e-003
2.522476e+003,3.247913e-003
2.524405e+003,3.425423e-003
2.526333e+003,3.267756e-003
2.528261e+003,3.337253e-003
2.530190e+003,3.595980e-003
2.532119e+003,3.797647e-003
2.534047e+003,3.797438e-003
2.535976e+003,3.745995e-003
2.537904e+003,3.860820e-003
2.539833e+003,4.092844e-003
2.541761e+003,4.158828e-003
2.543689e+003,4.312864e-003
2.545618e+003,4.372129e-003
2.547547e+003,4.455224e-003
2.549475e+003,4.560214e-003
2.551404e+003,4.685156e-003
2.553332e+003,4.909961e-003
2.555260e+003,5.098958e-003
2.557189e+003,5.191159e-003
2.559117e+003,5.381007e-003
2.561046e+003,5.529873e-003
2.562975e+003,5.670439e-003
2.564903e+003,5.790040e-003
2.566832e+003,6.009443e-003
2.568760e+003,6.256286e-003
2.570688e+003,6.490109e-003
2.572617e+003,6.818857e-003
2.574546e+003,7.418415e-003
2.576474e+003,7.828525e-003
2.578403e+003,8.106565e-003
2.580331e+003,8.385575e-003
2.582260e+003,8.451055e-003
2.584188e+003,8.297675e-003
2.586116e+003,7.976195e-003
2.588045e+003,7.731054e-003
2.589974e+003,7.603344e-003
2.591902e+003,7.512378e-003
2.593831e+003,7.510792e-003
2.595759e+003,7.473301e-003
2.597688e+003,7.499924e-003
2.599616e+003,7.528439e-003
2.601544e+003,7.704956e-003
2.603473e+003,7.979292e-003
2.605402e+003,8.312456e-003
2.607330e+003,8.656513e-003
2.609259e+003,8.953346e-003
2.611187e+003,9.242295e-003
2.613115e+003,9.518895e-003
2.615044e+003,9.560972e-003
2.616972e+003,9.557758e-003
2.618901e+003,9.649109e-003
2.620830e+003,9.784185e-003
2.622758e+003,9.769653e-003
2.624687e+003,9.758689e-003
2.626615e+003,9.786229e-003
2.628543e+003,9.783831e-003
2.630472e+003,9.740581e-003
2.632400e+003,9.783884e-003
2.634329e+003,9.915667e-003
2.636258e+003,1.006819e-002
2.638186e+003,1.010910e-002
2.640115e+003,1.025912e-002
2.642043e+003,1.051878e-002
2.643971e+003,1.081413e-002
2.645900e+003,1.104577e-002
2.647828e+003,1.113271e-002
2.649757e+003,1.125860e-002
2.651686e+003,1.145092e-002
2.653614e+003,1.170934e-002
2.655542e+003,1.200266e-002
2.657471e+003,1.214473e-002
2.659399e+003,1.212765e-002
2.661328e+003,1.192725e-002
2.663256e+003,1.155406e-002
2.665185e+003,1.120053e-002
2.667114e+003,1.105237e-002
2.669042e+003,1.101380e-002
2.670970e+003,1.105509e-002
2.672899e+003,1.116346e-002
2.674827e+003,1.123610e-002
2.676756e+003,1.128777e-002
2.678685e+003,1.129760e-002
2.680613e+003,1.126620e-002
2.682542e+003,1.125137e-002
2.684470e+003,1.122999e-002
2.686398e+003,1.124034e-002
2.688327e+003,1.124126e-002
2.690255e+003,1.123944e-002
2.692184e+003,1.120096e-002
2.694113e+003,1.114536e-002
2.696041e+003,1.115082e-002
2.697969e+003,1.125268e-002
2.699898e+003,1.147392e-002
2.701826e+003,1.172535e-002
2.703755e+003,1.201248e-002
2.705683e+003,1.243323e-002
2.707612e+003,1.289276e-002
2.709541e+003,1.334944e-002
2.711469e+003,1.398136e-002
2.713397e+003,1.481085e-002
2.715326e+003,1.574107e-002
2.717254e+003,1.691011e-002
2.719183e+003,1.813428e-002
2.721111e+003,1.900886e-002
2.723040e+003,1.913551e-002
2.724969e+003,1.850514e-002
2.726897e+003,1.756069e-002
2.728825e+003,1.662789e-002
2.730754e+003,1.591104e-002
2.732682e+003,1.534965e-002
2.734611e+003,1.481756e-002
2.736539e+003,1.432515e-002
2.738468e+003,1.383672e-002
2.740396e+003,1.326781e-002
2.742325e+003,1.273552e-002
2.744253e+003,1.243950e-002
2.746182e+003,1.228961e-002
2.748110e+003,1.225210e-002
2.750039e+003,1.227398e-002
2.751967e+003,1.230581e-002
2.753896e+003,1.240877e-002
2.755824e+003,1.257733e-002
2.757753e+003,1.279835e-002
2.759681e+003,1.305503e-002
2.761610e+003,1.327774e-002
2.763538e+003,1.355432e-002
2.765467e+003,1.390936e-002
2.767395e+003,1.426625e-002
2.769324e+003,1.447782e-002
2.771252e+003,1.464642e-002
2.773181e+003,1.499678e-002
2.775109e+003,1.550753e-002
2.777038e+003,1.614100e-002
2.778966e+003,1.682304e-002
2.780895e+003,1.760771e-002
2.782823e+003,1.854068e-002
2.784752e+003,1.961310e-002
2.786680e+003,2.078769e-002
2.788609e+003,2.210214e-002
2.790537e+003,2.349202e-002
2.792466e+003,2.479827e-002
2.794394e+003,2.589565e-002
2.796323e+003,2.680655e-002
2.798251e+003,2.779288e-002
2.800180e+003,2.907892e-002
2.802108e+003,3.107248e-002
2.804037e+003,3.358714e-002
2.805965e+003,3.612368e-002
2.807894e+003,3.848412e-002
2.809822e+003,4.068357e-002
2.811751e+003,4.280289e-002
2.813679e+003,4.520436e-002
2.815608e+003,4.805665e-002
2.817536e+003,5.152538e-002
2.819465e+003,5.586080e-002
2.821393e+003,6.138623e-002
2.823322e+003,6.862565e-002
2.825250e+003,7.842792e-002
2.827179e+003,9.236263e-002
2.829107e+003,1.131174e-001
2.831036e+003,1.437793e-001
2.832964e+003,1.843992e-001
2.834893e+003,2.261993e-001
2.836821e+003,2.538133e-001
2.838750e+003,2.584300e-001
2.840678e+003,2.439501e-001
2.842607e+003,2.214176e-001
2.844535e+003,2.016821e-001
2.846464e+003,1.906148e-001
2.848392e+003,1.880152e-001
2.850321e+003,1.900422e-001
2.852249e+003,1.924886e-001
2.854178e+003,1.931562e-001
2.856106e+003,1.930457e-001
2.858035e+003,1.965977e-001
2.859963e+003,2.097312e-001
2.861892e+003,2.345350e-001
2.863820e+003,2.617653e-001
2.865749e+003,2.755050e-001
2.867677e+003,2.719059e-001
2.869606e+003,2.612425e-001
2.871534e+003,2.524161e-001
2.873463e+003,2.489297e-001
2.875391e+003,2.501899e-001
2.877320e+003,2.502537e-001
2.879248e+003,2.448973e-001
2.881177e+003,2.369272e-001
2.883105e+003,2.304735e-001
2.885034e+003,2.271584e-001
2.886962e+003,2.264322e-001
2.888891e+003,2.281109e-001
2.890819e+003,2.332013e-001
2.892748e+003,2.429849e-001
2.894676e+003,2.583819e-001
2.896605e+003,2.795869e-001
2.898533e+003,3.055948e-001
2.900462e+003,3.349799e-001
2.902390e+003,3.663365e-001
2.904319e+003,3.977267e-001
2.906247e+003,4.271382e-001
2.908176e+003,4.557504e-001
2.910104e+003,4.897728e-001
2.912033e+003,5.350101e-001
2.913961e+003,5.864328e-001
2.915890e+003,6.247894e-001
2.917818e+003,6.315122e-001
2.919747e+003,6.096933e-001
2.921675e+003,5.764023e-001
2.923604e+003,5.407208e-001
2.925532e+003,5.008750e-001
2.927461e+003,4.544724e-001
2.929389e+003,4.045703e-001
2.931318e+003,3.569511e-001
2.933246e+003,3.164054e-001
2.935175e+003,2.857600e-001
2.937103e+003,2.666519e-001
2.939032e+003,2.613940e-001
2.940960e+003,2.734562e-001
2.942889e+003,3.053496e-001
2.944817e+003,3.532031e-001
2.946746e+003,4.025015e-001
2.948674e+003,4.317030e-001
2.950603e+003,4.270293e-001
2.952531e+003,3.975223e-001
2.954460e+003,3.660426e-001
2.956388e+003,3.473406e-001
2.958317e+003,3.390419e-001
2.960245e+003,3.272934e-001
2.962174e+003,2.997551e-001
2.964102e+003,2.598386e-001
2.966031e+003,2.185339e-001
2.967959e+003,1.807307e-001
2.969888e+003,1.476377e-001
2.971816e+003,1.198990e-001
2.973745e+003,9.736865e-002
2.975673e+003,7.960301e-002
2.977602e+003,6.582882e-002
2.979530e+003,5.510998e-002
2.981459e+003,4.679077e-002
2.983387e+003,4.026195e-002
2.985316e+003,3.515893e-002
2.987244e+003,3.122920e-002
2.989173e+003,2.820674e-002
2.991101e+003,2.594411e-002
2.993030e+003,2.436104e-002
2.994958e+003,2.356529e-002
2.996887e+003,2.331756e-002
2.998815e+003,2.347341e-002
3.000744e+003,2.384214e-002
3.002672e+003,2.404174e-002
3.004601e+003,2.373148e-002
3.006529e+003,2.297060e-002
3.008458e+003,2.169036e-002
3.010386e+003,1.999287e-002
3.012315e+003,1.799860e-002
3.014243e+003,1.591166e-002
3.016172e+003,1.395816e-002
3.018100e+003,1.226547e-002
3.020029e+003,1.084101e-002
3.021957e+003,9.685297e-003
3.023886e+003,8.790921e-003
3.025814e+003,8.097213e-003
3.027743e+003,7.433835e-003
3.029671e+003,6.898237e-003
3.031600e+003,6.387791e-003
3.033528e+003,5.943688e-003
3.035457e+003,5.580446e-003
3.037385e+003,5.272495e-003
3.039314e+003,5.038641e-003
3.041242e+003,4.931422e-003
3.043171e+003,4.828142e-003
3.045099e+003,4.677569e-003
3.047028e+003,4.533675e-003
3.048956e+003,4.450809e-003
3.050885e+003,4.382849e-003
3.052813e+003,4.280474e-003
3.054742e+003,4.192010e-003
3.056670e+003,4.157700e-003
3.058599e+003,4.218521e-003
3.060527e+003,4.260760e-003
3.062456e+003,4.079314e-003
3.064384e+003,3.998093e-003
3.066313e+003,3.909772e-003
3.068241e+003,3.836928e-003
3.070170e+003,3.692184e-003
3.072098e+003,3.600197e-003
3.074027e+003,3.630735e-003
3.075955e+003,3.511030e-003
3.077884e+003,3.288141e-003
3.079812e+003,3.173999e-003
3.081741e+003,3.091827e-003
3.083669e+003,3.138550e-003
3.085598e+003,3.192965e-003
3.087526e+003,3.157059e-003
3.089455e+003,3.094854e-003
3.091383e+003,3.005793e-003
3.093312e+003,2.937863e-003
3.095240e+003,2.992073e-003
3.097169e+003,2.922721e-003
3.099097e+003,2.864582e-003
3.101026e+003,2.836248e-003
3.102954e+003,2.856346e-003
3.104883e+003,2.838565e-003
3.106811e+003,2.769677e-003
3.108740e+003,2.832156e-003
3.110668e+003,2.941689e-003
3.112597e+003,2.900269e-003
3.114525e+003,2.894990e-003
3.116454e+003,2.942152e-003
3.118382e+003,2.960125e-003
3.120311e+003,2.999749e-003
3.122239e+003,3.103349e-003
3.124168e+003,3.249507e-003
3.126096e+003,3.255777e-003
3.128025e+003,3.183112e-003
3.129953e+003,3.230093e-003
3.131882e+003,3.304770e-003
3.133810e+003,3.340550e-003
3.135739e+003,3.354818e-003
3.137667e+003,3.422946e-003
3.139596e+003,3.499743e-003
3.141524e+003,3.526699e-003
3.143453e+003,3.530236e-003
3.145381e+003,3.594622e-003
3.147310e+003,3.598494e-003
3.149238e+003,3.551079e-003
3.151167e+003,3.565485e-003
3.153095e+003,3.485831e-003
3.155024e+003,3.387067e-003
3.156952e+003,3.455346e-003
3.158881e+003,3.487702e-003
3.160809e+003,3.466042e-003
3.162738e+003,3.473807e-003
3.164666e+003,3.394997e-003
3.166594e+003,3.268756e-003
3.168523e+003,3.275154e-003
3.170452e+003,3.361976e-003
3.172380e+003,3.477003e-003
3.174309e+003,3.564568e-003
3.176237e+003,3.609098e-003
3.178166e+003,3.616409e-003
3.180094e+003,3.641738e-003
3.182022e+003,3.693001e-003
3.183951e+003,3.768601e-003
3.185880e+003,3.860883e-003
3.187808e+003,3.876114e-003
3.189737e+003,3.875876e-003
3.191665e+003,3.815737e-003
3.193594e+003,3.863197e-003
3.195522e+003,3.997637e-003
3.197450e+003,4.052129e-003
3.199379e+003,4.045799e-003
3.201308e+003,3.962485e-003
3.203236e+003,3.842121e-003
3.205165e+003,3.787706e-003
3.207093e+003,3.733113e-003
3.209021e+003,3.679391e-003
3.210950e+003,3.513169e-003
3.212878e+003,3.407136e-003
3.214807e+003,3.382314e-003
3.216736e+003,3.312416e-003
3.218664e+003,3.230378e-003
3.220593e+003,3.142888e-003
3.222521e+003,3.096944e-003
3.224449e+003,2.994139e-003
3.226378e+003,2.884498e-003
3.228307e+003,2.761584e-003
3.230235e+003,2.610773e-003
3.232164e+003,2.489343e-003
3.234092e+003,2.386723e-003
3.236021e+003,2.289353e-003
3.237949e+003,2.261929e-003
3.239877e+003,2.292028e-003
3.241806e+003,2.370164e-003
3.243735e+003,2.391703e-003
3.245663e+003,2.304779e-003
3.247592e+003,2.298485e-003
3.249520e+003,2.352461e-003
3.251448e+003,2.417082e-003
3.253377e+003,2.441429e-003
3.255305e+003,2.432950e-003
3.257234e+003,2.513507e-003
3.259163e+003,2.595117e-003
3.261091e+003,2.600498e-003
3.263020e+003,2.527284e-003
3.264948e+003,2.502220e-003
3.266876e+003,2.621735e-003
3.268805e+003,2.661588e-003
3.270733e+003,2.613543e-003
3.272662e+003,2.682932e-003
3.274591e+003,2.642501e-003
3.276519e+003,2.629746e-003
3.278448e+003,2.685377e-003
3.280376e+003,2.653403e-003
3.282304e+003,2.636654e-003
3.284233e+003,2.694499e-003
3.286161e+003,2.756696e-003
3.288090e+003,2.820566e-003
3.290019e+003,2.776748e-003
3.291947e+003,2.675328e-003
3.293875e+003,2.670826e-003
3.295804e+003,2.706332e-003
3.297732e+003,2.685726e-003
3.299661e+003,2.722126e-003
3.301589e+003,2.704281e-003
3.303518e+003,2.680713e-003
3.305447e+003,2.653133e-003
3.307375e+003,2.729082e-003
3.309303e+003,2.778184e-003
3.311232e+003,2.629321e-003
3.313160e+003,2.530867e-003
3.315089e+003,2.530491e-003
3.317018e+003,2.492208e-003
3.318946e+003,2.485640e-003
3.320875e+003,2.506405e-003
3.322803e+003,2.528597e-003
3.324731e+003,2.585433e-003
3.326660e+003,2.593923e-003
3.328588e+003,2.533730e-003
3.330517e+003,2.565065e-003
3.332446e+003,2.634177e-003
3.334374e+003,2.670588e-003
3.336302e+003,2.730826e-003
3.338231e+003,2.681037e-003
3.340159e+003,2.664780e-003
3.342088e+003,2.754584e-003
3.344016e+003,2.800712e-003
3.345945e+003,2.797771e-003
3.347874e+003,2.749912e-003
3.349802e+003,2.820861e-003
3.351730e+003,2.799239e-003
3.353659e+003,2.636421e-003
3.355587e+003,2.608435e-003
3.357516e+003,2.626641e-003
3.359444e+003,2.569403e-003
3.361373e+003,2.523582e-003
3.363302e+003,2.481649e-003
3.365230e+003,2.524557e-003
3.367158e+003,2.568819e-003
3.369087e+003,2.511017e-003
3.371015e+003,2.512848e-003
3.372944e+003,2.511378e-003
3.374872e+003,2.414210e-003
3.376801e+003,2.314409e-003
3.378729e+003,2.207896e-003
3.380658e+003,2.168152e-003
3.382586e+003,2.205640e-003
3.384515e+003,2.197891e-003
3.386443e+003,2.122788e-003
3.388372e+003,2.014956e-003
3.390300e+003,2.016230e-003
3.392229e+003,2.111983e-003
3.394157e+003,2.080597e-003
3.396086e+003,2.062326e-003
3.398014e+003,2.067253e-003
3.399943e+003,2.072722e-003
3.401871e+003,2.041444e-003
3.403800e+003,2.023969e-003
3.405728e+003,2.039718e-003
3.407657e+003,2.083870e-003
3.409585e+003,2.078129e-003
3.411514e+003,2.086809e-003
3.413442e+003,2.073279e-003
3.415371e+003,2.066622e-003
3.417299e+003,2.113216e-003
3.419228e+003,2.199026e-003
3.421156e+003,2.192408e-003
3.423085e+003,2.124060e-003
3.425013e+003,2.079926e-003
3.426942e+003,2.026033e-003
3.428870e+003,1.940724e-003
3.430799e+003,1.965506e-003
3.432727e+003,1.938146e-003
3.434656e+003,1.810156e-003
3.436584e+003,1.862166e-003
3.438513e+003,1.987642e-003
3.440441e+003,2.019323e-003
3.442370e+003,1.977656e-003
3.444298e+003,1.846720e-003
3.446227e+003,1.903020e-003
3.448155e+003,1.866700e-003
3.450084e+003,1.821356e-003
3.452012e+003,1.766518e-003
3.453941e+003,1.795676e-003
3.455869e+003,1.870973e-003
3.457798e+003,2.008691e-003
3.459726e+003,2.005257e-003
3.461655e+003,1.970610e-003
3.463583e+003,1.950681e-003
3.465512e+003,2.031444e-003
3.467440e+003,1.926322e-003
3.469369e+003,1.798503e-003
3.471297e+003,1.878500e-003
3.473226e+003,2.000738e-003
3.475154e+003,2.003804e-003
3.477083e+003,1.842447e-003
3.479011e+003,1.896808e-003
3.480940e+003,1.890285e-003
3.482868e+003,1.713526e-003
3.484797e+003,1.717309e-003
3.486725e+003,1.699543e-003
3.488654e+003,1.515003e-003
3.490582e+003,1.346063e-003
3.492511e+003,1.325663e-003
3.494439e+003,1.463350e-003
3.496368e+003,1.500422e-003
3.498296e+003,1.248689e-003
3.500225e+003,1.350116e-003
3.502153e+003,1.619942e-003
3.504082e+003,1.390049e-003
3.506010e+003,1.143735e-003
3.507939e+003,1.252603e-003
3.509867e+003,1.325278e-003
3.511796e+003,1.071321e-003
3.513724e+003,8.557420e-004
3.515653e+003,8.802619e-004
3.517581e+003,9.858105e-004
3.519510e+003,1.006188e-003
3.521438e+003,1.090948e-003
3.523367e+003,1.161372e-003
3.525295e+003,1.094831e-003
3.527224e+003,1.050014e-003
3.529152e+003,8.138083e-004
3.531081e+003,6.817449e-004
3.533009e+003,6.640833e-004
3.534938e+003,7.331856e-004
3.536866e+003,6.631911e-004
3.538795e+003,5.490426e-004
3.540723e+003,5.723536e-004
3.542652e+003,5.949959e-004
3.544580e+003,7.144809e-004
3.546509e+003,6.315690e-004
3.548437e+003,2.434161e-004
3.550366e+003,1.055822e-004
3.552294e+003,2.610367e-004
3.554223e+003,1.859087e-004
3.556151e+003,-1.299381e-005
3.558080e+003,-1.733378e-005
3.560008e+003,4.254095e-005
3.561937e+003,-7.803179e-005
3.563865e+003,-1.828652e-004
3.565794e+003,2.589319e-004
3.567722e+003,3.040005e-004
3.569651e+003,-1.238789e-004
3.571579e+003,-4.134141e-004
3.573508e+003,-6.270502e-004
3.575436e+003,-7.657297e-004
3.577365e+003,-7.521790e-004
3.579293e+003,-6.935056e-004
3.581222e+003,-6.970186e-004
3.583150e+003,-6.187987e-004
3.585079e+003,-4.505645e-004
3.587007e+003,-4.405156e-006
3.588936e+003,-2.331827e-004
3.590864e+003,-6.576292e-004
3.592793e+003,-7.713549e-004
3.594721e+003,-6.688945e-004
3.596650e+003,-5.891100e-004
3.598578e+003,-5.130991e-004
3.600507e+003,-4.079882e-004
3.602435e+003,-5.061161e-004
3.604364e+003,-6.732233e-004
3.606292e+003,-4.024468e-004
3.608221e+003,-1.199637e-004
3.610149e+003,-3.680307e-004
3.612078e+003,-3.790297e-005
3.614006e+003,-1.302138e-004
3.615935e+003,-6.037299e-004
3.617863e+003,-3.126543e-004
3.619792e+003,-5.698390e-005
3.621720e+003,-4.788842e-004
3.623649e+003,-6.244276e-004
3.625577e+003,-5.298927e-004
3.627506e+003,-1.499131e-004
3.629434e+003,9.308197e-005
3.631363e+003,-3.745444e-004
3.633291e+003,-5.502049e-004
3.635220e+003,-6.364956e-004
3.637148e+003,-5.725324e-004
3.639077e+003,-4.599020e-004
3.641005e+003,-2.426412e-004
3.642934e+003,-4.158895e-004
3.644862e+003,-4.250091e-004
3.646791e+003,2.734940e-004
3.648719e+003,9.604599e-004
3.650648e+003,4.476421e-004
3.652576e+003,-7.204078e-004
3.654505e+003,-8.221194e-004
3.656433e+003,-6.409269e-004
3.658362e+003,-6.622393e-004
3.660290e+003,-7.649306e-004
3.662219e+003,-8.867700e-004
3.664147e+003,-7.540639e-004
3.666076e+003,-7.149708e-004
3.668004e+003,-3.029350e-004
3.669933e+003,4.116781e-004
3.671861e+003,-3.365763e-004
3.673790e+003,-2.676900e-004
3.675718e+003,2.375860e-004
3.677647e+003,-1.177415e-004
3.679575e+003,-4.357006e-004
3.681504e+003,-6.470941e-004
3.683432e+003,-5.634986e-004
3.685361e+003,-4.697461e-004
3.687289e+003,-1.664646e-005
3.689218e+003,2.387408e-004
3.691146e+003,-4.269183e-005
3.693075e+003,-4.141685e-004
3.695003e+003,-5.432572e-004
3.696932e+003,-5.180724e-004
3.698860e+003,-4.998464e-004
3.700789e+003,-2.562813e-004
3.702717e+003,-1.353342e-004
3.704646e+003,-2.977774e-004
3.706574e+003,-3.209729e-004
3.708503e+003,-5.243532e-005
3.710431e+003,3.150031e-004
3.712360e+003,1.874045e-004
3.714288e+003,-3.753789e-005
3.716217e+003,-2.920534e-004
3.718145e+003,-2.776310e-004
3.720074e+003,-6.547198e-006
3.722002e+003,9.771250e-005
3.723931e+003,1.852512e-004
3.725859e+003,5.810354e-004
3.727788e+003,3.804844e-004
3.729716e+003,1.998805e-004
3.731645e+003,3.196858e-004
3.733573e+003,8.718483e-004
3.735502e+003,1.282176e-003
3.737430e+003,7.737260e-004
3.739359e+003,5.706511e-004
3.741287e+003,3.729854e-004
3.743216e+003,9.144302e-004
3.745144e+003,9.944849e-004
3.747073e+003,4.016384e-004
3.749001e+003,6.174520e-004
3.750930e+003,1.149712e-003
3.752858e+003,7.202700e-004
3.754787e+003,2.506841e-004
3.756715e+003,1.486707e-004
3.758644e+003,5.267132e-004
3.760572e+003,5.796906e-004
3.762501e+003,3.359448e-004
3.764429e+003,3.812741e-004
3.766358e+003,3.460348e-004
3.768286e+003,5.736742e-004
3.770215e+003,6.643236e-004
3.772143e+003,4.263334e-004
3.774072e+003,2.871864e-004
3.776000e+003,2.719350e-004
3.777929e+003,5.202424e-004
3.779857e+003,5.221758e-004
3.781786e+003,2.424251e-004
3.783714e+003,2.293177e-004
3.785643e+003,1.377668e-004
3.787571e+003,1.470055e-004
3.789500e+003,3.131423e-004
3.791428e+003,2.926309e-004
3.793357e+003,1.435429e-004
3.795285e+003,6.306507e-004
3.797214e+003,6.963592e-004
3.799142e+003,4.830547e-004
3.801071e+003,9.027813e-004
3.802999e+003,3.825240e-004
3.804927e+003,2.113376e-004
3.806856e+003,4.396643e-004
3.808785e+003,4.179720e-004
3.810713e+003,3.853459e-004
3.812642e+003,2.447888e-004
3.814570e+003,6.985702e-004
3.816499e+003,7.001627e-004
3.818427e+003,4.230049e-004
3.820355e+003,8.639302e-004
3.822284e+003,6.014612e-004
3.824213e+003,2.795551e-004
3.826141e+003,4.361123e-004
3.828070e+003,3.701821e-004
3.829998e+003,3.390722e-004
3.831927e+003,3.930554e-004
3.833855e+003,4.029423e-004
3.835783e+003,3.606807e-004
3.837712e+003,5.708020e-004
3.839641e+003,3.766865e-004
3.841569e+003,1.045540e-004
3.843498e+003,2.121795e-004
3.845426e+003,1.041554e-004
3.847354e+003,1.179092e-004
3.849283e+003,1.935214e-004
3.851211e+003,2.636984e-004
3.853140e+003,8.351207e-004
3.855069e+003,6.981120e-004
3.856997e+003,3.358703e-004
3.858926e+003,7.186085e-005
3.860854e+003,1.647286e-004
3.862782e+003,4.637651e-004
3.864711e+003,7.527247e-004
3.866640e+003,2.619028e-004
3.868568e+003,4.576184e-004
3.870497e+003,3.891122e-004
3.872425e+003,3.565643e-004
3.874354e+003,4.972946e-004
3.876282e+003,1.087934e-004
3.878210e+003,6.495044e-005
3.880139e+003,5.925894e-004
3.882068e+003,5.011838e-004
3.883996e+003,3.449991e-004
3.885925e+003,2.202652e-004
3.887853e+003,-9.110197e-005
3.889781e+003,1.068283e-004
3.891710e+003,5.827546e-004
3.893638e+003,5.100481e-004
3.895567e+003,2.872199e-004
3.897496e+003,4.057512e-004
3.899424e+003,5.412772e-004
3.901353e+003,4.169904e-004
3.903281e+003,4.955046e-004
3.905209e+003,4.644413e-004
3.907138e+003,1.408830e-004
3.909066e+003,3.230944e-005
3.910995e+003,1.384877e-004
3.912924e+003,1.742616e-004
3.914852e+003,2.338793e-004
3.916781e+003,3.507659e-004
3.918709e+003,2.154745e-004
3.920637e+003,-5.269423e-005
3.922566e+003,1.097471e-004
3.924494e+003,4.966967e-004
3.926423e+003,3.448389e-004
3.928352e+003,2.012663e-004
3.930280e+003,2.305396e-004
3.932208e+003,3.112797e-004
3.934137e+003,1.052804e-004
3.936065e+003,-4.073605e-005
3.937994e+003,2.611801e-005
3.939922e+003,2.018586e-004
3.941851e+003,4.044659e-004
3.943780e+003,3.265291e-004
3.945708e+003,1.961514e-004
3.947636e+003,1.542456e-004
3.949565e+003,9.469688e-005
3.951493e+003,-9.163842e-005
3.953422e+003,-2.339110e-004
3.955351e+003,-1.010187e-004
3.957279e+003,-2.749264e-006
3.959208e+003,5.016103e-005
3.961136e+003,8.276477e-005
3.963064e+003,-8.623302e-005
3.964993e+003,-2.093427e-004
3.966921e+003,-8.148700e-005
3.968850e+003,9.233505e-005
3.970779e+003,1.215301e-004
3.972707e+003,7.023662e-005
3.974635e+003,-2.894551e-005
3.976564e+003,-7.156283e-006
3.978492e+003,1.077354e-005
3.980421e+003,5.124882e-005
3.982349e+003,1.987740e-004
3.984278e+003,2.200641e-004
3.986207e+003,2.058335e-004
3.988135e+003,2.652816e-004
3.990063e+003,3.759451e-004
3.991992e+003,2.949946e-004
3.993920e+003,2.517775e-004
3.995849e+003,3.549196e-004
3.997777e+003,3.927164e-004
3.999706e+003,3.663860e-004
4.001635e+003,0.000000e+000
