3.991992e+002,0.000000e+000
4.011277e+002,0.000000e+000
4.030562e+002,0.000000e+000
4.049846e+002,0.000000e+000
4.069131e+002,0.000000e+000
4.088416e+002,0.000000e+000
4.107701e+002,0.000000e+000
4.126986e+002,0.000000e+000
4.146271e+002,0.000000e+000
4.165556e+002,0.000000e+000
4.184841e+002,0.000000e+000
4.204126e+002,0.000000e+000
4.223411e+002,0.000000e+000
4.242697e+002,0.000000e+000
4.261982e+002,0.000000e+000
4.281266e+002,0.000000e+000
4.300551e+002,0.000000e+000
4.319836e+002,0.000000e+000
4.339121e+002,0.000000e+000
4.358406e+002,0.000000e+000
4.377691e+002,0.000000e+000
4.396976e+002,0.000000e+000
4.416261e+002,0.000000e+000
4.435546e+002,0.000000e+000
4.454831e+002,0.000000e+000
4.474116e+002,0.000000e+000
4.493401e+002,0.000000e+000
4.512686e+002,0.000000e+000
4.531971e+002,0.000000e+000
4.551256e+002,0.000000e+000
4.570541e+002,0.000000e+000
4.589826e+002,0.000000e+000
4.609111e+002,0.000000e+000
4.628396e+002,0.000000e+000
4.647681e+002,0.000000e+000
4.666966e+002,0.000000e+000
4.686251e+002,0.000000e+000
4.705536e+002,0.000000e+000
4.724821e+002,0.000000e+000
4.744106e+002,0.000000e+000
4.763391e+002,0.000000e+000
4.782676e+002,0.000000e+000
4.801961e+002,0.000000e+000
4.821246e+002,0.000000e+000
4.840531e+002,0.000000e+000
4.859816e+002,0.000000e+000
4.879101e+002,0.000000e+000
4.898386e+002,0.000000e+000
4.917671e+002,0.000000e+000
4.936956e+002,0.000000e+000
4.956241e+002,0.000000e+000
4.975526e+002,0.000000e+000
4.994811e+002,0.000000e+000
5.014096e+002,0.000000e+000
5.033381e+002,0.000000e+000
5.052666e+002,0.000000e+000
5.071951e+002,0.000000e+000
5.091236e+002,0.000000e+000
5.110521e+002,0.000000e+000
5.129806e+002,0.000000e+000
5.149091e+002,0.000000e+000
5.168376e+002,0.000000e+000
5.187661e+002,0.000000e+000
5.206946e+002,0.000000e+000
5.226230e+002,0.000000e+000
5.245516e+002,2.270490e-004
5.264800e+002,4.842160e-004
5.284086e+002,3.831033e-004
5.303370e+002,2.720598e-004
5.322656e+002,2.010595e-004
5.341940e+002,5.666725e-005
5.361226e+002,-1.052003e-004
5.380510e+002,-5.820300e-005
5.399796e+002,-2.169460e-004
5.419081e+002,-3.741579e-004
5.438365e+002,-3.602169e-004
5.457650e+002,-4.262114e-004
5.476935e+002,-4.737182e-004
5.496221e+002,-2.492843e-004
5.515505e+002,-2.141781e-004
5.534790e+002,-1.011789e-005
5.554075e+002,5.770382e-005
5.573361e+002,-1.721010e-004
5.592645e+002,-4.443359e-004
5.611931e+002,-3.876137e-004
5.631215e+002,-3.225952e-004
5.650500e+002,-3.170548e-004
5.669785e+002,-3.304658e-004
5.689070e+002,-3.174506e-004
5.708355e+002,-3.221557e-004
5.727640e+002,-2.463451e-004
5.746925e+002,-2.579298e-004
5.766210e+002,-2.262937e-004
5.785495e+002,-2.931813e-004
5.804780e+002,-2.009412e-004
5.824065e+002,-2.138177e-004
5.843350e+002,-3.170315e-004
5.862635e+002,-4.539127e-004
5.881920e+002,-4.701624e-004
5.901205e+002,-5.439576e-004
5.920490e+002,-5.403953e-004
5.939775e+002,-5.669212e-004
5.959060e+002,-3.926121e-004
5.978345e+002,-2.402496e-004
5.997630e+002,-1.820195e-004
6.016915e+002,-3.456892e-004
6.036200e+002,-3.021015e-004
6.055485e+002,-2.637105e-004
6.074770e+002,-3.172755e-004
6.094055e+002,-3.990978e-004
6.113340e+002,-2.995273e-004
6.132625e+002,-3.259378e-004
6.151910e+002,-2.784654e-004
6.171195e+002,-3.712997e-004
6.190480e+002,-4.561003e-004
6.209765e+002,-3.175978e-004
6.229050e+002,-8.278806e-005
6.248335e+002,-8.720253e-005
6.267620e+002,-8.496456e-005
6.286905e+002,-9.202491e-005
6.306190e+002,1.102220e-005
6.325475e+002,1.084609e-004
6.344760e+002,1.187697e-004
6.364045e+002,1.082094e-004
6.383330e+002,1.144921e-004
6.402615e+002,6.675348e-005
6.421899e+002,1.890995e-004
6.441185e+002,1.515029e-004
6.460470e+002,2.110563e-005
6.479755e+002,-1.240522e-006
6.499039e+002,6.622635e-006
6.518325e+002,-8.534081e-005
6.537610e+002,-7.582922e-005
6.556895e+002,-8.054171e-005
6.576179e+002,-2.601277e-005
6.595464e+002,-3.600121e-005
6.614750e+002,-5.686935e-005
6.634034e+002,-6.403029e-005
6.653319e+002,-9.000115e-005
6.672604e+002,-1.639575e-004
6.691890e+002,-2.337433e-005
6.711174e+002,3.581494e-005
6.730460e+002,4.059169e-005
6.749745e+002,-4.998967e-005
6.769030e+002,-2.379715e-005
6.788314e+002,-9.196624e-005
6.807599e+002,-1.655407e-004
6.826885e+002,-1.495536e-004
6.846169e+002,-7.032137e-005
6.865454e+002,-3.461633e-005
6.884739e+002,9.287521e-005
6.904025e+002,9.713229e-005
6.923309e+002,8.069724e-005
6.942594e+002,6.114878e-005
6.961879e+002,2.214313e-005
6.981165e+002,3.323983e-005
7.000449e+002,1.672395e-004
7.019734e+002,2.481611e-004
7.039019e+002,2.710372e-004
7.058304e+002,2.114335e-004
7.077589e+002,2.337564e-004
7.096874e+002,2.517374e-004
7.116159e+002,3.218651e-004
7.135444e+002,3.386345e-004
7.154729e+002,3.423421e-004
7.174014e+002,4.175082e-004
7.193299e+002,5.418928e-004
7.212584e+002,5.222550e-004
7.231869e+002,5.454728e-004
7.251154e+002,5.000532e-004
7.270439e+002,5.029598e-004
7.289724e+002,5.099438e-004
7.309009e+002,5.259290e-004
7.328294e+002,4.207669e-004
7.347579e+002,4.425952e-004
7.366864e+002,5.001687e-004
7.386149e+002,5.342327e-004
7.405434e+002,5.617328e-004
7.424719e+002,6.181039e-004
7.444004e+002,5.747173e-004
7.463289e+002,5.857497e-004
7.482574e+002,5.532326e-004
7.501859e+002,5.985079e-004
7.521144e+002,6.446699e-004
7.540428e+002,6.860225e-004
7.559714e+002,6.645806e-004
7.578999e+002,7.124403e-004
7.598284e+002,7.477300e-004
7.617568e+002,7.347725e-004
7.636854e+002,6.897952e-004
7.656139e+002,8.391468e-004
7.675424e+002,9.176703e-004
7.694709e+002,9.529116e-004
7.713994e+002,9.242706e-004
7.733279e+002,9.241803e-004
7.752563e+002,9.380803e-004
7.771849e+002,1.109187e-003
7.791134e+002,1.186305e-003
7.810419e+002,1.233435e-003
7.829703e+002,1.330750e-003
7.848989e+002,1.495693e-003
7.868274e+002,1.714878e-003
7.887559e+002,2.054663e-003
7.906843e+002,2.309097e-003
7.926129e+002,2.586703e-003
7.945414e+002,2.883887e-003
7.964698e+002,3.248228e-003
7.983983e+002,3.552932e-003
8.003268e+002,4.054799e-003
8.022554e+002,4.851782e-003
8.041838e+002,6.333214e-003
8.061123e+002,8.522607e-003
8.080408e+002,1.043022e-002
8.099694e+002,1.024491e-002
8.118978e+002,8.191686e-003
8.138263e+002,5.932425e-003
8.157548e+002,4.551295e-003
8.176833e+002,3.857152e-003
8.196118e+002,3.661822e-003
8.215403e+002,3.606061e-003
8.234689e+002,3.686774e-003
8.253973e+002,3.746425e-003
8.273258e+002,4.089913e-003
8.292543e+002,4.531160e-003
8.311829e+002,5.046118e-003
8.331113e+002,5.736687e-003
8.350398e+002,7.302504e-003
8.369683e+002,1.140133e-002
8.388969e+002,2.046070e-002
8.408253e+002,2.584015e-002
8.427538e+002,1.877221e-002
8.446823e+002,1.021453e-002
8.466108e+002,6.491753e-003
8.485393e+002,4.984144e-003
8.504678e+002,4.251081e-003
8.523963e+002,3.785642e-003
8.543248e+002,3.509229e-003
8.562533e+002,3.289193e-003
8.581818e+002,3.093449e-003
8.601103e+002,2.873747e-003
8.620388e+002,2.783946e-003
8.639673e+002,2.760968e-003
8.658958e+002,2.735916e-003
8.678243e+002,2.603950e-003
8.697528e+002,2.537474e-003
8.716813e+002,2.492432e-003
8.736098e+002,2.500298e-003
8.755383e+002,2.483875e-003
8.774668e+002,2.476829e-003
8.793953e+002,2.469507e-003
8.813238e+002,2.606425e-003
8.832523e+002,2.652651e-003
8.851808e+002,2.819970e-003
8.871093e+002,2.928211e-003
8.890378e+002,3.154318e-003
8.909663e+002,3.553610e-003
8.928948e+002,4.310293e-003
8.948232e+002,5.682262e-003
8.967518e+002,7.885125e-003
8.986803e+002,9.407404e-003
9.006088e+002,8.625799e-003
9.025372e+002,6.247376e-003
9.044658e+002,4.373202e-003
9.063943e+002,3.374211e-003
9.083228e+002,2.957548e-003
9.102512e+002,2.693878e-003
9.121797e+002,2.574181e-003
9.141083e+002,2.470193e-003
9.160367e+002,2.393298e-003
9.179653e+002,2.367548e-003
9.198937e+002,2.373577e-003
9.218223e+002,2.332639e-003
9.237507e+002,2.419371e-003
9.256793e+002,2.462813e-003
9.276077e+002,2.528807e-003
9.295363e+002,2.575260e-003
9.314647e+002,2.741805e-003
9.333932e+002,2.925457e-003
9.353217e+002,3.335479e-003
9.372502e+002,3.963030e-003
9.391787e+002,4.570170e-003
9.411072e+002,4.576275e-003
9.430358e+002,4.214596e-003
9.449642e+002,3.885138e-003
9.468928e+002,3.830362e-003
9.488212e+002,3.804398e-003
9.507498e+002,3.895656e-003
9.526782e+002,4.109094e-003
9.546068e+002,4.469269e-003
9.565352e+002,4.861863e-003
9.584637e+002,5.424006e-003
9.603922e+002,6.140368e-003
9.623207e+002,7.122402e-003
9.642492e+002,8.651307e-003
9.661777e+002,1.140331e-002
9.681062e+002,1.677872e-002
9.700347e+002,2.561846e-002
9.719632e+002,3.245271e-002
9.738917e+002,3.030336e-002
9.758202e+002,2.253830e-002
9.777487e+002,1.550192e-002
9.796772e+002,1.079221e-002
9.816057e+002,8.220049e-003
9.835342e+002,7.022975e-003
9.854627e+002,6.781940e-003
9.873912e+002,7.199213e-003
9.893197e+002,8.482794e-003
9.912482e+002,1.101659e-002
9.931767e+002,1.579517e-002
9.951052e+002,2.308311e-002
9.970337e+002,2.866112e-002
9.989622e+002,2.616895e-002
1.000891e+003,1.832839e-002
1.002819e+003,1.191652e-002
1.004748e+003,8.513054e-003
1.006676e+003,6.731175e-003
1.008605e+003,5.736318e-003
1.010533e+003,5.132173e-003
1.012462e+003,4.842500e-003
1.014390e+003,4.597203e-003
1.016319e+003,4.425001e-003
1.018247e+003,4.357075e-003
1.020176e+003,4.282880e-003
1.022104e+003,4.101207e-003
1.024033e+003,3.996813e-003
1.025961e+003,3.952724e-003
1.027890e+003,4.009850e-003
1.029818e+003,4.055892e-003
1.031747e+003,4.177282e-003
1.033675e+003,4.315854e-003
1.035604e+003,4.405417e-003
1.037532e+003,4.468681e-003
1.039461e+003,4.729539e-003
1.041389e+003,5.197857e-003
1.043318e+003,5.784545e-003
1.045246e+003,5.785882e-003
1.047175e+003,5.291601e-003
1.049103e+003,4.760897e-003
1.051032e+003,4.442538e-003
1.052960e+003,4.204899e-003
1.054889e+003,4.091896e-003
1.056817e+003,3.947056e-003
1.058746e+003,3.911695e-003
1.060674e+003,3.838037e-003
1.062603e+003,3.806496e-003
1.064531e+003,3.826322e-003
1.066460e+003,3.847112e-003
1.068388e+003,3.776508e-003
1.070317e+003,3.852371e-003
1.072245e+003,3.916983e-003
1.074174e+003,4.019843e-003
1.076102e+003,4.015528e-003
1.078031e+003,4.133808e-003
1.079959e+003,4.228411e-003
1.081888e+003,4.379408e-003
1.083816e+003,4.417088e-003
1.085745e+003,4.445909e-003
1.087673e+003,4.485908e-003
1.089602e+003,4.690764e-003
1.091530e+003,4.912520e-003
1.093459e+003,5.248445e-003
1.095387e+003,5.638459e-003
1.097316e+003,6.232605e-003
1.099244e+003,6.961269e-003
1.101173e+003,7.697121e-003
1.103101e+003,7.844770e-003
1.105030e+003,7.311176e-003
1.106958e+003,6.433414e-003
1.108887e+003,5.761955e-003
1.110815e+003,5.320091e-003
1.112744e+003,5.138691e-003
1.114672e+003,4.992548e-003
1.116601e+003,4.916962e-003
1.118529e+003,4.803566e-003
1.120458e+003,4.784898e-003
1.122386e+003,4.728170e-003
1.124315e+003,4.741907e-003
1.126243e+003,4.776020e-003
1.128172e+003,4.889785e-003
1.130100e+003,4.998344e-003
1.132029e+003,5.203973e-003
1.133957e+003,5.483374e-003
1.135885e+003,5.922448e-003
1.137814e+003,6.430658e-003
1.139743e+003,7.163371e-003
1.141671e+003,8.061948e-003
1.143600e+003,9.243920e-003
1.145528e+003,1.069936e-002
1.147457e+003,1.261917e-002
1.149385e+003,1.485842e-002
1.151314e+003,1.706776e-002
1.153242e+003,1.857906e-002
1.155171e+003,1.964694e-002
1.157099e+003,2.068252e-002
1.159028e+003,2.211914e-002
1.160956e+003,2.421261e-002
1.162885e+003,2.741746e-002
1.164813e+003,3.120852e-002
1.166742e+003,3.344989e-002
1.168670e+003,3.083569e-002
1.170599e+003,2.405677e-002
1.172527e+003,1.718267e-002
1.174456e+003,1.252281e-002
1.176384e+003,9.631045e-003
1.178313e+003,7.903462e-003
1.180241e+003,6.861296e-003
1.182170e+003,6.343642e-003
1.184098e+003,6.008157e-003
1.186027e+003,5.966238e-003
1.187955e+003,5.993259e-003
1.189884e+003,6.096137e-003
1.191812e+003,6.203261e-003
1.193740e+003,6.434962e-003
1.195669e+003,6.570225e-003
1.197598e+003,6.805492e-003
1.199526e+003,7.143509e-003
1.201455e+003,7.615450e-003
1.203383e+003,8.084750e-003
1.205312e+003,8.663050e-003
1.207240e+003,9.197135e-003
1.209168e+003,9.827664e-003
1.211097e+003,1.036082e-002
1.213026e+003,1.092361e-002
1.214954e+003,1.149679e-002
1.216883e+003,1.210852e-002
1.218811e+003,1.247702e-002
1.220740e+003,1.256615e-002
1.222668e+003,1.233204e-002
1.224596e+003,1.212622e-002
1.226525e+003,1.200863e-002
1.228453e+003,1.209560e-002
1.230382e+003,1.222042e-002
1.232311e+003,1.247266e-002
1.234239e+003,1.265949e-002
1.236167e+003,1.288669e-002
1.238096e+003,1.306275e-002
1.240025e+003,1.330920e-002
1.241953e+003,1.343178e-002
1.243882e+003,1.357385e-002
1.245810e+003,1.354632e-002
1.247739e+003,1.349494e-002
1.249667e+003,1.354809e-002
1.251595e+003,1.413387e-002
1.253524e+003,1.505332e-002
1.255453e+003,1.510230e-002
1.257381e+003,1.321659e-002
1.259310e+003,1.091434e-002
1.261238e+003,9.130517e-003
1.263167e+003,7.969173e-003
1.265095e+003,7.120445e-003
1.267023e+003,6.611794e-003
1.268952e+003,6.221732e-003
1.270880e+003,6.050572e-003
1.272809e+003,5.879257e-003
1.274738e+003,5.845763e-003
1.276666e+003,5.836239e-003
1.278594e+003,5.949939e-003
1.280523e+003,6.051818e-003
1.282451e+003,6.252153e-003
1.284380e+003,6.403208e-003
1.286308e+003,6.729910e-003
1.288237e+003,7.092822e-003
1.290166e+003,7.622650e-003
1.292094e+003,8.297246e-003
1.294022e+003,9.069998e-003
1.295951e+003,9.456251e-003
1.297879e+003,9.529207e-003
1.299808e+003,9.716630e-003
1.301736e+003,1.096275e-002
1.303665e+003,1.242057e-002
1.305594e+003,1.172368e-002
1.307522e+003,9.074453e-003
1.309450e+003,7.305643e-003
1.311379e+003,6.673910e-003
1.313307e+003,6.756933e-003
1.315236e+003,6.809972e-003
1.317164e+003,7.092666e-003
1.319093e+003,7.360961e-003
1.321021e+003,7.754087e-003
1.322950e+003,8.260803e-003
1.324878e+003,9.209625e-003
1.326807e+003,9.884737e-003
1.328735e+003,1.038825e-002
1.330664e+003,1.010475e-002
1.332592e+003,9.532729e-003
1.334521e+003,9.021565e-003
1.336449e+003,9.158535e-003
1.338378e+003,9.596366e-003
1.340306e+003,1.011233e-002
1.342235e+003,1.004042e-002
1.344163e+003,1.075747e-002
1.346092e+003,1.179987e-002
1.348021e+003,1.350063e-002
1.349949e+003,1.566611e-002
1.351877e+003,1.905665e-002
1.353806e+003,2.397623e-002
1.355734e+003,3.100166e-002
1.357663e+003,3.603905e-002
1.359591e+003,3.647413e-002
1.361520e+003,3.265413e-002
1.363448e+003,2.940658e-002
1.365377e+003,2.879399e-002
1.367305e+003,3.401873e-002
1.369234e+003,4.887134e-002
1.371162e+003,7.612206e-002
1.373091e+003,1.170484e-001
1.375019e+003,1.550143e-001
1.376948e+003,1.370015e-001
1.378876e+003,9.162261e-002
1.380805e+003,5.567908e-002
1.382733e+003,3.367531e-002
1.384662e+003,2.118058e-002
1.386590e+003,1.463359e-002
1.388519e+003,1.112337e-002
1.390447e+003,9.218788e-003
1.392376e+003,8.582005e-003
1.394304e+003,8.532148e-003
1.396233e+003,8.528931e-003
1.398161e+003,8.081242e-003
1.400090e+003,7.948343e-003
1.402018e+003,7.397834e-003
1.403947e+003,7.619623e-003
1.405875e+003,7.770410e-003
1.407804e+003,7.700536e-003
1.409732e+003,7.744111e-003
1.411661e+003,8.085499e-003
1.413589e+003,8.218175e-003
1.415518e+003,8.691553e-003
1.417446e+003,9.419793e-003
1.419375e+003,1.028588e-002
1.421303e+003,1.015236e-002
1.423232e+003,1.072164e-002
1.425160e+003,1.178221e-002
1.427089e+003,1.274273e-002
1.429017e+003,1.530316e-002
1.430946e+003,2.049220e-002
1.432874e+003,2.760968e-002
1.434803e+003,3.362664e-002
1.436731e+003,3.532195e-002
1.438660e+003,3.452568e-002
1.440588e+003,3.681667e-002
1.442517e+003,4.356565e-002
1.444445e+003,5.477236e-002
1.446374e+003,6.885142e-002
1.448302e+003,8.429179e-002
1.450231e+003,9.096754e-002
1.452159e+003,9.302676e-002
1.454088e+003,9.313982e-002
1.456016e+003,9.377745e-002
1.457945e+003,9.055175e-002
1.459873e+003,8.586224e-002
1.461802e+003,8.018503e-002
1.463730e+003,7.287744e-002
1.465659e+003,5.870169e-002
1.467587e+003,4.671279e-002
1.469516e+003,3.705547e-002
1.471444e+003,2.961598e-002
1.473373e+003,2.079016e-002
1.475301e+003,1.577171e-002
1.477230e+003,1.207522e-002
1.479158e+003,9.886580e-003
1.481087e+003,8.449974e-003
1.483015e+003,7.341787e-003
1.484944e+003,6.626654e-003
1.486872e+003,6.710928e-003
1.488801e+003,6.955951e-003
1.490729e+003,6.435256e-003
1.492658e+003,5.063267e-003
1.494586e+003,4.719872e-003
1.496515e+003,5.266290e-003
1.498443e+003,5.204691e-003
1.500372e+003,4.604131e-003
1.502300e+003,4.287019e-003
1.504229e+003,4.170604e-003
1.506157e+003,5.840594e-003
1.508086e+003,6.952694e-003
1.510014e+003,5.306128e-003
1.511943e+003,4.489833e-003
1.513871e+003,4.245119e-003
1.515800e+003,4.905654e-003
1.517728e+003,5.262760e-003
1.519657e+003,4.802877e-003
1.521585e+003,5.883064e-003
1.523514e+003,5.262220e-003
1.525442e+003,4.725963e-003
1.527371e+003,4.660476e-003
1.529299e+003,4.226966e-003
1.531228e+003,3.996896e-003
1.533156e+003,4.911635e-003
1.535085e+003,4.786499e-003
1.537013e+003,4.238142e-003
1.538942e+003,5.394492e-003
1.540870e+003,7.661417e-003
1.542799e+003,6.388022e-003
1.544727e+003,5.660601e-003
1.546656e+003,4.600573e-003
1.548584e+003,4.397545e-003
1.550513e+003,4.695557e-003
1.552441e+003,4.449995e-003
1.554370e+003,4.930677e-003
1.556298e+003,5.078364e-003
1.558227e+003,6.022939e-003
1.560155e+003,6.017443e-003
1.562084e+003,4.192609e-003
1.564012e+003,3.886914e-003
1.565941e+003,3.945582e-003
1.567869e+003,3.782962e-003
1.569798e+003,4.367255e-003
1.571726e+003,3.915148e-003
1.573655e+003,3.392966e-003
1.575583e+003,4.044447e-003
1.577512e+003,4.217811e-003
1.579440e+003,3.272882e-003
1.581369e+003,2.984654e-003
1.583297e+003,2.976045e-003
1.585226e+003,2.937719e-003
1.587154e+003,2.924209e-003
1.589083e+003,2.989275e-003
1.591011e+003,2.994480e-003
1.592940e+003,3.026441e-003
1.594868e+003,3.135091e-003
1.596797e+003,3.083216e-003
1.598725e+003,2.963306e-003
1.600654e+003,3.051715e-003
1.602582e+003,3.237193e-003
1.604511e+003,3.211508e-003
1.606439e+003,3.205424e-003
1.608368e+003,3.384687e-003
1.610296e+003,3.373569e-003
1.612225e+003,3.237240e-003
1.614153e+003,3.219586e-003
1.616082e+003,3.955269e-003
1.618010e+003,4.281029e-003
1.619939e+003,3.565850e-003
1.621867e+003,3.674924e-003
1.623796e+003,4.391648e-003
1.625724e+003,3.942898e-003
1.627653e+003,3.888629e-003
1.629581e+003,3.874237e-003
1.631510e+003,3.639122e-003
1.633438e+003,3.723985e-003
1.635367e+003,5.186060e-003
1.637295e+003,5.332815e-003
1.639224e+003,4.150556e-003
1.641152e+003,3.924247e-003
1.643081e+003,3.959430e-003
1.645009e+003,4.235692e-003
1.646938e+003,5.792014e-003
1.648866e+003,5.257428e-003
1.650795e+003,4.249269e-003
1.652723e+003,5.310696e-003
1.654652e+003,5.743714e-003
1.656580e+003,4.298499e-003
1.658509e+003,3.771884e-003
1.660437e+003,3.737461e-003
1.662366e+003,4.121430e-003
1.664294e+003,4.037030e-003
1.666223e+003,3.651150e-003
1.668151e+003,4.124306e-003
1.670080e+003,4.893582e-003
1.672008e+003,4.230686e-003
1.673937e+003,3.782066e-003
1.675865e+003,4.077028e-003
1.677794e+003,3.644144e-003
1.679722e+003,3.897119e-003
1.681651e+003,4.106553e-003
1.683579e+003,4.766231e-003
1.685508e+003,4.889874e-003
1.687436e+003,3.887907e-003
1.689365e+003,3.653359e-003
1.691293e+003,3.328566e-003
1.693222e+003,2.896722e-003
1.695150e+003,3.761655e-003
1.697079e+003,4.742408e-003
1.699007e+003,3.892988e-003
1.700936e+003,4.190585e-003
1.702864e+003,3.517663e-003
1.704793e+003,3.237428e-003
1.706721e+003,3.388304e-003
1.708650e+003,2.832474e-003
1.710578e+003,2.671765e-003
1.712507e+003,2.815146e-003
1.714435e+003,3.490843e-003
1.716364e+003,3.930805e-003
1.718292e+003,3.912549e-003
1.720221e+003,2.804743e-003
1.722149e+003,2.329819e-003
1.724078e+003,2.453985e-003
1.726006e+003,2.272841e-003
1.727935e+003,2.294624e-003
1.729863e+003,2.985528e-003
1.731792e+003,3.043257e-003
1.733720e+003,3.593808e-003
1.735649e+003,3.287727e-003
1.737577e+003,2.437403e-003
1.739506e+003,2.712160e-003
1.741434e+003,2.813209e-003
1.743363e+003,2.924131e-003
1.745291e+003,3.020668e-003
1.747220e+003,3.276031e-003
1.749148e+003,3.541775e-003
1.751077e+003,3.281215e-003
1.753005e+003,2.442533e-003
1.754934e+003,1.868512e-003
1.756862e+003,2.269745e-003
1.758791e+003,2.018124e-003
1.760719e+003,1.914697e-003
1.762648e+003,2.096953e-003
1.764576e+003,1.480279e-003
1.766505e+003,1.369508e-003
1.768433e+003,1.930244e-003
1.770362e+003,2.122691e-003
1.772290e+003,2.810489e-003
1.774219e+003,2.387695e-003
1.776147e+003,1.638023e-003
1.778076e+003,1.324123e-003
1.780004e+003,1.659745e-003
1.781933e+003,1.560116e-003
1.783861e+003,1.301890e-003
1.785790e+003,1.352709e-003
1.787718e+003,1.248578e-003
1.789646e+003,1.361702e-003
1.791575e+003,2.075186e-003
1.793504e+003,2.120437e-003
1.795432e+003,1.699308e-003
1.797361e+003,1.379101e-003
1.799289e+003,1.513496e-003
1.801218e+003,1.732241e-003
1.803146e+003,1.295213e-003
1.805074e+003,9.259824e-004
1.807003e+003,9.468906e-004
1.808932e+003,9.962693e-004
1.810860e+003,1.050193e-003
1.812789e+003,6.750654e-004
1.814717e+003,8.279458e-005
1.816646e+003,-1.341309e-004
1.818574e+003,2.458431e-004
1.820502e+003,5.355738e-004
1.822431e+003,7.278435e-004
1.824360e+003,1.137445e-003
1.826288e+003,1.128169e-003
1.828217e+003,9.187851e-004
1.830145e+003,1.378471e-003
1.832073e+003,8.543693e-004
1.834002e+003,4.341844e-004
1.835931e+003,6.057099e-004
1.837859e+003,6.603356e-004
1.839788e+003,4.704557e-004
1.841716e+003,6.299783e-004
1.843645e+003,1.384858e-003
1.845573e+003,1.452001e-003
1.847501e+003,7.837899e-004
1.849430e+003,3.460925e-004
1.851359e+003,8.129701e-005
1.853287e+003,2.247095e-005
1.855216e+003,-1.537986e-005
1.857144e+003,1.140498e-004
1.859073e+003,5.511194e-005
1.861001e+003,-1.490247e-004
1.862929e+003,-3.233533e-004
1.864858e+003,-2.911873e-005
1.866787e+003,6.060787e-004
1.868715e+003,1.374265e-003
1.870644e+003,8.620806e-004
1.872572e+003,1.031701e-004
1.874500e+003,-2.392475e-004
1.876429e+003,-2.653599e-004
1.878357e+003,-3.544614e-004
1.880286e+003,-2.547223e-004
1.882215e+003,-3.529191e-004
1.884143e+003,-3.478620e-004
1.886072e+003,-3.828611e-004
1.888000e+003,-2.902336e-004
1.889928e+003,3.865361e-005
1.891857e+003,-2.455376e-004
1.893785e+003,-5.873274e-004
1.895714e+003,-3.783051e-004
1.897643e+003,-5.627330e-004
1.899571e+003,-6.823521e-004
1.901500e+003,-6.732885e-004
1.903428e+003,-6.642304e-004
1.905356e+003,-6.551780e-004
1.907285e+003,-6.461311e-004
1.909213e+003,-6.370917e-004
1.911142e+003,-6.280560e-004
1.913071e+003,-6.190296e-004
1.914999e+003,-6.100070e-004
1.916927e+003,-6.009880e-004
1.918856e+003,-5.919784e-004
1.920784e+003,-5.829744e-004
1.922713e+003,-5.739722e-004
1.924641e+003,-5.649813e-004
1.926570e+003,-5.559903e-004
1.928499e+003,-5.470086e-004
1.930427e+003,-5.380306e-004
1.932355e+003,-5.290620e-004
1.934284e+003,-5.200952e-004
1.936212e+003,-5.111359e-004
1.938141e+003,-5.021822e-004
1.940070e+003,-4.932340e-004
1.941998e+003,-4.842933e-004
1.943927e+003,-4.753545e-004
1.945855e+003,-4.664268e-004
1.947783e+003,-4.574992e-004
1.949712e+003,-4.485808e-004
1.951640e+003,-4.396699e-004
1.953569e+003,-4.307590e-004
1.955498e+003,-4.218575e-004
1.957426e+003,-4.129615e-004
1.959354e+003,-4.040711e-004
1.961283e+003,-3.951881e-004
1.963211e+003,-3.863052e-004
1.965140e+003,-3.774352e-004
1.967068e+003,-3.685690e-004
1.968997e+003,-3.597084e-004
1.970926e+003,-3.508497e-004
1.972854e+003,-3.419984e-004
1.974782e+003,-3.331564e-004
1.976711e+003,-3.243182e-004
1.978639e+003,-3.154837e-004
1.980568e+003,-3.066584e-004
1.982496e+003,-2.978370e-004
1.984425e+003,-2.890192e-004
1.986354e+003,-2.802107e-004
1.988282e+003,-2.714042e-004
1.990210e+003,-2.626069e-004
1.992139e+003,-2.538115e-004
1.994067e+003,-2.450272e-004
1.995996e+003,-2.362467e-004
1.997924e+003,-2.274737e-004
1.999853e+003,-2.186988e-004
2.001781e+003,-2.099369e-004
2.003710e+003,-2.011787e-004
2.005638e+003,-1.924261e-004
2.007567e+003,-1.836829e-004
2.009495e+003,-1.749396e-004
2.011424e+003,-1.662076e-004
2.013352e+003,-1.574736e-004
2.015281e+003,-1.487490e-004
2.017209e+003,-1.400355e-004
2.019138e+003,-1.313221e-004
2.021066e+003,-1.226179e-004
2.022995e+003,-1.139157e-004
2.024923e+003,-1.052208e-004
2.026852e+003,-9.653345e-005
2.028781e+003,-8.784793e-005
2.030709e+003,-7.916987e-005
2.032637e+003,-7.049739e-005
2.034566e+003,-6.183423e-005
2.036494e+003,-5.317479e-005
2.038423e+003,-4.451722e-005
2.040351e+003,-3.587082e-005
2.042280e+003,-2.722442e-005
2.044208e+003,-1.858734e-005
2.046137e+003,-9.957701e-006
2.048065e+003,-1.329929e-006
2.049994e+003,7.286668e-006
2.051922e+003,1.589954e-005
2.053851e+003,2.451614e-005
2.055779e+003,3.311597e-005
2.057708e+003,4.171208e-005
2.059636e+003,5.030073e-005
2.061565e+003,5.888566e-005
2.063493e+003,6.746873e-005
2.065422e+003,7.603876e-005
2.067350e+003,8.460879e-005
2.069279e+003,9.317137e-005
2.071207e+003,1.017265e-004
2.073136e+003,1.102798e-004
2.075064e+003,1.188237e-004
2.076993e+003,1.273640e-004
2.078921e+003,1.358986e-004
2.080850e+003,1.444239e-004
2.082778e+003,1.529455e-004
2.084707e+003,1.614690e-004
2.086635e+003,1.699757e-004
2.088564e+003,1.784787e-004
2.090492e+003,1.869798e-004
2.092421e+003,1.954697e-004
2.094349e+003,2.039596e-004
2.096278e+003,2.124403e-004
2.098206e+003,2.209172e-004
2.100135e+003,2.293922e-004
2.102063e+003,2.378542e-004
2.103992e+003,2.463125e-004
2.105920e+003,2.547652e-004
2.107849e+003,2.632104e-004
2.109777e+003,2.716519e-004
2.111706e+003,2.800878e-004
2.113634e+003,2.885200e-004
2.115563e+003,2.969466e-004
2.117491e+003,3.053639e-004
2.119420e+003,3.137738e-004
2.121348e+003,3.221855e-004
2.123277e+003,3.305823e-004
2.125205e+003,3.389791e-004
2.127134e+003,3.473666e-004
2.129062e+003,3.557540e-004
2.130991e+003,3.641322e-004
2.132919e+003,3.725030e-004
2.134848e+003,3.808700e-004
2.136776e+003,3.892332e-004
2.138705e+003,3.975853e-004
2.140633e+003,4.059374e-004
2.142562e+003,4.142802e-004
2.144490e+003,4.226193e-004
2.146419e+003,4.309528e-004
2.148347e+003,4.392751e-004
2.150276e+003,4.475974e-004
2.152204e+003,4.559159e-004
2.154133e+003,4.642215e-004
2.156061e+003,4.725270e-004
2.157990e+003,4.808269e-004
2.159918e+003,4.891157e-004
2.161847e+003,4.974045e-004
2.163775e+003,5.056784e-004
2.165704e+003,5.139560e-004
2.167632e+003,5.222261e-004
2.169561e+003,5.304851e-004
2.171489e+003,5.387440e-004
2.173418e+003,5.469974e-004
2.175346e+003,5.552433e-004
2.177275e+003,5.634874e-004
2.179203e+003,5.717184e-004
2.181132e+003,5.799476e-004
2.183060e+003,5.881712e-004
2.184989e+003,5.963854e-004
2.186917e+003,6.045997e-004
2.188846e+003,6.128084e-004
2.190774e+003,6.210059e-004
2.192703e+003,6.292015e-004
2.194631e+003,6.373860e-004
2.196560e+003,6.455705e-004
2.198488e+003,6.537475e-004
2.200417e+003,6.619189e-004
2.202345e+003,6.700866e-004
2.204274e+003,6.782450e-004
2.206202e+003,6.863978e-004
2.208131e+003,6.945468e-004
2.210059e+003,7.026866e-004
2.211988e+003,7.108226e-004
2.213916e+003,7.189531e-004
2.215845e+003,7.270761e-004
2.217773e+003,7.352009e-004
2.219702e+003,7.433109e-004
2.221630e+003,7.514209e-004
2.223559e+003,7.595234e-004
2.225487e+003,7.676166e-004
2.227416e+003,7.757116e-004
2.229344e+003,7.837936e-004
2.231273e+003,7.918756e-004
2.233201e+003,7.999521e-004
2.235130e+003,8.080173e-004
2.237058e+003,8.160770e-004
2.238987e+003,8.241348e-004
2.240915e+003,8.321833e-004
2.242844e+003,8.402243e-004
2.244772e+003,8.482691e-004
2.246701e+003,8.562990e-004
2.248629e+003,8.643270e-004
2.250558e+003,8.723494e-004
2.252486e+003,8.803662e-004
2.254415e+003,8.883737e-004
2.256343e+003,8.963794e-004
2.258272e+003,9.043738e-004
2.260200e+003,9.123683e-004
2.262129e+003,9.203572e-004
2.264057e+003,9.283386e-004
2.265986e+003,9.363126e-004
2.267914e+003,9.442829e-004
2.269843e+003,9.522475e-004
2.271771e+003,9.602085e-004
2.273700e+003,9.681545e-004
2.275628e+003,9.761080e-004
2.277557e+003,9.840485e-004
2.279485e+003,9.919833e-004
2.281414e+003,9.999126e-004
2.283342e+003,1.007833e-003
2.285271e+003,1.015753e-003
2.287199e+003,1.023665e-003
2.289128e+003,1.031574e-003
2.291056e+003,1.039475e-003
2.292985e+003,1.047369e-003
2.294913e+003,1.055256e-003
2.296842e+003,1.063142e-003
2.298770e+003,1.071014e-003
2.300699e+003,1.078889e-003
2.302627e+003,1.086758e-003
2.304556e+003,1.094619e-003
2.306484e+003,1.102474e-003
2.308413e+003,1.110319e-003
2.310341e+003,1.118161e-003
2.312270e+003,1.126003e-003
2.314198e+003,1.133831e-003
2.316127e+003,1.141654e-003
2.318055e+003,1.149477e-003
2.319984e+003,1.157291e-003
2.321912e+003,1.165103e-003
2.323841e+003,1.172906e-003
2.325769e+003,1.180701e-003
2.327698e+003,1.188494e-003
2.329626e+003,1.196278e-003
2.331555e+003,1.204055e-003
2.333483e+003,1.211835e-003
2.335412e+003,1.219600e-003
2.337340e+003,1.227364e-003
2.339269e+003,1.235118e-003
2.341197e+003,1.242870e-003
2.343126e+003,1.250615e-003
2.345054e+003,1.258353e-003
2.346983e+003,1.266092e-003
2.348911e+003,1.273820e-003
2.350840e+003,1.281543e-003
2.352768e+003,1.289256e-003
2.354697e+003,1.296969e-003
2.356625e+003,1.304671e-003
2.358554e+003,1.312371e-003
2.360482e+003,1.320062e-003
2.362411e+003,1.327749e-003
2.364339e+003,1.335438e-003
2.366268e+003,1.343114e-003
2.368196e+003,1.350783e-003
2.370125e+003,1.358444e-003
2.372053e+003,1.366105e-003
2.373982e+003,1.373760e-003
2.375910e+003,1.381405e-003
2.377839e+003,1.389049e-003
2.379767e+003,1.396686e-003
2.381696e+003,1.404315e-003
2.383624e+003,1.411941e-003
2.385553e+003,1.419559e-003
2.387481e+003,1.427170e-003
2.389410e+003,1.434777e-003
2.391338e+003,1.442382e-003
2.393267e+003,1.449978e-003
2.395195e+003,1.457568e-003
2.397124e+003,1.465149e-003
2.399052e+003,1.472730e-003
2.400981e+003,1.434619e-003
2.402909e+003,1.295259e-003
2.404838e+003,1.274562e-003
2.406766e+003,1.487453e-003
2.408695e+003,1.655210e-003
2.410623e+003,1.512649e-003
2.412552e+003,1.590502e-003
2.414480e+003,1.714265e-003
2.416409e+003,1.836013e-003
2.418337e+003,1.702236e-003
2.420266e+003,1.604497e-003
2.422194e+003,1.828033e-003
2.424123e+003,1.948666e-003
2.426051e+003,1.778098e-003
2.427979e+003,1.809094e-003
2.429908e+003,1.877258e-003
2.431837e+003,1.858173e-003
2.433765e+003,1.808673e-003
2.435694e+003,1.824798e-003
2.437622e+003,1.779668e-003
2.439551e+003,1.823410e-003
2.441479e+003,1.829652e-003
2.443407e+003,1.917500e-003
2.445336e+003,2.003398e-003
2.447265e+003,2.267711e-003
2.449193e+003,2.396241e-003
2.451122e+003,2.468098e-003
2.453050e+003,2.439514e-003
2.454979e+003,2.512421e-003
2.456907e+003,2.326000e-003
2.458836e+003,2.042916e-003
2.460764e+003,1.923973e-003
2.462693e+003,1.905486e-003
2.464621e+003,2.005767e-003
2.466550e+003,2.103344e-003
2.468478e+003,1.969980e-003
2.470406e+003,1.923211e-003
2.472335e+003,2.036944e-003
2.474264e+003,2.207763e-003
2.476192e+003,2.178777e-003
2.478121e+003,2.015650e-003
2.480049e+003,1.993656e-003
2.481978e+003,2.181534e-003
2.483906e+003,2.265897e-003
2.485835e+003,2.201267e-003
2.487763e+003,2.041977e-003
2.489692e+003,2.134040e-003
2.491620e+003,2.214085e-003
2.493549e+003,2.221763e-003
2.495477e+003,2.229951e-003
2.497406e+003,2.272662e-003
2.499334e+003,2.097964e-003
2.501263e+003,2.069276e-003
2.503191e+003,2.201866e-003
2.505120e+003,2.316453e-003
2.507048e+003,2.212297e-003
2.508977e+003,2.119627e-003
2.510905e+003,2.058603e-003
2.512833e+003,1.992159e-003
2.514762e+003,2.059951e-003
2.516691e+003,2.301823e-003
2.518619e+003,2.520904e-003
2.520548e+003,2.631776e-003
2.522476e+003,2.617788e-003
2.524405e+003,2.705883e-003
2.526333e+003,2.676748e-003
2.528261e+003,2.609923e-003
2.530190e+003,2.688430e-003
2.532119e+003,2.878658e-003
2.534047e+003,3.162134e-003
2.535976e+003,3.379930e-003
2.537904e+003,3.405537e-003
2.539833e+003,3.376350e-003
2.541761e+003,3.375411e-003
2.543689e+003,3.539640e-003
2.545618e+003,3.739621e-003
2.547547e+003,3.769562e-003
2.549475e+003,3.718100e-003
2.551404e+003,3.904287e-003
2.553332e+003,3.975760e-003
2.555260e+003,4.052840e-003
2.557189e+003,4.071560e-003
2.559117e+003,4.121527e-003
2.561046e+003,4.165698e-003
2.562975e+003,4.232790e-003
2.564903e+003,4.275076e-003
2.566832e+003,4.598238e-003
2.568760e+003,4.829992e-003
2.570688e+003,4.960127e-003
2.572617e+003,5.158044e-003
2.574546e+003,5.609673e-003
2.576474e+003,5.914740e-003
2.578403e+003,5.962476e-003
2.580331e+003,5.969729e-003
2.582260e+003,6.030817e-003
2.584188e+003,6.000418e-003
2.586116e+003,5.852751e-003
2.588045e+003,5.824368e-003
2.589974e+003,5.624495e-003
2.591902e+003,5.346850e-003
2.593831e+003,5.314015e-003
2.595759e+003,5.276684e-003
2.597688e+003,5.514815e-003
2.599616e+003,5.704053e-003
2.601544e+003,5.761001e-003
2.603473e+003,5.875681e-003
2.605402e+003,6.225757e-003
2.607330e+003,6.531972e-003
2.609259e+003,6.743867e-003
2.611187e+003,6.872993e-003
2.613115e+003,7.011082e-003
2.615044e+003,7.166766e-003
2.616972e+003,7.320892e-003
2.618901e+003,7.321138e-003
2.620830e+003,7.422782e-003
2.622758e+003,7.563498e-003
2.624687e+003,7.539585e-003
2.626615e+003,7.418748e-003
2.628543e+003,7.411070e-003
2.630472e+003,7.401746e-003
2.632400e+003,7.498961e-003
2.634329e+003,7.573545e-003
2.636258e+003,7.682495e-003
2.638186e+003,7.779110e-003
2.640115e+003,7.935066e-003
2.642043e+003,8.076578e-003
2.643971e+003,8.135971e-003
2.645900e+003,8.226555e-003
2.647828e+003,8.399200e-003
2.649757e+003,8.595917e-003
2.651686e+003,8.856822e-003
2.653614e+003,8.995377e-003
2.655542e+003,9.057567e-003
2.657471e+003,9.075873e-003
2.659399e+003,9.005200e-003
2.661328e+003,8.830573e-003
2.663256e+003,8.517385e-003
2.665185e+003,8.243024e-003
2.667114e+003,8.138165e-003
2.669042e+003,8.100688e-003
2.670970e+003,8.172240e-003
2.672899e+003,8.257359e-003
2.674827e+003,8.285351e-003
2.676756e+003,8.286372e-003
2.678685e+003,8.270312e-003
2.680613e+003,8.283433e-003
2.682542e+003,8.316346e-003
2.684470e+003,8.379959e-003
2.686398e+003,8.505851e-003
2.688327e+003,8.512676e-003
2.690255e+003,8.404709e-003
2.692184e+003,8.362234e-003
2.694113e+003,8.385662e-003
2.696041e+003,8.473754e-003
2.697969e+003,8.553356e-003
2.699898e+003,8.641116e-003
2.701826e+003,8.895300e-003
2.703755e+003,9.149995e-003
2.705683e+003,9.415854e-003
2.707612e+003,9.734388e-003
2.709541e+003,1.006825e-002
2.711469e+003,1.045110e-002
2.713397e+003,1.103773e-002
2.715326e+003,1.169019e-002
2.717254e+003,1.246173e-002
2.719183e+003,1.330068e-002
2.721111e+003,1.381405e-002
2.723040e+003,1.379101e-002
2.724969e+003,1.330920e-002
2.726897e+003,1.261514e-002
2.728825e+003,1.198253e-002
2.730754e+003,1.147133e-002
2.732682e+003,1.114513e-002
2.734611e+003,1.085709e-002
2.736539e+003,1.057876e-002
2.738468e+003,1.025229e-002
2.740396e+003,9.899858e-003
2.742325e+003,9.622898e-003
2.744253e+003,9.470973e-003
2.746182e+003,9.377100e-003
2.748110e+003,9.346377e-003
2.750039e+003,9.347305e-003
2.751967e+003,9.348895e-003
2.753896e+003,9.436198e-003
2.755824e+003,9.593815e-003
2.757753e+003,9.831861e-003
2.759681e+003,1.010078e-002
2.761610e+003,1.028674e-002
2.763538e+003,1.044270e-002
2.765467e+003,1.065511e-002
2.767395e+003,1.087546e-002
2.769324e+003,1.104199e-002
2.771252e+003,1.127866e-002
2.773181e+003,1.157778e-002
2.775109e+003,1.189473e-002
2.777038e+003,1.227438e-002
2.778966e+003,1.281000e-002
2.780895e+003,1.334628e-002
2.782823e+003,1.390940e-002
2.784752e+003,1.458593e-002
2.786680e+003,1.547473e-002
2.788609e+003,1.640996e-002
2.790537e+003,1.732730e-002
2.792466e+003,1.814000e-002
2.794394e+003,1.886047e-002
2.796323e+003,1.945440e-002
2.798251e+003,2.001395e-002
2.800180e+003,2.094097e-002
2.802108e+003,2.216776e-002
2.804037e+003,2.364765e-002
2.805965e+003,2.526047e-002
2.807894e+003,2.666048e-002
2.809822e+003,2.792669e-002
2.811751e+003,2.924032e-002
2.813679e+003,3.066047e-002
2.815608e+003,3.234828e-002
2.817536e+003,3.450987e-002
2.819465e+003,3.716008e-002
2.821393e+003,4.050859e-002
2.823322e+003,4.485307e-002
2.825250e+003,5.064899e-002
2.827179e+003,5.876290e-002
2.829107e+003,7.096549e-002
2.831036e+003,8.901066e-002
2.832964e+003,1.128470e-001
2.834893e+003,1.374801e-001
2.836821e+003,1.534829e-001
2.838750e+003,1.545135e-001
2.840678e+003,1.417718e-001
2.842607e+003,1.215949e-001
2.844535e+003,1.010324e-001
2.846464e+003,8.449529e-002
2.848392e+003,7.308308e-002
2.850321e+003,6.582564e-002
2.852249e+003,6.192130e-002
2.854178e+003,6.143179e-002
2.856106e+003,6.531568e-002
2.858035e+003,7.505395e-002
2.859963e+003,9.239852e-002
2.861892e+003,1.166860e-001
2.863820e+003,1.403123e-001
2.865749e+003,1.522753e-001
2.867677e+003,1.506975e-001
2.869606e+003,1.436078e-001
2.871534e+003,1.379560e-001
2.873463e+003,1.364630e-001
2.875391e+003,1.387293e-001
2.877320e+003,1.405808e-001
2.879248e+003,1.387361e-001
2.881177e+003,1.344975e-001
2.883105e+003,1.303709e-001
2.885034e+003,1.275676e-001
2.886962e+003,1.259384e-001
2.888891e+003,1.255978e-001
2.890819e+003,1.272866e-001
2.892748e+003,1.317770e-001
2.894676e+003,1.396647e-001
2.896605e+003,1.511004e-001
2.898533e+003,1.652676e-001
2.900462e+003,1.809900e-001
2.902390e+003,1.973621e-001
2.904319e+003,2.130460e-001
2.906247e+003,2.264925e-001
2.908176e+003,2.382501e-001
2.910104e+003,2.524446e-001
2.912033e+003,2.741713e-001
2.913961e+003,3.019050e-001
2.915890e+003,3.232065e-001
2.917818e+003,3.241256e-001
2.919747e+003,3.055354e-001
2.921675e+003,2.802635e-001
2.923604e+003,2.559502e-001
2.925532e+003,2.317191e-001
2.927461e+003,2.051666e-001
2.929389e+003,1.773307e-001
2.931318e+003,1.519881e-001
2.933246e+003,1.321585e-001
2.935175e+003,1.193243e-001
2.937103e+003,1.142673e-001
2.939032e+003,1.181196e-001
2.940960e+003,1.328603e-001
2.942889e+003,1.596638e-001
2.944817e+003,1.959176e-001
2.946746e+003,2.328413e-001
2.948674e+003,2.565853e-001
2.950603e+003,2.558653e-001
2.952531e+003,2.351209e-001
2.954460e+003,2.120030e-001
2.956388e+003,2.002810e-001
2.958317e+003,1.994864e-001
2.960245e+003,1.976781e-001
2.962174e+003,1.828266e-001
2.964102e+003,1.569681e-001
2.966031e+003,1.297729e-001
2.967959e+003,1.052831e-001
2.969888e+003,8.355016e-002
2.971816e+003,6.507262e-002
2.973745e+003,5.020184e-002
2.975673e+003,3.868759e-002
2.977602e+003,2.993439e-002
2.979530e+003,2.334182e-002
2.981459e+003,1.838524e-002
2.983387e+003,1.459675e-002
2.985316e+003,1.163558e-002
2.987244e+003,9.307835e-003
2.989173e+003,7.414546e-003
2.991101e+003,6.049909e-003
2.993030e+003,4.962329e-003
2.994958e+003,4.006248e-003
2.996887e+003,3.184900e-003
2.998815e+003,2.488766e-003
3.000744e+003,1.988117e-003
3.002672e+003,1.592480e-003
3.004601e+003,1.161825e-003
3.006529e+003,8.517653e-004
3.008458e+003,6.153919e-004
3.010386e+003,5.054250e-004
3.012315e+003,4.031248e-004
3.014243e+003,1.679249e-004
3.016172e+003,-8.879602e-005
3.018100e+003,-2.329536e-004
3.020029e+003,-3.647394e-004
3.021957e+003,-4.742555e-004
3.023886e+003,-5.808175e-004
3.025814e+003,-6.789528e-004
3.027743e+003,-7.561892e-004
3.029671e+003,-8.029938e-004
3.031600e+003,-7.832013e-004
3.033528e+003,-7.853732e-004
3.035457e+003,-8.329153e-004
3.037385e+003,-9.366572e-004
3.039314e+003,-9.066649e-004
3.041242e+003,-8.913353e-004
3.043171e+003,-8.679181e-004
3.045099e+003,-7.971935e-004
3.047028e+003,-7.504448e-004
3.048956e+003,-7.176511e-004
3.050885e+003,-7.767379e-004
3.052813e+003,-7.774979e-004
3.054742e+003,-6.193556e-004
3.056670e+003,-4.780665e-004
3.058599e+003,-5.291514e-004
3.060527e+003,-6.585605e-004
3.062456e+003,-6.965771e-004
3.064384e+003,-6.136335e-004
3.066313e+003,-5.962513e-004
3.068241e+003,-6.352589e-004
3.070170e+003,-6.987751e-004
3.072098e+003,-7.187612e-004
3.074027e+003,-7.215030e-004
3.075955e+003,-6.157570e-004
3.077884e+003,-5.359724e-004
3.079812e+003,-4.991889e-004
3.081741e+003,-4.986636e-004
3.083669e+003,-5.423464e-004
3.085598e+003,-5.972236e-004
3.087526e+003,-5.146638e-004
3.089455e+003,-4.433580e-004
3.091383e+003,-4.131347e-004
3.093312e+003,-3.666393e-004
3.095240e+003,-1.513250e-004
3.097169e+003,-1.392141e-004
3.099097e+003,-2.409704e-004
3.101026e+003,-1.989119e-004
3.102954e+003,-1.685359e-004
3.104883e+003,-2.695620e-004
3.106811e+003,-2.482906e-004
3.108740e+003,-1.874045e-004
3.110668e+003,-1.287721e-004
3.112597e+003,-1.362227e-004
3.114525e+003,-5.075336e-005
3.116454e+003,5.551428e-005
3.118382e+003,1.081787e-004
3.120311e+003,1.738705e-004
3.122239e+003,3.200658e-004
3.124168e+003,3.308393e-004
3.126096e+003,3.168024e-004
3.128025e+003,4.434288e-004
3.129953e+003,4.425533e-004
3.131882e+003,5.340949e-004
3.133810e+003,6.190240e-004
3.135739e+003,5.367137e-004
3.137667e+003,5.879477e-004
3.139596e+003,6.842948e-004
3.141524e+003,7.319413e-004
3.143453e+003,7.703155e-004
3.145381e+003,8.039139e-004
3.147310e+003,7.886328e-004
3.149238e+003,7.531568e-004
3.151167e+003,6.686561e-004
3.153095e+003,6.855987e-004
3.155024e+003,7.518120e-004
3.156952e+003,7.184707e-004
3.158881e+003,6.017499e-004
3.160809e+003,6.018803e-004
3.162738e+003,7.238053e-004
3.164666e+003,7.600226e-004
3.166594e+003,7.290505e-004
3.168523e+003,7.667132e-004
3.170452e+003,8.701235e-004
3.172380e+003,9.454377e-004
3.174309e+003,9.192377e-004
3.176237e+003,8.855350e-004
3.178166e+003,1.002803e-003
3.180094e+003,1.119040e-003
3.182022e+003,1.135606e-003
3.183951e+003,1.245327e-003
3.185880e+003,1.278825e-003
3.187808e+003,1.211822e-003
3.189737e+003,1.234990e-003
3.191665e+003,1.265917e-003
3.193594e+003,1.344245e-003
3.195522e+003,1.323618e-003
3.197450e+003,1.361087e-003
3.199379e+003,1.408618e-003
3.201308e+003,1.254044e-003
3.203236e+003,1.186885e-003
3.205165e+003,1.220942e-003
3.207093e+003,1.233276e-003
3.209021e+003,1.359858e-003
3.210950e+003,1.356196e-003
3.212878e+003,1.292154e-003
3.214807e+003,1.194388e-003
3.216736e+003,9.618364e-004
3.218664e+003,9.486973e-004
3.220593e+003,9.281710e-004
3.222521e+003,8.194149e-004
3.224449e+003,6.995462e-004
3.226378e+003,7.074140e-004
3.228307e+003,7.263049e-004
3.230235e+003,6.681345e-004
3.232164e+003,5.808212e-004
3.234092e+003,5.261414e-004
3.236021e+003,5.870722e-004
3.237949e+003,5.196296e-004
3.239877e+003,4.305765e-004
3.241806e+003,4.648156e-004
3.243735e+003,5.650893e-004
3.245663e+003,6.682537e-004
3.247592e+003,4.702583e-004
3.249520e+003,3.914125e-004
3.251448e+003,5.112514e-004
3.253377e+003,6.558597e-004
3.255305e+003,6.413162e-004
3.257234e+003,6.547272e-004
3.259163e+003,5.920641e-004
3.261091e+003,5.236529e-004
3.263020e+003,6.107427e-004
3.264948e+003,7.583648e-004
3.266876e+003,7.618442e-004
3.268805e+003,7.463843e-004
3.270733e+003,8.117408e-004
3.272662e+003,1.040053e-003
3.274591e+003,1.150321e-003
3.276519e+003,9.838976e-004
3.278448e+003,7.793009e-004
3.280376e+003,7.315725e-004
3.282304e+003,8.695126e-004
3.284233e+003,9.966604e-004
3.286161e+003,9.271130e-004
3.288090e+003,8.711629e-004
3.290019e+003,8.911863e-004
3.291947e+003,9.196401e-004
3.293875e+003,9.574480e-004
3.295804e+003,9.910315e-004
3.297732e+003,9.455010e-004
3.299661e+003,9.199381e-004
3.301589e+003,8.394197e-004
3.303518e+003,8.777231e-004
3.305447e+003,9.157285e-004
3.307375e+003,9.157844e-004
3.309303e+003,9.853281e-004
3.311232e+003,9.947866e-004
3.313160e+003,9.109527e-004
3.315089e+003,7.302910e-004
3.317018e+003,7.575825e-004
3.318946e+003,7.865950e-004
3.320875e+003,7.317625e-004
3.322803e+003,7.757396e-004
3.324731e+003,8.144341e-004
3.326660e+003,8.399151e-004
3.328588e+003,7.872395e-004
3.330517e+003,7.506199e-004
3.332446e+003,9.183213e-004
3.334374e+003,1.108967e-003
3.336302e+003,1.218744e-003
3.338231e+003,1.056723e-003
3.340159e+003,8.759648e-004
3.342088e+003,8.105375e-004
3.344016e+003,8.536726e-004
3.345945e+003,8.886382e-004
3.347874e+003,7.882863e-004
3.349802e+003,8.231327e-004
3.351730e+003,9.200685e-004
3.353659e+003,9.744577e-004
3.355587e+003,1.017593e-003
3.357516e+003,9.775497e-004
3.359444e+003,9.415857e-004
3.361373e+003,9.900331e-004
3.363302e+003,9.258203e-004
3.365230e+003,8.735731e-004
3.367158e+003,8.458309e-004
3.369087e+003,7.996857e-004
3.371015e+003,7.687621e-004
3.372944e+003,7.125027e-004
3.374872e+003,6.797686e-004
3.376801e+003,6.162561e-004
3.378729e+003,5.249232e-004
3.380658e+003,5.574673e-004
3.382586e+003,5.813874e-004
3.384515e+003,6.023385e-004
3.386443e+003,5.059280e-004
3.388372e+003,3.234968e-004
3.390300e+003,2.956837e-004
3.392229e+003,6.619692e-004
3.394157e+003,6.329156e-004
3.396086e+003,4.589036e-004
3.398014e+003,5.289502e-004
3.399943e+003,4.292019e-004
3.401871e+003,4.548989e-004
3.403800e+003,4.307441e-004
3.405728e+003,2.360530e-004
3.407657e+003,1.715608e-004
3.409585e+003,1.897179e-004
3.411514e+003,1.518652e-004
3.413442e+003,1.889803e-004
3.415371e+003,3.114603e-004
3.417299e+003,2.883859e-004
3.419228e+003,4.582591e-004
3.421156e+003,6.021000e-004
3.423085e+003,3.534965e-004
3.425013e+003,1.058169e-004
3.426942e+003,1.049750e-004
3.428870e+003,2.622157e-004
3.430799e+003,3.955625e-004
3.432727e+003,2.740212e-004
3.434656e+003,1.296028e-005
3.436584e+003,-7.050484e-005
3.438513e+003,-1.839921e-005
3.440441e+003,3.529340e-005
3.442370e+003,2.635941e-004
3.444298e+003,1.480132e-004
3.446227e+003,4.377291e-004
3.448155e+003,5.343482e-004
3.450084e+003,-1.291186e-005
3.452012e+003,-1.288913e-004
3.453941e+003,-1.320355e-004
3.455869e+003,-1.600273e-004
3.457798e+003,-1.653135e-004
3.459726e+003,-1.640022e-004
3.461655e+003,8.903444e-007
3.463583e+003,-3.323331e-005
3.465512e+003,-2.591461e-004
3.467440e+003,-1.638643e-004
3.469369e+003,-2.474412e-004
3.471297e+003,-3.606603e-004
3.473226e+003,-2.961718e-004
3.475154e+003,-1.550131e-004
3.477083e+003,-1.996756e-004
3.479011e+003,-1.999512e-004
3.480940e+003,4.089624e-005
3.482868e+003,1.108646e-005
3.484797e+003,-3.628358e-004
3.486725e+003,-3.044084e-004
3.488654e+003,-2.215616e-004
3.490582e+003,-4.552826e-004
3.492511e+003,-6.257147e-004
3.494439e+003,-5.506501e-004
3.496368e+003,-3.543831e-004
3.498296e+003,-2.935119e-004
3.500225e+003,-4.163757e-005
3.502153e+003,5.573258e-004
3.504082e+003,6.306544e-004
3.506010e+003,-1.081079e-004
3.507939e+003,-6.127357e-005
3.509867e+003,2.805702e-004
3.511796e+003,-2.110824e-004
3.513724e+003,-6.711632e-004
3.515653e+003,-6.972477e-004
3.517581e+003,-3.637820e-004
3.519510e+003,-2.825446e-004
3.521438e+003,-8.410215e-005
3.523367e+003,7.914454e-004
3.525295e+003,5.818233e-004
3.527224e+003,3.761984e-004
3.529152e+003,2.625063e-004
3.531081e+003,-2.974533e-004
3.533009e+003,-8.436181e-004
3.534938e+003,-4.639514e-004
3.536866e+003,-1.158938e-005
3.538795e+003,-5.733147e-004
3.540723e+003,-6.977357e-004
3.542652e+003,-8.271635e-005
3.544580e+003,7.295720e-004
3.546509e+003,1.118861e-003
3.548437e+003,2.930760e-004
3.550366e+003,-5.438030e-004
3.552294e+003,-1.848862e-005
3.554223e+003,-3.642626e-004
3.556151e+003,-1.022700e-003
3.558080e+003,-9.617247e-004
3.560008e+003,-3.224835e-004
3.561937e+003,-3.019720e-005
3.563865e+003,3.284253e-004
3.565794e+003,2.068531e-003
3.567722e+003,3.062487e-003
3.569651e+003,6.051920e-004
3.571579e+003,-1.002487e-003
3.573508e+003,-1.161031e-003
3.575436e+003,-9.682290e-004
3.577365e+003,-1.050916e-003
3.579293e+003,-9.480454e-004
3.581222e+003,-8.309074e-004
3.583150e+003,-8.672960e-004
3.585079e+003,-5.934276e-004
3.587007e+003,1.703508e-003
3.588936e+003,1.602497e-003
3.590864e+003,-5.295016e-004
3.592793e+003,-8.006953e-004
3.594721e+003,3.562905e-004
3.596650e+003,5.401894e-004
3.598578e+003,4.028864e-004
3.600507e+003,6.174594e-004
3.602435e+003,1.098253e-004
3.604364e+003,-9.271242e-004
3.606292e+003,-3.626049e-004
3.608221e+003,1.702566e-003
3.610149e+003,1.008775e-003
3.612078e+003,4.837215e-004
3.614006e+003,1.660883e-003
3.615935e+003,2.964474e-004
3.617863e+003,6.265379e-004
3.619792e+003,2.275638e-003
3.621720e+003,4.445165e-004
3.623649e+003,-7.379279e-004
3.625577e+003,-5.088300e-004
3.627506e+003,1.216844e-003
3.629434e+003,4.849833e-003
3.631363e+003,1.254447e-003
3.633291e+003,-4.658177e-004
3.635220e+003,-5.054474e-004
3.637148e+003,-1.088127e-003
3.639077e+003,-1.084864e-003
3.641005e+003,-8.172169e-004
3.642934e+003,-5.589090e-004
3.644862e+003,-6.324798e-004
3.646791e+003,1.950741e-003
3.648719e+003,4.983701e-003
3.650648e+003,4.795503e-003
3.652576e+003,1.387309e-003
3.654505e+003,-6.001256e-004
3.656433e+003,9.843111e-004
3.658362e+003,1.394302e-004
3.660290e+003,-1.250952e-003
3.662219e+003,-1.383457e-003
3.664147e+003,-1.071025e-003
3.666076e+003,-1.065634e-003
3.668004e+003,-5.402006e-004
3.669933e+003,3.747996e-003
3.671861e+003,2.074607e-003
3.673790e+003,-4.981272e-004
3.675718e+003,4.594442e-003
3.677647e+003,2.700865e-003
3.679575e+003,5.405657e-004
3.681504e+003,-2.254173e-005
3.683432e+003,-1.895577e-004
3.685361e+003,-2.766214e-004
3.687289e+003,5.258881e-004
3.689218e+003,3.586903e-003
3.691146e+003,2.862267e-003
3.693075e+003,5.367175e-004
3.695003e+003,-6.698407e-004
3.696932e+003,-6.579235e-004
3.698860e+003,-1.068838e-003
3.700789e+003,-1.370907e-006
3.702717e+003,1.140658e-003
3.704646e+003,-3.701448e-005
3.706574e+003,-4.198402e-004
3.708503e+003,6.639026e-004
3.710431e+003,2.582490e-003
3.712360e+003,3.245164e-003
3.714288e+003,1.557391e-003
3.716217e+003,-6.476417e-005
3.718145e+003,2.582744e-004
3.720074e+003,7.244088e-004
3.722002e+003,1.737650e-003
3.723931e+003,1.939975e-003
3.725859e+003,2.354648e-003
3.727788e+003,1.865201e-003
3.729716e+003,3.335960e-004
3.731645e+003,1.817130e-003
3.733573e+003,4.290558e-003
3.735502e+003,5.929027e-003
3.737430e+003,4.167054e-003
3.739359e+003,2.817120e-003
3.741287e+003,2.031006e-003
3.743216e+003,1.638152e-003
3.745144e+003,5.696401e-003
3.747073e+003,3.939595e-003
3.749001e+003,3.799185e-003
3.750930e+003,6.199360e-003
3.752858e+003,4.520215e-003
3.754787e+003,2.121489e-003
3.756715e+003,1.396675e-003
3.758644e+003,2.253860e-003
3.760572e+003,2.382971e-003
3.762501e+003,3.890730e-004
3.764429e+003,4.241616e-004
3.766358e+003,1.483556e-003
3.768286e+003,5.922131e-004
3.770215e+003,1.787316e-003
3.772143e+003,1.009032e-003
3.774072e+003,-1.024939e-004
3.776000e+003,-9.164587e-005
3.777929e+003,4.938692e-004
3.779857e+003,1.903426e-003
3.781786e+003,6.666929e-004
3.783714e+003,4.449561e-004
3.785643e+003,1.239497e-003
3.787571e+003,1.045614e-004
3.789500e+003,-3.861040e-004
3.791428e+003,9.215623e-005
3.793357e+003,-1.765266e-004
3.795285e+003,6.964169e-004
3.797214e+003,2.875853e-003
3.799142e+003,9.969473e-004
3.801071e+003,3.124885e-003
3.802999e+003,4.467271e-003
3.804927e+003,9.372830e-004
3.806856e+003,1.967341e-003
3.808785e+003,1.766291e-003
3.810713e+003,1.973212e-004
3.812642e+003,-2.199486e-004
3.814570e+003,6.041899e-004
3.816499e+003,3.867477e-003
3.818427e+003,1.859248e-003
3.820355e+003,2.798382e-003
3.822284e+003,4.715264e-003
3.824213e+003,1.199257e-003
3.826141e+003,1.316849e-003
3.828070e+003,1.571957e-003
3.829998e+003,3.588498e-004
3.831927e+003,1.735881e-003
3.833855e+003,2.550572e-003
3.835783e+003,2.445951e-003
3.837712e+003,3.593806e-003
3.839641e+003,4.385721e-003
3.841569e+003,2.374053e-003
3.843498e+003,2.017654e-003
3.845426e+003,1.445133e-003
3.847354e+003,5.547181e-004
3.849283e+003,1.101524e-003
3.851211e+003,1.859721e-003
3.853140e+003,6.294005e-003
3.855069e+003,5.317256e-003
3.856997e+003,2.420601e-003
3.858926e+003,7.579103e-004
3.860854e+003,9.953193e-004
3.862782e+003,2.209187e-003
3.864711e+003,3.855165e-003
3.866640e+003,1.876585e-003
3.868568e+003,1.366671e-003
3.870497e+003,4.674304e-003
3.872425e+003,2.099562e-003
3.874354e+003,2.334144e-003
3.876282e+003,1.589436e-003
3.878210e+003,-9.905547e-005
3.880139e+003,2.907112e-003
3.882068e+003,3.220759e-003
3.883996e+003,9.208769e-004
3.885925e+003,2.623860e-003
3.887853e+003,1.242418e-003
3.889781e+003,-6.595254e-005
3.891710e+003,2.560068e-003
3.893638e+003,2.156436e-003
3.895567e+003,4.785210e-004
3.897496e+003,9.392872e-004
3.899424e+003,3.045157e-003
3.901353e+003,3.341641e-003
3.903281e+003,3.675926e-003
3.905209e+003,3.650360e-003
3.907138e+003,1.271807e-003
3.909066e+003,-1.795590e-004
3.910995e+003,1.308098e-004
3.912924e+003,1.808479e-004
3.914852e+003,2.593696e-004
3.916781e+003,1.468185e-003
3.918709e+003,1.557905e-003
3.920637e+003,9.604543e-004
3.922566e+003,6.577037e-004
3.924494e+003,1.818892e-003
3.926423e+003,1.330294e-003
3.928352e+003,5.720593e-004
3.930280e+003,1.415808e-003
3.932208e+003,2.160672e-003
3.934137e+003,1.154244e-003
3.936065e+003,-2.299622e-005
3.937994e+003,2.729595e-004
3.939922e+003,2.246499e-004
3.941851e+003,8.923709e-004
3.943780e+003,1.543522e-003
3.945708e+003,6.158464e-004
3.947636e+003,9.510517e-004
3.949565e+003,1.487173e-003
3.951493e+003,8.288808e-004
3.953422e+003,1.971461e-004
3.955351e+003,1.770519e-004
3.957279e+003,3.092699e-004
3.959208e+003,2.545081e-004
3.961136e+003,4.849620e-004
3.963064e+003,4.840083e-004
3.964993e+003,-5.393103e-005
3.966921e+003,-2.701581e-005
3.968850e+003,3.129169e-004
3.970779e+003,4.097633e-004
3.972707e+003,3.292412e-004
3.974635e+003,4.068092e-004
3.976564e+003,3.978014e-004
3.978492e+003,1.367256e-004
3.980421e+003,9.242818e-005
3.982349e+003,1.769327e-004
3.984278e+003,8.627772e-005
3.986207e+003,2.680346e-005
3.988135e+003,1.035072e-004
3.990063e+003,4.494116e-004
3.991992e+003,4.049800e-004
3.993920e+003,2.154559e-004
3.995849e+003,1.185462e-004
3.997777e+003,-6.199628e-005
3.999706e+003,3.684312e-006
4.001635e+003,0.000000e+000
