3.991992e+002,0.000000e+000
4.011277e+002,0.000000e+000
4.030562e+002,0.000000e+000
4.049846e+002,0.000000e+000
4.069131e+002,0.000000e+000
4.088416e+002,0.000000e+000
4.107701e+002,0.000000e+000
4.126986e+002,0.000000e+000
4.146271e+002,0.000000e+000
4.165556e+002,0.000000e+000
4.184841e+002,0.000000e+000
4.204126e+002,0.000000e+000
4.223411e+002,0.000000e+000
4.242697e+002,0.000000e+000
4.261982e+002,0.000000e+000
4.281266e+002,0.000000e+000
4.300551e+002,0.000000e+000
4.319836e+002,0.000000e+000
4.339121e+002,0.000000e+000
4.358406e+002,0.000000e+000
4.377691e+002,0.000000e+000
4.396976e+002,0.000000e+000
4.416261e+002,0.000000e+000
4.435546e+002,0.000000e+000
4.454831e+002,0.000000e+000
4.474116e+002,0.000000e+000
4.493401e+002,0.000000e+000
4.512686e+002,0.000000e+000
4.531971e+002,0.000000e+000
4.551256e+002,0.000000e+000
4.570541e+002,0.000000e+000
4.589826e+002,0.000000e+000
4.609111e+002,0.000000e+000
4.628396e+002,0.000000e+000
4.647681e+002,0.000000e+000
4.666966e+002,0.000000e+000
4.686251e+002,0.000000e+000
4.705536e+002,0.000000e+000
4.724821e+002,0.000000e+000
4.744106e+002,0.000000e+000
4.763391e+002,0.000000e+000
4.782676e+002,0.000000e+000
4.801961e+002,0.000000e+000
4.821246e+002,0.000000e+000
4.840531e+002,0.000000e+000
4.859816e+002,0.000000e+000
4.879101e+002,0.000000e+000
4.898386e+002,0.000000e+000
4.917671e+002,0.000000e+000
4.936956e+002,0.000000e+000
4.956241e+002,0.000000e+000
4.975526e+002,0.000000e+000
4.994811e+002,0.000000e+000
5.014096e+002,0.000000e+000
5.033381e+002,0.000000e+000
5.052666e+002,0.000000e+000
5.071951e+002,0.000000e+000
5.091236e+002,0.000000e+000
5.110521e+002,0.000000e+000
5.129806e+002,0.000000e+000
5.149091e+002,0.000000e+000
5.168376e+002,0.000000e+000
5.187661e+002,0.000000e+000
5.206946e+002,0.000000e+000
5.226230e+002,0.000000e+000
5.245516e+002,6.907620e-005
5.264800e+002,-6.016344e-007
5.284086e+002,-1.617335e-005
5.303370e+002,4.877336e-005
5.322656e+002,7.653795e-005
5.341940e+002,4.583597e-005
5.361226e+002,-2.285969e-004
5.380510e+002,-3.041103e-004
5.399796e+002,-3.432073e-004
5.419081e+002,-4.624426e-004
5.438365e+002,-6.779581e-004
5.457650e+002,-6.203894e-004
5.476935e+002,-5.732030e-004
5.496221e+002,-4.866812e-004
5.515505e+002,-5.124956e-004
5.534790e+002,-4.547611e-004
5.554075e+002,-4.700944e-004
5.573361e+002,-4.607625e-004
5.592645e+002,-5.545262e-004
5.611931e+002,-5.202256e-004
5.631215e+002,-4.527420e-004
5.650500e+002,-3.671255e-004
5.669785e+002,-4.257374e-004
5.689070e+002,-4.498623e-004
5.708355e+002,-4.508719e-004
5.727640e+002,-3.413968e-004
5.746925e+002,-3.232844e-004
5.766210e+002,-2.556201e-004
5.785495e+002,-2.708286e-004
5.804780e+002,-3.414042e-004
5.824065e+002,-4.268754e-004
5.843350e+002,-3.252774e-004
5.862635e+002,-3.074985e-004
5.881920e+002,-3.283378e-004
5.901205e+002,-4.318021e-004
5.920490e+002,-4.441496e-004
5.939775e+002,-4.954580e-004
5.959060e+002,-3.826525e-004
5.978345e+002,-3.645662e-004
5.997630e+002,-3.428794e-004
6.016915e+002,-2.447218e-004
6.036200e+002,-1.769997e-004
6.055485e+002,-2.369620e-004
6.074770e+002,-2.167877e-004
6.094055e+002,-2.251361e-004
6.113340e+002,-2.441835e-004
6.132625e+002,-4.284121e-004
6.151910e+002,-4.920233e-004
6.171195e+002,-4.513729e-004
6.190480e+002,-3.462452e-004
6.209765e+002,-2.906434e-004
6.229050e+002,-1.532175e-004
6.248335e+002,-1.417715e-004
6.267620e+002,-1.260713e-004
6.286905e+002,-1.830496e-004
6.306190e+002,-1.678783e-004
6.325475e+002,-1.134071e-004
6.344760e+002,-1.015887e-005
6.364045e+002,-9.680167e-006
6.383330e+002,6.158464e-005
6.402615e+002,1.371466e-005
6.421899e+002,-1.356378e-005
6.441185e+002,3.241934e-005
6.460470e+002,5.744398e-005
6.479755e+002,-3.533065e-005
6.499039e+002,1.359358e-005
6.518325e+002,9.082071e-005
6.537610e+002,1.761075e-004
6.556895e+002,7.853843e-005
6.576179e+002,8.259714e-005
6.595464e+002,1.064613e-004
6.614750e+002,1.717117e-004
6.634034e+002,1.340453e-004
6.653319e+002,1.244117e-004
6.672604e+002,2.141483e-004
6.691890e+002,3.247950e-004
6.711174e+002,2.318192e-004
6.730460e+002,1.407526e-004
6.749745e+002,6.954186e-005
6.769030e+002,1.660772e-004
6.788314e+002,2.655014e-004
6.807599e+002,2.990291e-004
6.826885e+002,2.386440e-004
6.846169e+002,2.023056e-004
6.865454e+002,2.784785e-004
6.884739e+002,4.337728e-004
6.904025e+002,4.389845e-004
6.923309e+002,4.564505e-004
6.942594e+002,4.717391e-004
6.961879e+002,5.121566e-004
6.981165e+002,5.706903e-004
7.000449e+002,6.157439e-004
7.019734e+002,6.024595e-004
7.039019e+002,7.033311e-004
7.058304e+002,6.798860e-004
7.077589e+002,7.320270e-004
7.096874e+002,8.190293e-004
7.116159e+002,9.049177e-004
7.135444e+002,9.370930e-004
7.154729e+002,1.031104e-003
7.174014e+002,1.098480e-003
7.193299e+002,1.301363e-003
7.212584e+002,1.390029e-003
7.231869e+002,1.384856e-003
7.251154e+002,1.303256e-003
7.270439e+002,1.274571e-003
7.289724e+002,1.200931e-003
7.309009e+002,1.187639e-003
7.328294e+002,1.091361e-003
7.347579e+002,1.018131e-003
7.366864e+002,9.467471e-004
7.386149e+002,9.458624e-004
7.405434e+002,8.854717e-004
7.424719e+002,8.616354e-004
7.444004e+002,8.301958e-004
7.463289e+002,8.442272e-004
7.482574e+002,7.973481e-004
7.501859e+002,7.762425e-004
7.521144e+002,7.672608e-004
7.540428e+002,7.936638e-004
7.559714e+002,7.451624e-004
7.578999e+002,8.393172e-004
7.598284e+002,8.801874e-004
7.617568e+002,8.950643e-004
7.636854e+002,8.637924e-004
7.656139e+002,9.453092e-004
7.675424e+002,1.004903e-003
7.694709e+002,1.066472e-003
7.713994e+002,1.057243e-003
7.733279e+002,1.081277e-003
7.752563e+002,1.040697e-003
7.771849e+002,1.093322e-003
7.791134e+002,1.222065e-003
7.810419e+002,1.365300e-003
7.829703e+002,1.442824e-003
7.848989e+002,1.671169e-003
7.868274e+002,1.956521e-003
7.887559e+002,2.285600e-003
7.906843e+002,2.551259e-003
7.926129e+002,2.803447e-003
7.945414e+002,3.082260e-003
7.964698e+002,3.461016e-003
7.983983e+002,3.831277e-003
8.003268e+002,4.425233e-003
8.022554e+002,5.223984e-003
8.041838e+002,6.668389e-003
8.061123e+002,8.837309e-003
8.080408e+002,1.071903e-002
8.099694e+002,1.063405e-002
8.118978e+002,8.699987e-003
8.138263e+002,6.313564e-003
8.157548e+002,4.872838e-003
8.176833e+002,4.228596e-003
8.196118e+002,3.978154e-003
8.215403e+002,3.822833e-003
8.234689e+002,3.923958e-003
8.253973e+002,4.044201e-003
8.273258e+002,4.291229e-003
8.292543e+002,4.641382e-003
8.311829e+002,5.177591e-003
8.331113e+002,5.859571e-003
8.350398e+002,7.354001e-003
8.369683e+002,1.116382e-002
8.388969e+002,1.935685e-002
8.408253e+002,2.432843e-002
8.427538e+002,1.790806e-002
8.446823e+002,9.939067e-003
8.466108e+002,6.407775e-003
8.485393e+002,4.939299e-003
8.504678e+002,4.221940e-003
8.523963e+002,3.814494e-003
8.543248e+002,3.585199e-003
8.562533e+002,3.428647e-003
8.581818e+002,3.330652e-003
8.601103e+002,3.228638e-003
8.620388e+002,3.101587e-003
8.639673e+002,2.982050e-003
8.658958e+002,2.954736e-003
8.678243e+002,2.869124e-003
8.697528e+002,2.937699e-003
8.716813e+002,2.991183e-003
8.736098e+002,3.017519e-003
8.755383e+002,2.927288e-003
8.774668e+002,2.896199e-003
8.793953e+002,2.871564e-003
8.813238e+002,2.852380e-003
8.832523e+002,2.866587e-003
8.851808e+002,3.079925e-003
8.871093e+002,3.263496e-003
8.890378e+002,3.550293e-003
8.909663e+002,3.959296e-003
8.928948e+002,4.810628e-003
8.948232e+002,6.363494e-003
8.967518e+002,8.651335e-003
8.986803e+002,1.016029e-002
9.006088e+002,9.366905e-003
9.025372e+002,6.938092e-003
9.044658e+002,4.917821e-003
9.063943e+002,3.741117e-003
9.083228e+002,3.211327e-003
9.102512e+002,2.966989e-003
9.121797e+002,2.873594e-003
9.141083e+002,2.714703e-003
9.160367e+002,2.607288e-003
9.179653e+002,2.608679e-003
9.198937e+002,2.664406e-003
9.218223e+002,2.647093e-003
9.237507e+002,2.677755e-003
9.256793e+002,2.628194e-003
9.276077e+002,2.749903e-003
9.295363e+002,2.800705e-003
9.314647e+002,2.970973e-003
9.333932e+002,3.270598e-003
9.353217e+002,3.764460e-003
9.372502e+002,4.449636e-003
9.391787e+002,5.104631e-003
9.411072e+002,5.152266e-003
9.430358e+002,4.781751e-003
9.449642e+002,4.390953e-003
9.468928e+002,4.291065e-003
9.488212e+002,4.324103e-003
9.507498e+002,4.495690e-003
9.526782e+002,4.712282e-003
9.546068e+002,5.152788e-003
9.565352e+002,5.585345e-003
9.584637e+002,6.176565e-003
9.603922e+002,6.941045e-003
9.623207e+002,8.011103e-003
9.642492e+002,9.538604e-003
9.661777e+002,1.223236e-002
9.681062e+002,1.733422e-002
9.700347e+002,2.555844e-002
9.719632e+002,3.185820e-002
9.738917e+002,2.997493e-002
9.758202e+002,2.277005e-002
9.777487e+002,1.600202e-002
9.796772e+002,1.136230e-002
9.816057e+002,8.800860e-003
9.835342e+002,7.632971e-003
9.854627e+002,7.415976e-003
9.873912e+002,7.863570e-003
9.893197e+002,9.185590e-003
9.912482e+002,1.158643e-002
9.931767e+002,1.613934e-002
9.951052e+002,2.297257e-002
9.970337e+002,2.823213e-002
9.989622e+002,2.592483e-002
1.000891e+003,1.854059e-002
1.002819e+003,1.251250e-002
1.004748e+003,9.340227e-003
1.006676e+003,7.701267e-003
1.008605e+003,6.889403e-003
1.010533e+003,6.484549e-003
1.012462e+003,6.365616e-003
1.014390e+003,6.288942e-003
1.016319e+003,6.284777e-003
1.018247e+003,6.192829e-003
1.020176e+003,6.073929e-003
1.022104e+003,5.908445e-003
1.024033e+003,5.782094e-003
1.025961e+003,5.613834e-003
1.027890e+003,5.552679e-003
1.029818e+003,5.522728e-003
1.031747e+003,5.625483e-003
1.033675e+003,5.731821e-003
1.035604e+003,5.869005e-003
1.037532e+003,5.921684e-003
1.039461e+003,6.121110e-003
1.041389e+003,6.570641e-003
1.043318e+003,7.136241e-003
1.045246e+003,7.184952e-003
1.047175e+003,6.731056e-003
1.049103e+003,6.099850e-003
1.051032e+003,5.663387e-003
1.052960e+003,5.323231e-003
1.054889e+003,5.201694e-003
1.056817e+003,5.108628e-003
1.058746e+003,5.088899e-003
1.060674e+003,5.054507e-003
1.062603e+003,5.070686e-003
1.064531e+003,5.042158e-003
1.066460e+003,5.035121e-003
1.068388e+003,4.982099e-003
1.070317e+003,5.035948e-003
1.072245e+003,5.153093e-003
1.074174e+003,5.337529e-003
1.076102e+003,5.489606e-003
1.078031e+003,5.744662e-003
1.079959e+003,5.971190e-003
1.081888e+003,6.227400e-003
1.083816e+003,6.347705e-003
1.085745e+003,6.537419e-003
1.087673e+003,6.690282e-003
1.089602e+003,6.924380e-003
1.091530e+003,7.222351e-003
1.093459e+003,7.628188e-003
1.095387e+003,8.046199e-003
1.097316e+003,8.743927e-003
1.099244e+003,9.568039e-003
1.101173e+003,1.032074e-002
1.103101e+003,1.032190e-002
1.105030e+003,9.545218e-003
1.106958e+003,8.528113e-003
1.108887e+003,7.869173e-003
1.110815e+003,7.466517e-003
1.112744e+003,7.330112e-003
1.114672e+003,7.254563e-003
1.116601e+003,7.283594e-003
1.118529e+003,7.206067e-003
1.120458e+003,7.158615e-003
1.122386e+003,6.995272e-003
1.124315e+003,6.846987e-003
1.126243e+003,6.768674e-003
1.128172e+003,6.871324e-003
1.130100e+003,7.023636e-003
1.132029e+003,7.375982e-003
1.133957e+003,7.842153e-003
1.135885e+003,8.514483e-003
1.137814e+003,9.314559e-003
1.139743e+003,1.032733e-002
1.141671e+003,1.138099e-002
1.143600e+003,1.254015e-002
1.145528e+003,1.385270e-002
1.147457e+003,1.556006e-002
1.149385e+003,1.741473e-002
1.151314e+003,1.910125e-002
1.153242e+003,2.004109e-002
1.155171e+003,2.069219e-002
1.157099e+003,2.152615e-002
1.159028e+003,2.287117e-002
1.160956e+003,2.487577e-002
1.162885e+003,2.792184e-002
1.164813e+003,3.156062e-002
1.166742e+003,3.389088e-002
1.168670e+003,3.169090e-002
1.170599e+003,2.543678e-002
1.172527e+003,1.886869e-002
1.174456e+003,1.438334e-002
1.176384e+003,1.171859e-002
1.178313e+003,1.023156e-002
1.180241e+003,9.274054e-003
1.182170e+003,8.731123e-003
1.184098e+003,8.330479e-003
1.186027e+003,8.095816e-003
1.187955e+003,7.924255e-003
1.189884e+003,7.858794e-003
1.191812e+003,7.741839e-003
1.193740e+003,7.714421e-003
1.195669e+003,7.632293e-003
1.197598e+003,7.616404e-003
1.199526e+003,7.598817e-003
1.201455e+003,7.690433e-003
1.203383e+003,7.771250e-003
1.205312e+003,7.955052e-003
1.207240e+003,8.119691e-003
1.209168e+003,8.379709e-003
1.211097e+003,8.638017e-003
1.213026e+003,9.022307e-003
1.214954e+003,9.433158e-003
1.216883e+003,9.917591e-003
1.218811e+003,1.015232e-002
1.220740e+003,1.009467e-002
1.222668e+003,9.707529e-003
1.224596e+003,9.403165e-003
1.226525e+003,9.226523e-003
1.228453e+003,9.234577e-003
1.230382e+003,9.224035e-003
1.232311e+003,9.349115e-003
1.234239e+003,9.422287e-003
1.236167e+003,9.537980e-003
1.238096e+003,9.599835e-003
1.240025e+003,9.711891e-003
1.241953e+003,9.771731e-003
1.243882e+003,9.913079e-003
1.245810e+003,9.995010e-003
1.247739e+003,1.017508e-002
1.249667e+003,1.051215e-002
1.251595e+003,1.149041e-002
1.253524e+003,1.294380e-002
1.255453e+003,1.356610e-002
1.257381e+003,1.227272e-002
1.259310e+003,1.059627e-002
1.261238e+003,9.377975e-003
1.263167e+003,8.682016e-003
1.265095e+003,8.153122e-003
1.267023e+003,7.784434e-003
1.268952e+003,7.472277e-003
1.270880e+003,7.337566e-003
1.272809e+003,7.223204e-003
1.274738e+003,7.287014e-003
1.276666e+003,7.315524e-003
1.278594e+003,7.457595e-003
1.280523e+003,7.558778e-003
1.282451e+003,7.716138e-003
1.284380e+003,7.819105e-003
1.286308e+003,8.090954e-003
1.288237e+003,8.427206e-003
1.290166e+003,9.029649e-003
1.292094e+003,9.736463e-003
1.294022e+003,1.052729e-002
1.295951e+003,1.089861e-002
1.297879e+003,1.094794e-002
1.299808e+003,1.104040e-002
1.301736e+003,1.217514e-002
1.303665e+003,1.348367e-002
1.305594e+003,1.273756e-002
1.307522e+003,1.017695e-002
1.309450e+003,8.517426e-003
1.311379e+003,7.879883e-003
1.313307e+003,7.873166e-003
1.315236e+003,7.923376e-003
1.317164e+003,8.216146e-003
1.319093e+003,8.484278e-003
1.321021e+003,9.010296e-003
1.322950e+003,9.627651e-003
1.324878e+003,1.062519e-002
1.326807e+003,1.131732e-002
1.328735e+003,1.180282e-002
1.330664e+003,1.149342e-002
1.332592e+003,1.088750e-002
1.334521e+003,1.027409e-002
1.336449e+003,1.020455e-002
1.338378e+003,1.028391e-002
1.340306e+003,1.091003e-002
1.342235e+003,1.142342e-002
1.344163e+003,1.241057e-002
1.346092e+003,1.359459e-002
1.348021e+003,1.544359e-002
1.349949e+003,1.770249e-002
1.351877e+003,2.128238e-002
1.353806e+003,2.637986e-002
1.355734e+003,3.366633e-002
1.357663e+003,3.897087e-002
1.359591e+003,3.944533e-002
1.361520e+003,3.524176e-002
1.363448e+003,3.181396e-002
1.365377e+003,3.176031e-002
1.367305e+003,3.752617e-002
1.369234e+003,5.343358e-002
1.371162e+003,8.243359e-002
1.373091e+003,1.230283e-001
1.375019e+003,1.579615e-001
1.376948e+003,1.403870e-001
1.378876e+003,9.611694e-002
1.380805e+003,5.938965e-002
1.382733e+003,3.619536e-002
1.384662e+003,2.281952e-002
1.386590e+003,1.544601e-002
1.388519e+003,1.163908e-002
1.390447e+003,9.866029e-003
1.392376e+003,9.135712e-003
1.394304e+003,8.480750e-003
1.396233e+003,8.284073e-003
1.398161e+003,8.038804e-003
1.400090e+003,8.135494e-003
1.402018e+003,8.028444e-003
1.403947e+003,8.116812e-003
1.405875e+003,8.139495e-003
1.407804e+003,8.311346e-003
1.409732e+003,8.449256e-003
1.411661e+003,8.812882e-003
1.413589e+003,9.173106e-003
1.415518e+003,9.637553e-003
1.417446e+003,9.974282e-003
1.419375e+003,1.055406e-002
1.421303e+003,1.099357e-002
1.423232e+003,1.162767e-002
1.425160e+003,1.276934e-002
1.427089e+003,1.414898e-002
1.429017e+003,1.682962e-002
1.430946e+003,2.242884e-002
1.432874e+003,3.030207e-002
1.434803e+003,3.673517e-002
1.436731e+003,3.791321e-002
1.438660e+003,3.736670e-002
1.440588e+003,4.019075e-002
1.442517e+003,4.716007e-002
1.444445e+003,5.854343e-002
1.446374e+003,7.261163e-002
1.448302e+003,8.834562e-002
1.450231e+003,9.578595e-002
1.452159e+003,9.821296e-002
1.454088e+003,9.831087e-002
1.456016e+003,9.833444e-002
1.457945e+003,9.493311e-002
1.459873e+003,9.191530e-002
1.461802e+003,8.721454e-002
1.463730e+003,7.969764e-002
1.465659e+003,6.436399e-002
1.467587e+003,5.172210e-002
1.469516e+003,4.099593e-002
1.471444e+003,3.147418e-002
1.473373e+003,2.027878e-002
1.475301e+003,1.546088e-002
1.477230e+003,1.199854e-002
1.479158e+003,1.000990e-002
1.481087e+003,8.392651e-003
1.483015e+003,7.233255e-003
1.484944e+003,6.329451e-003
1.486872e+003,5.730145e-003
1.488801e+003,5.116869e-003
1.490729e+003,4.685979e-003
1.492658e+003,4.308760e-003
1.494586e+003,4.154012e-003
1.496515e+003,3.844321e-003
1.498443e+003,3.602631e-003
1.500372e+003,3.355086e-003
1.502300e+003,3.156643e-003
1.504229e+003,2.973832e-003
1.506157e+003,3.105197e-003
1.508086e+003,2.986021e-003
1.510014e+003,2.789747e-003
1.511943e+003,2.619106e-003
1.513871e+003,2.539564e-003
1.515800e+003,2.461579e-003
1.517728e+003,2.413582e-003
1.519657e+003,2.237666e-003
1.521585e+003,2.217598e-003
1.523514e+003,2.229702e-003
1.525442e+003,2.231851e-003
1.527371e+003,2.204139e-003
1.529299e+003,2.171483e-003
1.531228e+003,2.118152e-003
1.533156e+003,2.217326e-003
1.535085e+003,2.232578e-003
1.537013e+003,2.181165e-003
1.538942e+003,2.336614e-003
1.540870e+003,2.642862e-003
1.542799e+003,2.353389e-003
1.544727e+003,2.224278e-003
1.546656e+003,2.179883e-003
1.548584e+003,2.201583e-003
1.550513e+003,2.193037e-003
1.552441e+003,2.152570e-003
1.554370e+003,2.196781e-003
1.556298e+003,2.179448e-003
1.558227e+003,2.144001e-003
1.560155e+003,2.180170e-003
1.562084e+003,2.072558e-003
1.564012e+003,2.063304e-003
1.565941e+003,2.102364e-003
1.567869e+003,2.102625e-003
1.569798e+003,2.122823e-003
1.571726e+003,2.064697e-003
1.573655e+003,2.002712e-003
1.575583e+003,2.060045e-003
1.577512e+003,2.120305e-003
1.579440e+003,2.042837e-003
1.581369e+003,2.022889e-003
1.583297e+003,2.064575e-003
1.585226e+003,2.145529e-003
1.587154e+003,2.167851e-003
1.589083e+003,2.121590e-003
1.591011e+003,2.138775e-003
1.592940e+003,2.172325e-003
1.594868e+003,2.179287e-003
1.596797e+003,2.199609e-003
1.598725e+003,2.239492e-003
1.600654e+003,2.295636e-003
1.602582e+003,2.350699e-003
1.604511e+003,2.382480e-003
1.606439e+003,2.402689e-003
1.608368e+003,2.428669e-003
1.610296e+003,2.431367e-003
1.612225e+003,2.412330e-003
1.614153e+003,2.420958e-003
1.616082e+003,2.569180e-003
1.618010e+003,2.657957e-003
1.619939e+003,2.534416e-003
1.621867e+003,2.503283e-003
1.623796e+003,2.649225e-003
1.625724e+003,2.682429e-003
1.627653e+003,2.738722e-003
1.629581e+003,2.785537e-003
1.631510e+003,2.750073e-003
1.633438e+003,2.768014e-003
1.635367e+003,2.962537e-003
1.637295e+003,2.988432e-003
1.639224e+003,2.851110e-003
1.641152e+003,2.812918e-003
1.643081e+003,2.813093e-003
1.645009e+003,2.884336e-003
1.646938e+003,3.087163e-003
1.648866e+003,3.002379e-003
1.650795e+003,2.878893e-003
1.652723e+003,2.978962e-003
1.654652e+003,2.894465e-003
1.656580e+003,2.756901e-003
1.658509e+003,2.698231e-003
1.660437e+003,2.681240e-003
1.662366e+003,2.628513e-003
1.664294e+003,2.574932e-003
1.666223e+003,2.509221e-003
1.668151e+003,2.622731e-003
1.670080e+003,2.736129e-003
1.672008e+003,2.599258e-003
1.673937e+003,2.530009e-003
1.675865e+003,2.579410e-003
1.677794e+003,2.533894e-003
1.679722e+003,2.539195e-003
1.681651e+003,2.537403e-003
1.683579e+003,2.640817e-003
1.685508e+003,2.760898e-003
1.687436e+003,2.745695e-003
1.689365e+003,2.796955e-003
1.691293e+003,2.820037e-003
1.693222e+003,2.828788e-003
1.695150e+003,3.034946e-003
1.697079e+003,3.107872e-003
1.699007e+003,2.952147e-003
1.700936e+003,3.107850e-003
1.702864e+003,3.207318e-003
1.704793e+003,3.326092e-003
1.706721e+003,3.486462e-003
1.708650e+003,3.494497e-003
1.710578e+003,3.560252e-003
1.712507e+003,3.706072e-003
1.714435e+003,3.862355e-003
1.716364e+003,4.052080e-003
1.718292e+003,4.315071e-003
1.720221e+003,4.291020e-003
1.722149e+003,4.438084e-003
1.724078e+003,4.769512e-003
1.726006e+003,5.074706e-003
1.727935e+003,5.494684e-003
1.729863e+003,6.211642e-003
1.731792e+003,6.878782e-003
1.733720e+003,8.045021e-003
1.735649e+003,9.668745e-003
1.737577e+003,1.064590e-002
1.739506e+003,1.257499e-002
1.741434e+003,1.439547e-002
1.743363e+003,1.571934e-002
1.745291e+003,1.656184e-002
1.747220e+003,1.665600e-002
1.749148e+003,1.577518e-002
1.751077e+003,1.385222e-002
1.753005e+003,1.146092e-002
1.754934e+003,9.577870e-003
1.756862e+003,7.285763e-003
1.758791e+003,5.485736e-003
1.760719e+003,4.320782e-003
1.762648e+003,3.182147e-003
1.764576e+003,2.510928e-003
1.766505e+003,2.098210e-003
1.768433e+003,1.753621e-003
1.770362e+003,1.526978e-003
1.772290e+003,1.340743e-003
1.774219e+003,1.098860e-003
1.776147e+003,9.657852e-004
1.778076e+003,9.083673e-004
1.780004e+003,9.484813e-004
1.781933e+003,8.871593e-004
1.783861e+003,8.331686e-004
1.785790e+003,7.811412e-004
1.787718e+003,6.996468e-004
1.789646e+003,6.671660e-004
1.791575e+003,6.934181e-004
1.793504e+003,5.876310e-004
1.795432e+003,5.508624e-004
1.797361e+003,5.698688e-004
1.799289e+003,4.861280e-004
1.801218e+003,3.092773e-004
1.803146e+003,2.661757e-004
1.805074e+003,1.891963e-004
1.807003e+003,8.266792e-005
1.808932e+003,2.168491e-005
1.810860e+003,-6.301329e-005
1.812789e+003,-2.727546e-004
1.814717e+003,-6.423928e-004
1.816646e+003,-8.484982e-004
1.818574e+003,-3.865846e-004
1.820502e+003,-1.291782e-004
1.822431e+003,2.321228e-005
1.824360e+003,1.204982e-004
1.826288e+003,1.228116e-004
1.828217e+003,1.159050e-004
1.830145e+003,1.039766e-004
1.832073e+003,-1.049563e-004
1.834002e+003,-1.613051e-004
1.835931e+003,-2.299659e-004
1.837859e+003,-1.647770e-004
1.839788e+003,-1.471676e-004
1.841716e+003,-1.347847e-004
1.843645e+003,-1.195706e-004
1.845573e+003,-1.675300e-004
1.847501e+003,-3.769062e-004
1.849430e+003,-2.734996e-004
1.851359e+003,-1.849309e-004
1.853287e+003,-1.479313e-004
1.855216e+003,-1.803860e-004
1.857144e+003,-2.727471e-004
1.859073e+003,-4.499555e-004
1.861001e+003,-3.570318e-004
1.862929e+003,-2.733134e-004
1.864858e+003,-1.953058e-004
1.866787e+003,-2.026632e-004
1.868715e+003,-2.159439e-004
1.870644e+003,-4.570708e-004
1.872572e+003,-4.719980e-004
1.874500e+003,-5.814247e-004
1.876429e+003,-6.591417e-004
1.878357e+003,-6.094761e-004
1.880286e+003,-4.994459e-004
1.882215e+003,-5.845763e-004
1.884143e+003,-7.771067e-004
1.886072e+003,-8.715875e-004
1.888000e+003,-8.238368e-004
1.889928e+003,-6.584041e-004
1.891857e+003,-4.047155e-004
1.893785e+003,-6.224588e-004
1.895714e+003,-6.536245e-004
1.897643e+003,-6.674267e-004
1.899571e+003,-6.176978e-004
1.901500e+003,-6.082170e-004
1.903428e+003,-5.987361e-004
1.905356e+003,-5.892664e-004
1.907285e+003,-5.798042e-004
1.909213e+003,-5.703531e-004
1.911142e+003,-5.609021e-004
1.913071e+003,-5.514622e-004
1.914999e+003,-5.420297e-004
1.916927e+003,-5.326048e-004
1.918856e+003,-5.231835e-004
1.920784e+003,-5.137697e-004
1.922713e+003,-5.043671e-004
1.924641e+003,-4.949719e-004
1.926570e+003,-4.855804e-004
1.928499e+003,-4.762001e-004
1.930427e+003,-4.668273e-004
1.932355e+003,-4.574656e-004
1.934284e+003,-4.480965e-004
1.936212e+003,-4.387461e-004
1.938141e+003,-4.294030e-004
1.940070e+003,-4.200637e-004
1.941998e+003,-4.107282e-004
1.943927e+003,-4.014075e-004
1.945855e+003,-3.920980e-004
1.947783e+003,-3.827810e-004
1.949712e+003,-3.734827e-004
1.951640e+003,-3.641881e-004
1.953569e+003,-3.549047e-004
1.955498e+003,-3.456213e-004
1.957426e+003,-3.363527e-004
1.959354e+003,-3.270917e-004
1.961283e+003,-3.178380e-004
1.963211e+003,-3.085770e-004
1.965140e+003,-2.993345e-004
1.967068e+003,-2.901033e-004
1.968997e+003,-2.808794e-004
1.970926e+003,-2.716519e-004
1.972854e+003,-2.624467e-004
1.974782e+003,-2.532415e-004
1.976711e+003,-2.440438e-004
1.978639e+003,-2.348460e-004
1.980568e+003,-2.256595e-004
1.982496e+003,-2.164878e-004
1.984425e+003,-2.073161e-004
1.986354e+003,-1.981556e-004
1.988282e+003,-1.890026e-004
1.990210e+003,-1.798570e-004
1.992139e+003,-1.707152e-004
1.994067e+003,-1.615882e-004
1.995996e+003,-1.524612e-004
1.997924e+003,-1.433454e-004
1.999853e+003,-1.342334e-004
2.001781e+003,-1.251288e-004
2.003710e+003,-1.160353e-004
2.005638e+003,-1.069456e-004
2.007567e+003,-9.786710e-005
2.009495e+003,-8.878857e-005
2.011424e+003,-7.972494e-005
2.013352e+003,-7.066503e-005
2.015281e+003,-6.161630e-005
2.017209e+003,-5.257130e-005
2.019138e+003,-4.353747e-005
2.021066e+003,-3.450736e-005
2.022995e+003,-2.548471e-005
2.024923e+003,-1.646578e-005
2.026852e+003,-7.461756e-006
2.028781e+003,1.542270e-006
2.030709e+003,1.053140e-005
2.032637e+003,1.951307e-005
2.034566e+003,2.849475e-005
2.036494e+003,3.746152e-005
2.038423e+003,4.642457e-005
2.040351e+003,5.538389e-005
2.042280e+003,6.433576e-005
2.044208e+003,7.327646e-005
2.046137e+003,8.220598e-005
2.048065e+003,9.113550e-005
2.049994e+003,1.000538e-004
2.051922e+003,1.089647e-004
2.053851e+003,1.178756e-004
2.055779e+003,1.267716e-004
2.057708e+003,1.356602e-004
2.059636e+003,1.445375e-004
2.061565e+003,1.534112e-004
2.063493e+003,1.622811e-004
2.065422e+003,1.711436e-004
2.067350e+003,1.799949e-004
2.069279e+003,1.888499e-004
2.071207e+003,1.976863e-004
2.073136e+003,2.065115e-004
2.075064e+003,2.153330e-004
2.076993e+003,2.241507e-004
2.078921e+003,2.329610e-004
2.080850e+003,2.417602e-004
2.082778e+003,2.505556e-004
2.084707e+003,2.593473e-004
2.086635e+003,2.681240e-004
2.088564e+003,2.768971e-004
2.090492e+003,2.856590e-004
2.092421e+003,2.944171e-004
2.094349e+003,3.031604e-004
2.096278e+003,3.119111e-004
2.098206e+003,3.206544e-004
2.100135e+003,3.293715e-004
2.102063e+003,3.380999e-004
2.103992e+003,3.468096e-004
2.105920e+003,3.555119e-004
2.107849e+003,3.642105e-004
2.109777e+003,3.729016e-004
2.111706e+003,3.815889e-004
2.113634e+003,3.902763e-004
2.115563e+003,3.989413e-004
2.117491e+003,4.075989e-004
2.119420e+003,4.162565e-004
2.121348e+003,4.248992e-004
2.123277e+003,4.335344e-004
2.125205e+003,4.421696e-004
2.127134e+003,4.507974e-004
2.129062e+003,4.594177e-004
2.130991e+003,4.680306e-004
2.132919e+003,4.766360e-004
2.134848e+003,4.852265e-004
2.136776e+003,4.938170e-004
2.138705e+003,5.023926e-004
2.140633e+003,5.109683e-004
2.142562e+003,5.195364e-004
2.144490e+003,5.280972e-004
2.146419e+003,5.366579e-004
2.148347e+003,5.451962e-004
2.150276e+003,5.537346e-004
2.152204e+003,5.622581e-004
2.154133e+003,5.707890e-004
2.156061e+003,5.793124e-004
2.157990e+003,5.878061e-004
2.159918e+003,5.963072e-004
2.161847e+003,6.048009e-004
2.163775e+003,6.132871e-004
2.165704e+003,6.217659e-004
2.167632e+003,6.302372e-004
2.169561e+003,6.387010e-004
2.171489e+003,6.471574e-004
2.173418e+003,6.556064e-004
2.175346e+003,6.640479e-004
2.177275e+003,6.724820e-004
2.179203e+003,6.809086e-004
2.181132e+003,6.893277e-004
2.183060e+003,6.977394e-004
2.184989e+003,7.061437e-004
2.186917e+003,7.145479e-004
2.188846e+003,7.229373e-004
2.190774e+003,7.313117e-004
2.192703e+003,7.396936e-004
2.194631e+003,7.480606e-004
2.196560e+003,7.564202e-004
2.198488e+003,7.647723e-004
2.200417e+003,7.731244e-004
2.202345e+003,7.814616e-004
2.204274e+003,7.898062e-004
2.206202e+003,7.981211e-004
2.208131e+003,8.064359e-004
2.210059e+003,8.147433e-004
2.211988e+003,8.230507e-004
2.213916e+003,8.313358e-004
2.215845e+003,8.396208e-004
2.217773e+003,8.479059e-004
2.219702e+003,8.561835e-004
2.221630e+003,8.644462e-004
2.223559e+003,8.727089e-004
2.225487e+003,8.809566e-004
2.227416e+003,8.892044e-004
2.229344e+003,8.974373e-004
2.231273e+003,9.056702e-004
2.233201e+003,9.138957e-004
2.235130e+003,9.221062e-004
2.237058e+003,9.303093e-004
2.238987e+003,9.385049e-004
2.240915e+003,9.467006e-004
2.242844e+003,9.548739e-004
2.244772e+003,9.630695e-004
2.246701e+003,9.712279e-004
2.248629e+003,9.794012e-004
2.250558e+003,9.875521e-004
2.252486e+003,9.957030e-004
2.254415e+003,1.003839e-003
2.256343e+003,1.011975e-003
2.258272e+003,1.020096e-003
2.260200e+003,1.028217e-003
2.262129e+003,1.036331e-003
2.264057e+003,1.044437e-003
2.265986e+003,1.052521e-003
2.267914e+003,1.060620e-003
2.269843e+003,1.068696e-003
2.271771e+003,1.076773e-003
2.273700e+003,1.084834e-003
2.275628e+003,1.092903e-003
2.277557e+003,1.100957e-003
2.279485e+003,1.109004e-003
2.281414e+003,1.117043e-003
2.283342e+003,1.125060e-003
2.285271e+003,1.133084e-003
2.287199e+003,1.141101e-003
2.289128e+003,1.149110e-003
2.291056e+003,1.157127e-003
2.292985e+003,1.165107e-003
2.294913e+003,1.173101e-003
2.296842e+003,1.181081e-003
2.298770e+003,1.189046e-003
2.300699e+003,1.197003e-003
2.302627e+003,1.204967e-003
2.304556e+003,1.212925e-003
2.306484e+003,1.220867e-003
2.308413e+003,1.228802e-003
2.310341e+003,1.236729e-003
2.312270e+003,1.244642e-003
2.314198e+003,1.252554e-003
2.316127e+003,1.260459e-003
2.318055e+003,1.268357e-003
2.319984e+003,1.276255e-003
2.321912e+003,1.284130e-003
2.323841e+003,1.292013e-003
2.325769e+003,1.299873e-003
2.327698e+003,1.307733e-003
2.329626e+003,1.315601e-003
2.331555e+003,1.323439e-003
2.333483e+003,1.331285e-003
2.335412e+003,1.339115e-003
2.337340e+003,1.346938e-003
2.339269e+003,1.354754e-003
2.341197e+003,1.362570e-003
2.343126e+003,1.370370e-003
2.345054e+003,1.378156e-003
2.346983e+003,1.385957e-003
2.348911e+003,1.393735e-003
2.350840e+003,1.401514e-003
2.352768e+003,1.409277e-003
2.354697e+003,1.417041e-003
2.356625e+003,1.424782e-003
2.358554e+003,1.432523e-003
2.360482e+003,1.440264e-003
2.362411e+003,1.447991e-003
2.364339e+003,1.455717e-003
2.366268e+003,1.463428e-003
2.368196e+003,1.471139e-003
2.370125e+003,1.478836e-003
2.372053e+003,1.486532e-003
2.373982e+003,1.494214e-003
2.375910e+003,1.501895e-003
2.377839e+003,1.509570e-003
2.379767e+003,1.517229e-003
2.381696e+003,1.524888e-003
2.383624e+003,1.532532e-003
2.385553e+003,1.540177e-003
2.387481e+003,1.547806e-003
2.389410e+003,1.555428e-003
2.391338e+003,1.563057e-003
2.393267e+003,1.570672e-003
2.395195e+003,1.578271e-003
2.397124e+003,1.585871e-003
2.399052e+003,1.593456e-003
2.400981e+003,1.572460e-003
2.402909e+003,1.464285e-003
2.404838e+003,1.462266e-003
2.406766e+003,1.709163e-003
2.408695e+003,2.071448e-003
2.410623e+003,2.133526e-003
2.412552e+003,2.087668e-003
2.414480e+003,2.038553e-003
2.416409e+003,2.061129e-003
2.418337e+003,2.091289e-003
2.420266e+003,2.222210e-003
2.422194e+003,2.345778e-003
2.424123e+003,2.373978e-003
2.426051e+003,2.401344e-003
2.427979e+003,2.519801e-003
2.429908e+003,2.602763e-003
2.431837e+003,2.699256e-003
2.433765e+003,2.672769e-003
2.435694e+003,2.717838e-003
2.437622e+003,2.734885e-003
2.439551e+003,2.604596e-003
2.441479e+003,2.586566e-003
2.443407e+003,2.710186e-003
2.445336e+003,2.735496e-003
2.447265e+003,2.808958e-003
2.449193e+003,2.863705e-003
2.451122e+003,2.995685e-003
2.453050e+003,3.065065e-003
2.454979e+003,3.006876e-003
2.456907e+003,2.866462e-003
2.458836e+003,2.694629e-003
2.460764e+003,2.459817e-003
2.462693e+003,2.358764e-003
2.464621e+003,2.321415e-003
2.466550e+003,2.296895e-003
2.468478e+003,2.209850e-003
2.470406e+003,2.237320e-003
2.472335e+003,2.340384e-003
2.474264e+003,2.456099e-003
2.476192e+003,2.543300e-003
2.478121e+003,2.691597e-003
2.480049e+003,2.718180e-003
2.481978e+003,2.653904e-003
2.483906e+003,2.568431e-003
2.485835e+003,2.539188e-003
2.487763e+003,2.566122e-003
2.489692e+003,2.674885e-003
2.491620e+003,2.674937e-003
2.493549e+003,2.679408e-003
2.495477e+003,2.660103e-003
2.497406e+003,2.696075e-003
2.499334e+003,2.717771e-003
2.501263e+003,2.685353e-003
2.503191e+003,2.645917e-003
2.505120e+003,2.724588e-003
2.507048e+003,2.775215e-003
2.508977e+003,2.704509e-003
2.510905e+003,2.632618e-003
2.512833e+003,2.755359e-003
2.514762e+003,2.877109e-003
2.516691e+003,3.106095e-003
2.518619e+003,3.180385e-003
2.520548e+003,3.136113e-003
2.522476e+003,3.199302e-003
2.524405e+003,3.369443e-003
2.526333e+003,3.423676e-003
2.528261e+003,3.530838e-003
2.530190e+003,3.554896e-003
2.532119e+003,3.652588e-003
2.534047e+003,3.855579e-003
2.535976e+003,3.947057e-003
2.537904e+003,3.996037e-003
2.539833e+003,4.186757e-003
2.541761e+003,4.219510e-003
2.543689e+003,4.169993e-003
2.545618e+003,4.327826e-003
2.547547e+003,4.408516e-003
2.549475e+003,4.423082e-003
2.551404e+003,4.566453e-003
2.553332e+003,4.789352e-003
2.555260e+003,4.940614e-003
2.557189e+003,4.970789e-003
2.559117e+003,5.074643e-003
2.561046e+003,5.223811e-003
2.562975e+003,5.427927e-003
2.564903e+003,5.540855e-003
2.566832e+003,5.681224e-003
2.568760e+003,5.714022e-003
2.570688e+003,5.943261e-003
2.572617e+003,6.288357e-003
2.574546e+003,6.639518e-003
2.576474e+003,6.911919e-003
2.578403e+003,7.310495e-003
2.580331e+003,7.516146e-003
2.582260e+003,7.557258e-003
2.584188e+003,7.452466e-003
2.586116e+003,7.286869e-003
2.588045e+003,6.979540e-003
2.589974e+003,6.727077e-003
2.591902e+003,6.595857e-003
2.593831e+003,6.582960e-003
2.595759e+003,6.540492e-003
2.597688e+003,6.656229e-003
2.599616e+003,6.818399e-003
2.601544e+003,6.970137e-003
2.603473e+003,7.021308e-003
2.605402e+003,7.249951e-003
2.607330e+003,7.613279e-003
2.609259e+003,8.078523e-003
2.611187e+003,8.334920e-003
2.613115e+003,8.502282e-003
2.615044e+003,8.519933e-003
2.616972e+003,8.589283e-003
2.618901e+003,8.631803e-003
2.620830e+003,8.633040e-003
2.622758e+003,8.624531e-003
2.624687e+003,8.631542e-003
2.626615e+003,8.604869e-003
2.628543e+003,8.581147e-003
2.630472e+003,8.583210e-003
2.632400e+003,8.651778e-003
2.634329e+003,8.765228e-003
2.636258e+003,8.862838e-003
2.638186e+003,8.959815e-003
2.640115e+003,9.139016e-003
2.642043e+003,9.319544e-003
2.643971e+003,9.566605e-003
2.645900e+003,9.757861e-003
2.647828e+003,9.852424e-003
2.649757e+003,9.931371e-003
2.651686e+003,1.015158e-002
2.653614e+003,1.032589e-002
2.655542e+003,1.045332e-002
2.657471e+003,1.051997e-002
2.659399e+003,1.050809e-002
2.661328e+003,1.030026e-002
2.663256e+003,9.891734e-003
2.665185e+003,9.488560e-003
2.667114e+003,9.319283e-003
2.669042e+003,9.318136e-003
2.670970e+003,9.359390e-003
2.672899e+003,9.449698e-003
2.674827e+003,9.548925e-003
2.676756e+003,9.615548e-003
2.678685e+003,9.622514e-003
2.680613e+003,9.586498e-003
2.682542e+003,9.574115e-003
2.684470e+003,9.550564e-003
2.686398e+003,9.563841e-003
2.688327e+003,9.607494e-003
2.690255e+003,9.616390e-003
2.692184e+003,9.642109e-003
2.694113e+003,9.666607e-003
2.696041e+003,9.721205e-003
2.697969e+003,9.872638e-003
2.699898e+003,1.000834e-002
2.701826e+003,1.020677e-002
2.703755e+003,1.049490e-002
2.705683e+003,1.081263e-002
2.707612e+003,1.121055e-002
2.709541e+003,1.163226e-002
2.711469e+003,1.208343e-002
2.713397e+003,1.276419e-002
2.715326e+003,1.359987e-002
2.717254e+003,1.454060e-002
2.719183e+003,1.545747e-002
2.721111e+003,1.606623e-002
2.723040e+003,1.607651e-002
2.724969e+003,1.550423e-002
2.726897e+003,1.467891e-002
2.728825e+003,1.395822e-002
2.730754e+003,1.335250e-002
2.732682e+003,1.293520e-002
2.734611e+003,1.264063e-002
2.736539e+003,1.233239e-002
2.738468e+003,1.194363e-002
2.740396e+003,1.159075e-002
2.742325e+003,1.132757e-002
2.744253e+003,1.113490e-002
2.746182e+003,1.109039e-002
2.748110e+003,1.105369e-002
2.750039e+003,1.098166e-002
2.751967e+003,1.102546e-002
2.753896e+003,1.118513e-002
2.755824e+003,1.141666e-002
2.757753e+003,1.164141e-002
2.759681e+003,1.184438e-002
2.761610e+003,1.206365e-002
2.763538e+003,1.229624e-002
2.765467e+003,1.250754e-002
2.767395e+003,1.274863e-002
2.769324e+003,1.299893e-002
2.771252e+003,1.322992e-002
2.773181e+003,1.350790e-002
2.775109e+003,1.395483e-002
2.777038e+003,1.450112e-002
2.778966e+003,1.507232e-002
2.780895e+003,1.567286e-002
2.782823e+003,1.632640e-002
2.784752e+003,1.717307e-002
2.786680e+003,1.815658e-002
2.788609e+003,1.924513e-002
2.790537e+003,2.040130e-002
2.792466e+003,2.140965e-002
2.794394e+003,2.223969e-002
2.796323e+003,2.294265e-002
2.798251e+003,2.361942e-002
2.800180e+003,2.462462e-002
2.802108e+003,2.608807e-002
2.804037e+003,2.791911e-002
2.805965e+003,2.983142e-002
2.807894e+003,3.166434e-002
2.809822e+003,3.332537e-002
2.811751e+003,3.489553e-002
2.813679e+003,3.662709e-002
2.815608e+003,3.873601e-002
2.817536e+003,4.125638e-002
2.819465e+003,4.444121e-002
2.821393e+003,4.847702e-002
2.823322e+003,5.357479e-002
2.825250e+003,6.053142e-002
2.827179e+003,7.041343e-002
2.829107e+003,8.486114e-002
2.831036e+003,1.060452e-001
2.832964e+003,1.339563e-001
2.834893e+003,1.627339e-001
2.836821e+003,1.817255e-001
2.838750e+003,1.839257e-001
2.840678e+003,1.704892e-001
2.842607e+003,1.486986e-001
2.844535e+003,1.266034e-001
2.846464e+003,1.092132e-001
2.848392e+003,9.780084e-002
2.850321e+003,9.144770e-002
2.852249e+003,8.892867e-002
2.854178e+003,8.960217e-002
2.856106e+003,9.392434e-002
2.858035e+003,1.037672e-001
2.859963e+003,1.218327e-001
2.861892e+003,1.478841e-001
2.863820e+003,1.734512e-001
2.865749e+003,1.862462e-001
2.867677e+003,1.841434e-001
2.869606e+003,1.759330e-001
2.871534e+003,1.692713e-001
2.873463e+003,1.672734e-001
2.875391e+003,1.695531e-001
2.877320e+003,1.713932e-001
2.879248e+003,1.689970e-001
2.881177e+003,1.639451e-001
2.883105e+003,1.593005e-001
2.885034e+003,1.562466e-001
2.886962e+003,1.546402e-001
2.888891e+003,1.545027e-001
2.890819e+003,1.565641e-001
2.892748e+003,1.619330e-001
2.894676e+003,1.712811e-001
2.896605e+003,1.847898e-001
2.898533e+003,2.017560e-001
2.900462e+003,2.208398e-001
2.902390e+003,2.408554e-001
2.904319e+003,2.603996e-001
2.906247e+003,2.775615e-001
2.908176e+003,2.926768e-001
2.910104e+003,3.105383e-001
2.912033e+003,3.364181e-001
2.913961e+003,3.680248e-001
2.915890e+003,3.916395e-001
2.917818e+003,3.926926e-001
2.919747e+003,3.726956e-001
2.921675e+003,3.452520e-001
2.923604e+003,3.183802e-001
2.925532e+003,2.909567e-001
2.927461e+003,2.603107e-001
2.929389e+003,2.278639e-001
2.931318e+003,1.977917e-001
2.933246e+003,1.735598e-001
2.935175e+003,1.570848e-001
2.937103e+003,1.494765e-001
2.939032e+003,1.520811e-001
2.940960e+003,1.673863e-001
2.942889e+003,1.969534e-001
2.944817e+003,2.377377e-001
2.946746e+003,2.790620e-001
2.948674e+003,3.042196e-001
2.950603e+003,3.012273e-001
2.952531e+003,2.765862e-001
2.954460e+003,2.499420e-001
2.956388e+003,2.355815e-001
2.958317e+003,2.324836e-001
2.960245e+003,2.282930e-001
2.962174e+003,2.109746e-001
2.964102e+003,1.818689e-001
2.966031e+003,1.508376e-001
2.967959e+003,1.226060e-001
2.969888e+003,9.766901e-002
2.971816e+003,7.670690e-002
2.973745e+003,5.995966e-002
2.975673e+003,4.688906e-002
2.977602e+003,3.672887e-002
2.979530e+003,2.898555e-002
2.981459e+003,2.309933e-002
2.983387e+003,1.859005e-002
2.985316e+003,1.503418e-002
2.987244e+003,1.234336e-002
2.989173e+003,1.026586e-002
2.991101e+003,8.516990e-003
2.993030e+003,7.166080e-003
2.994958e+003,6.204203e-003
2.996887e+003,5.560502e-003
2.998815e+003,5.118392e-003
3.000744e+003,4.639655e-003
3.002672e+003,4.262082e-003
3.004601e+003,3.953800e-003
3.006529e+003,3.587551e-003
3.008458e+003,3.094085e-003
3.010386e+003,2.491459e-003
3.012315e+003,1.859345e-003
3.014243e+003,1.336627e-003
3.016172e+003,9.302124e-004
3.018100e+003,5.097091e-004
3.020029e+003,1.623854e-004
3.021957e+003,-4.234910e-005
3.023886e+003,-2.550334e-004
3.025814e+003,-4.257858e-004
3.027743e+003,-6.093010e-004
3.029671e+003,-7.594228e-004
3.031600e+003,-8.339658e-004
3.033528e+003,-9.067729e-004
3.035457e+003,-9.013712e-004
3.037385e+003,-9.612963e-004
3.039314e+003,-1.085512e-003
3.041242e+003,-1.040868e-003
3.043171e+003,-9.944588e-004
3.045099e+003,-1.046307e-003
3.047028e+003,-1.076519e-003
3.048956e+003,-1.069061e-003
3.050885e+003,-1.013696e-003
3.052813e+003,-9.199753e-004
3.054742e+003,-9.183884e-004
3.056670e+003,-9.424537e-004
3.058599e+003,-9.318888e-004
3.060527e+003,-9.180605e-004
3.062456e+003,-9.320825e-004
3.064384e+003,-9.140074e-004
3.066313e+003,-8.928552e-004
3.068241e+003,-8.366704e-004
3.070170e+003,-8.209050e-004
3.072098e+003,-8.665398e-004
3.074027e+003,-9.205043e-004
3.075955e+003,-9.244010e-004
3.077884e+003,-9.263307e-004
3.079812e+003,-9.374544e-004
3.081741e+003,-8.880720e-004
3.083669e+003,-9.136125e-004
3.085598e+003,-9.333938e-004
3.087526e+003,-8.112565e-004
3.089455e+003,-7.190779e-004
3.091383e+003,-7.130429e-004
3.093312e+003,-7.309094e-004
3.095240e+003,-6.646365e-004
3.097169e+003,-6.300211e-004
3.099097e+003,-6.417111e-004
3.101026e+003,-5.803332e-004
3.102954e+003,-5.061254e-004
3.104883e+003,-5.399212e-004
3.106811e+003,-4.652441e-004
3.108740e+003,-5.071163e-004
3.110668e+003,-5.486012e-004
3.112597e+003,-4.645437e-004
3.114525e+003,-3.129244e-004
3.116454e+003,-2.215430e-004
3.118382e+003,-2.511516e-004
3.120311e+003,-2.896488e-004
3.122239e+003,-2.128109e-004
3.124168e+003,-1.667067e-004
3.126096e+003,-2.518296e-005
3.128025e+003,9.177625e-005
3.129953e+003,1.559332e-004
3.131882e+003,2.006143e-004
3.133810e+003,2.461076e-004
3.135739e+003,3.539696e-004
3.137667e+003,4.644990e-004
3.139596e+003,5.643889e-004
3.141524e+003,5.923733e-004
3.143453e+003,6.652400e-004
3.145381e+003,6.284639e-004
3.147310e+003,4.992932e-004
3.149238e+003,5.334318e-004
3.151167e+003,5.942360e-004
3.153095e+003,5.523786e-004
3.155024e+003,4.818141e-004
3.156952e+003,5.276725e-004
3.158881e+003,5.196407e-004
3.160809e+003,5.277619e-004
3.162738e+003,6.234199e-004
3.164666e+003,6.436110e-004
3.166594e+003,5.728230e-004
3.168523e+003,6.155968e-004
3.170452e+003,6.567314e-004
3.172380e+003,6.623417e-004
3.174309e+003,7.096156e-004
3.176237e+003,7.614791e-004
3.178166e+003,7.948801e-004
3.180094e+003,8.407608e-004
3.182022e+003,9.556785e-004
3.183951e+003,1.063846e-003
3.185880e+003,1.080319e-003
3.187808e+003,1.085162e-003
3.189737e+003,1.128718e-003
3.191665e+003,1.177542e-003
3.193594e+003,1.152597e-003
3.195522e+003,1.148045e-003
3.197450e+003,1.127265e-003
3.199379e+003,1.098134e-003
3.201308e+003,1.133524e-003
3.203236e+003,1.208194e-003
3.205165e+003,1.189522e-003
3.207093e+003,1.110137e-003
3.209021e+003,1.011059e-003
3.210950e+003,9.040162e-004
3.212878e+003,8.237436e-004
3.214807e+003,7.234067e-004
3.216736e+003,6.618872e-004
3.218664e+003,7.151961e-004
3.220593e+003,6.803200e-004
3.222521e+003,5.054325e-004
3.224449e+003,3.208667e-004
3.226378e+003,2.941638e-004
3.228307e+003,2.171397e-004
3.230235e+003,1.196191e-004
3.232164e+003,1.093596e-004
3.234092e+003,5.113333e-005
3.236021e+003,1.371652e-005
3.237949e+003,4.666299e-005
3.239877e+003,8.404255e-006
3.241806e+003,-1.209974e-005
3.243735e+003,-1.180917e-005
3.245663e+003,-7.137656e-006
3.247592e+003,-3.874302e-007
3.249520e+003,5.384535e-005
3.251448e+003,5.565584e-005
3.253377e+003,1.085028e-004
3.255305e+003,2.466217e-004
3.257234e+003,3.118590e-004
3.259163e+003,2.334565e-004
3.261091e+003,2.040043e-004
3.263020e+003,2.956092e-004
3.264948e+003,3.979877e-004
3.266876e+003,3.438666e-004
3.268805e+003,2.572164e-004
3.270733e+003,2.443865e-004
3.272662e+003,3.521815e-004
3.274591e+003,3.989711e-004
3.276519e+003,4.519820e-004
3.278448e+003,4.835427e-004
3.280376e+003,4.826337e-004
3.282304e+003,4.244372e-004
3.284233e+003,4.626587e-004
3.286161e+003,4.822537e-004
3.288090e+003,4.467964e-004
3.290019e+003,4.131645e-004
3.291947e+003,5.464181e-004
3.293875e+003,5.683154e-004
3.295804e+003,4.543364e-004
3.297732e+003,4.841387e-004
3.299661e+003,5.814284e-004
3.301589e+003,5.485490e-004
3.303518e+003,4.934743e-004
3.305447e+003,5.142018e-004
3.307375e+003,5.317926e-004
3.309303e+003,4.946738e-004
3.311232e+003,4.699603e-004
3.313160e+003,5.223528e-004
3.315089e+003,6.283298e-004
3.317018e+003,6.408244e-004
3.318946e+003,5.608723e-004
3.320875e+003,5.580261e-004
3.322803e+003,5.854666e-004
3.324731e+003,6.380677e-004
3.326660e+003,6.991178e-004
3.328588e+003,5.892888e-004
3.330517e+003,4.737824e-004
3.332446e+003,5.717203e-004
3.334374e+003,7.413775e-004
3.336302e+003,8.413568e-004
3.338231e+003,8.295998e-004
3.340159e+003,8.015856e-004
3.342088e+003,8.636788e-004
3.344016e+003,8.537024e-004
3.345945e+003,8.600727e-004
3.347874e+003,9.409562e-004
3.349802e+003,9.180084e-004
3.351730e+003,8.479208e-004
3.353659e+003,7.945225e-004
3.355587e+003,8.550584e-004
3.357516e+003,8.653626e-004
3.359444e+003,7.585660e-004
3.361373e+003,7.651150e-004
3.363302e+003,7.254705e-004
3.365230e+003,7.221997e-004
3.367158e+003,7.508248e-004
3.369087e+003,7.470921e-004
3.371015e+003,7.654727e-004
3.372944e+003,7.442459e-004
3.374872e+003,7.172376e-004
3.376801e+003,7.063672e-004
3.378729e+003,6.755814e-004
3.380658e+003,6.515905e-004
3.382586e+003,6.137639e-004
3.384515e+003,5.916208e-004
3.386443e+003,5.943328e-004
3.388372e+003,6.065518e-004
3.390300e+003,5.968586e-004
3.392229e+003,5.402118e-004
3.394157e+003,5.507171e-004
3.396086e+003,5.782023e-004
3.398014e+003,6.211624e-004
3.399943e+003,6.635785e-004
3.401871e+003,6.772950e-004
3.403800e+003,7.061213e-004
3.405728e+003,6.028563e-004
3.407657e+003,6.079525e-004
3.409585e+003,6.647259e-004
3.411514e+003,6.384999e-004
3.413442e+003,6.558448e-004
3.415371e+003,6.786659e-004
3.417299e+003,6.357729e-004
3.419228e+003,5.519316e-004
3.421156e+003,4.702881e-004
3.423085e+003,4.700795e-004
3.425013e+003,4.676655e-004
3.426942e+003,4.478619e-004
3.428870e+003,3.776550e-004
3.430799e+003,3.725067e-004
3.432727e+003,3.428534e-004
3.434656e+003,3.230348e-004
3.436584e+003,3.861338e-004
3.438513e+003,3.803372e-004
3.440441e+003,3.607348e-004
3.442370e+003,3.736019e-004
3.444298e+003,2.939478e-004
3.446227e+003,2.136230e-004
3.448155e+003,2.473369e-004
3.450084e+003,2.441108e-004
3.452012e+003,2.086535e-004
3.453941e+003,1.464486e-004
3.455869e+003,1.349449e-004
3.457798e+003,2.515092e-004
3.459726e+003,2.401620e-004
3.461655e+003,1.289323e-004
3.463583e+003,6.341934e-005
3.465512e+003,9.717792e-005
3.467440e+003,9.320676e-005
3.469369e+003,8.847564e-005
3.471297e+003,4.172325e-006
3.473226e+003,-1.042411e-004
3.475154e+003,-1.162365e-004
3.477083e+003,-9.100884e-005
3.479011e+003,-8.450449e-005
3.480940e+003,-4.059821e-005
3.482868e+003,5.637854e-005
3.484797e+003,-3.422052e-005
3.486725e+003,-1.417473e-004
3.488654e+003,-2.961755e-004
3.490582e+003,-3.431588e-004
3.492511e+003,-2.645850e-004
3.494439e+003,-2.072304e-004
3.496368e+003,-1.560226e-004
3.498296e+003,-2.607703e-004
3.500225e+003,-2.744943e-004
3.502153e+003,-2.674833e-004
3.504082e+003,-2.495348e-004
3.506010e+003,-2.254695e-004
3.507939e+003,-3.121421e-004
3.509867e+003,-4.376248e-004
3.511796e+003,-3.807619e-004
3.513724e+003,-4.138276e-004
3.515653e+003,-4.565120e-004
3.517581e+003,-4.890487e-004
3.519510e+003,-4.043803e-004
3.521438e+003,-3.707036e-004
3.523367e+003,-5.074888e-004
3.525295e+003,-6.746426e-004
3.527224e+003,-7.896945e-004
3.529152e+003,-7.953644e-004
3.531081e+003,-7.492006e-004
3.533009e+003,-9.105951e-004
3.534938e+003,-9.781420e-004
3.536866e+003,-7.931814e-004
3.538795e+003,-7.055029e-004
3.540723e+003,-6.885678e-004
3.542652e+003,-7.800385e-004
3.544580e+003,-8.591637e-004
3.546509e+003,-7.337630e-004
3.548437e+003,-9.268373e-004
3.550366e+003,-1.114309e-003
3.552294e+003,-1.074888e-003
3.554223e+003,-1.201525e-003
3.556151e+003,-1.346827e-003
3.558080e+003,-1.343936e-003
3.560008e+003,-1.143903e-003
3.561937e+003,-1.170211e-003
3.563865e+003,-1.352966e-003
3.565794e+003,-1.238585e-003
3.567722e+003,-1.102708e-003
3.569651e+003,-1.431659e-003
3.571579e+003,-1.554303e-003
3.573508e+003,-1.578145e-003
3.575436e+003,-1.647890e-003
3.577365e+003,-1.684740e-003
3.579293e+003,-1.618378e-003
3.581222e+003,-1.388282e-003
3.583150e+003,-1.375146e-003
3.585079e+003,-1.408525e-003
3.587007e+003,-1.150966e-003
3.588936e+003,-1.287468e-003
3.590864e+003,-1.571260e-003
3.592793e+003,-1.527131e-003
3.594721e+003,-1.383424e-003
3.596650e+003,-1.623996e-003
3.598578e+003,-1.737364e-003
3.600507e+003,-1.503073e-003
3.602435e+003,-1.455106e-003
3.604364e+003,-1.599133e-003
3.606292e+003,-1.526244e-003
3.608221e+003,-1.265094e-003
3.610149e+003,-1.411058e-003
3.612078e+003,-1.560763e-003
3.614006e+003,-1.544200e-003
3.615935e+003,-1.629792e-003
3.617863e+003,-1.258619e-003
3.619792e+003,-1.036890e-003
3.621720e+003,-1.352496e-003
3.623649e+003,-1.597211e-003
3.625577e+003,-1.555577e-003
3.627506e+003,-1.032613e-003
3.629434e+003,-5.949214e-004
3.631363e+003,-1.306430e-003
3.633291e+003,-1.502737e-003
3.635220e+003,-1.422033e-003
3.637148e+003,-1.440518e-003
3.639077e+003,-1.339175e-003
3.641005e+003,-1.146570e-003
3.642934e+003,-1.264438e-003
3.644862e+003,-1.283936e-003
3.646791e+003,-5.605742e-004
3.648719e+003,-1.319647e-004
3.650648e+003,-5.867407e-004
3.652576e+003,-1.249887e-003
3.654505e+003,-1.353800e-003
3.656433e+003,-1.110375e-003
3.658362e+003,-1.264669e-003
3.660290e+003,-1.279220e-003
3.662219e+003,-1.125224e-003
3.664147e+003,-9.861290e-004
3.666076e+003,-1.225866e-003
3.668004e+003,-1.108266e-003
3.669933e+003,-5.134866e-004
3.671861e+003,-8.744225e-004
3.673790e+003,-8.441508e-004
3.675718e+003,-8.255988e-005
3.677647e+003,-5.901903e-004
3.679575e+003,-8.191839e-004
3.681504e+003,-8.338913e-004
3.683432e+003,-7.624999e-004
3.685361e+003,-7.060766e-004
3.687289e+003,-4.930124e-004
3.689218e+003,-3.561601e-004
3.691146e+003,-5.423576e-004
3.693075e+003,-7.507280e-004
3.695003e+003,-7.139668e-004
3.696932e+003,-5.317107e-004
3.698860e+003,-5.321801e-004
3.700789e+003,-4.117340e-004
3.702717e+003,-5.017519e-004
3.704646e+003,-5.713552e-004
3.706574e+003,-4.322082e-004
3.708503e+003,-1.986995e-004
3.710431e+003,9.275973e-005
3.712360e+003,-1.915768e-004
3.714288e+003,-2.650470e-004
3.716217e+003,-2.551302e-004
3.718145e+003,-2.781898e-004
3.720074e+003,-8.123368e-005
3.722002e+003,3.091022e-004
3.723931e+003,2.501905e-004
3.725859e+003,-1.003519e-004
3.727788e+003,-2.243295e-004
3.729716e+003,9.056926e-005
3.731645e+003,6.869733e-004
3.733573e+003,7.415414e-004
3.735502e+003,5.684495e-004
3.737430e+003,5.533546e-005
3.739359e+003,7.923692e-005
3.741287e+003,1.498982e-004
3.743216e+003,5.877987e-004
3.745144e+003,8.997768e-004
3.747073e+003,4.176870e-004
3.749001e+003,7.389113e-004
3.750930e+003,1.091413e-003
3.752858e+003,7.034838e-004
3.754787e+003,3.537610e-004
3.756715e+003,3.576353e-004
3.758644e+003,2.550408e-004
3.760572e+003,3.334805e-004
3.762501e+003,1.623705e-004
3.764429e+003,2.675653e-004
3.766358e+003,3.098845e-004
3.768286e+003,3.075749e-004
3.770215e+003,5.590096e-004
3.772143e+003,3.852844e-004
3.774072e+003,3.043488e-004
3.776000e+003,2.773479e-004
3.777929e+003,3.411099e-004
3.779857e+003,5.102605e-004
3.781786e+003,2.446175e-004
3.783714e+003,9.651482e-005
3.785643e+003,2.007410e-004
3.787571e+003,1.613498e-004
3.789500e+003,1.532659e-004
3.791428e+003,2.871305e-004
3.793357e+003,1.728460e-004
3.795285e+003,3.381297e-004
3.797214e+003,3.422275e-004
3.799142e+003,4.424155e-005
3.801071e+003,6.568730e-004
3.802999e+003,5.419329e-004
3.804927e+003,2.758279e-004
3.806856e+003,6.372184e-004
3.808785e+003,5.270541e-004
3.810713e+003,3.629327e-004
3.812642e+003,2.610534e-004
3.814570e+003,5.332306e-004
3.816499e+003,8.062720e-004
3.818427e+003,3.694296e-004
3.820355e+003,8.789450e-004
3.822284e+003,9.861812e-004
3.824213e+003,3.575534e-004
3.826141e+003,4.238486e-004
3.828070e+003,2.909750e-004
3.829998e+003,1.698062e-004
3.831927e+003,3.098249e-004
3.833855e+003,3.013536e-004
3.835783e+003,6.489903e-004
3.837712e+003,9.839535e-004
3.839641e+003,6.628782e-004
3.841569e+003,3.934950e-004
3.843498e+003,3.627837e-004
3.845426e+003,1.918525e-004
3.847354e+003,2.150908e-004
3.849283e+003,4.734024e-004
3.851211e+003,6.297231e-004
3.853140e+003,1.632556e-003
3.855069e+003,8.775368e-004
3.856997e+003,3.359616e-004
3.858926e+003,4.760548e-004
3.860854e+003,5.750358e-004
3.862782e+003,5.707070e-004
3.864711e+003,6.754473e-004
3.866640e+003,1.881942e-004
3.868568e+003,1.782924e-004
3.870497e+003,6.446540e-004
3.872425e+003,3.416762e-004
3.874354e+003,4.435182e-004
3.876282e+003,2.857670e-004
3.878210e+003,2.093688e-004
3.880139e+003,6.267503e-004
3.882068e+003,5.076900e-004
3.883996e+003,3.763884e-004
3.885925e+003,7.242560e-004
3.887853e+003,4.434064e-004
3.889781e+003,4.874021e-004
3.891710e+003,7.886142e-004
3.893638e+003,6.373227e-004
3.895567e+003,4.504472e-004
3.897496e+003,5.787909e-004
3.899424e+003,8.741394e-004
3.901353e+003,8.030534e-004
3.903281e+003,7.921755e-004
3.905209e+003,6.735623e-004
3.907138e+003,3.392175e-004
3.909066e+003,1.904368e-004
3.910995e+003,3.809780e-004
3.912924e+003,4.765615e-004
3.914852e+003,5.066246e-004
3.916781e+003,5.910918e-004
3.918709e+003,5.579293e-004
3.920637e+003,3.988892e-004
3.922566e+003,3.285334e-004
3.924494e+003,5.554855e-004
3.926423e+003,4.795641e-004
3.928352e+003,4.497245e-004
3.930280e+003,4.339665e-004
3.932208e+003,4.592165e-004
3.934137e+003,4.569739e-004
3.936065e+003,2.488866e-004
3.937994e+003,2.272427e-004
3.939922e+003,3.987476e-004
3.941851e+003,4.705042e-004
3.943780e+003,3.328398e-004
3.945708e+003,2.037212e-004
3.947636e+003,2.264157e-004
3.949565e+003,3.502518e-004
3.951493e+003,3.919676e-004
3.953422e+003,4.260018e-004
3.955351e+003,4.297420e-004
3.957279e+003,3.813356e-004
3.959208e+003,3.331751e-004
3.961136e+003,3.752485e-004
3.963064e+003,4.139841e-004
3.964993e+003,4.295409e-004
3.966921e+003,5.387738e-004
3.968850e+003,6.133020e-004
3.970779e+003,4.211217e-004
3.972707e+003,3.276542e-004
3.974635e+003,5.210042e-004
3.976564e+003,6.174073e-004
3.978492e+003,6.001666e-004
3.980421e+003,5.961880e-004
3.982349e+003,6.269887e-004
3.984278e+003,6.290898e-004
3.986207e+003,6.729811e-004
3.988135e+003,6.211326e-004
3.990063e+003,5.848408e-004
3.991992e+003,6.137118e-004
3.993920e+003,6.471500e-004
3.995849e+003,6.696954e-004
3.997777e+003,7.332861e-004
3.999706e+003,7.830113e-004
4.001635e+003,0.000000e+000
