3.991992e+002,0.000000e+000
4.011277e+002,0.000000e+000
4.030562e+002,0.000000e+000
4.049846e+002,0.000000e+000
4.069131e+002,0.000000e+000
4.088416e+002,0.000000e+000
4.107701e+002,0.000000e+000
4.126986e+002,0.000000e+000
4.146271e+002,0.000000e+000
4.165556e+002,0.000000e+000
4.184841e+002,0.000000e+000
4.204126e+002,0.000000e+000
4.223411e+002,0.000000e+000
4.242697e+002,0.000000e+000
4.261982e+002,0.000000e+000
4.281266e+002,0.000000e+000
4.300551e+002,0.000000e+000
4.319836e+002,0.000000e+000
4.339121e+002,0.000000e+000
4.358406e+002,0.000000e+000
4.377691e+002,0.000000e+000
4.396976e+002,0.000000e+000
4.416261e+002,0.000000e+000
4.435546e+002,0.000000e+000
4.454831e+002,0.000000e+000
4.474116e+002,0.000000e+000
4.493401e+002,0.000000e+000
4.512686e+002,0.000000e+000
4.531971e+002,0.000000e+000
4.551256e+002,0.000000e+000
4.570541e+002,0.000000e+000
4.589826e+002,0.000000e+000
4.609111e+002,0.000000e+000
4.628396e+002,0.000000e+000
4.647681e+002,0.000000e+000
4.666966e+002,0.000000e+000
4.686251e+002,0.000000e+000
4.705536e+002,0.000000e+000
4.724821e+002,0.000000e+000
4.744106e+002,0.000000e+000
4.763391e+002,0.000000e+000
4.782676e+002,0.000000e+000
4.801961e+002,0.000000e+000
4.821246e+002,0.000000e+000
4.840531e+002,0.000000e+000
4.859816e+002,0.000000e+000
4.879101e+002,0.000000e+000
4.898386e+002,0.000000e+000
4.917671e+002,0.000000e+000
4.936956e+002,0.000000e+000
4.956241e+002,0.000000e+000
4.975526e+002,0.000000e+000
4.994811e+002,0.000000e+000
5.014096e+002,0.000000e+000
5.033381e+002,0.000000e+000
5.052666e+002,0.000000e+000
5.071951e+002,0.000000e+000
5.091236e+002,0.000000e+000
5.110521e+002,0.000000e+000
5.129806e+002,0.000000e+000
5.149091e+002,0.000000e+000
5.168376e+002,0.000000e+000
5.187661e+002,0.000000e+000
5.206946e+002,0.000000e+000
5.226230e+002,0.000000e+000
5.245516e+002,2.545509e-004
5.264800e+002,2.231803e-004
5.284086e+002,2.469830e-004
5.303370e+002,3.291834e-004
5.322656e+002,2.992414e-004
5.341940e+002,2.610162e-004
5.361226e+002,4.838593e-005
5.380510e+002,-1.668260e-004
5.399796e+002,-3.260337e-004
5.419081e+002,-3.012381e-004
5.438365e+002,-2.804864e-004
5.457650e+002,-2.568625e-004
5.476935e+002,-2.421029e-004
5.496221e+002,-1.381990e-004
5.515505e+002,-1.106933e-004
5.534790e+002,-2.976507e-006
5.554075e+002,-3.376789e-005
5.573361e+002,-6.124191e-005
5.592645e+002,-1.177490e-004
5.611931e+002,-1.302380e-004
5.631215e+002,-6.276369e-005
5.650500e+002,4.346296e-005
5.669785e+002,7.059984e-005
5.689070e+002,1.291223e-004
5.708355e+002,2.607442e-004
5.727640e+002,5.276222e-004
5.746925e+002,6.285049e-004
5.766210e+002,7.532183e-004
5.785495e+002,8.007940e-004
5.804780e+002,9.324010e-004
5.824065e+002,9.238459e-004
5.843350e+002,9.064320e-004
5.862635e+002,9.348858e-004
5.881920e+002,9.818003e-004
5.901205e+002,9.498149e-004
5.920490e+002,8.746423e-004
5.939775e+002,7.707682e-004
5.959060e+002,8.603241e-004
5.978345e+002,8.777436e-004
5.997630e+002,8.588322e-004
6.016915e+002,9.177066e-004
6.036200e+002,9.503737e-004
6.055485e+002,9.229537e-004
6.074770e+002,9.210538e-004
6.094055e+002,9.074472e-004
6.113340e+002,8.614361e-004
6.132625e+002,6.783772e-004
6.151910e+002,5.803946e-004
6.171195e+002,5.374104e-004
6.190480e+002,6.350223e-004
6.209765e+002,7.484034e-004
6.229050e+002,8.575842e-004
6.248335e+002,8.303728e-004
6.267620e+002,8.478910e-004
6.286905e+002,8.169450e-004
6.306190e+002,8.719936e-004
6.325475e+002,9.157676e-004
6.344760e+002,1.021923e-003
6.364045e+002,1.077466e-003
6.383330e+002,1.219658e-003
6.402615e+002,1.233930e-003
6.421899e+002,1.308365e-003
6.441185e+002,1.365621e-003
6.460470e+002,1.373639e-003
6.479755e+002,1.321405e-003
6.499039e+002,1.412760e-003
6.518325e+002,1.463642e-003
6.537610e+002,1.554497e-003
6.556895e+002,1.618195e-003
6.576179e+002,1.698058e-003
6.595464e+002,1.810925e-003
6.614750e+002,1.984634e-003
6.634034e+002,2.030842e-003
6.653319e+002,2.144566e-003
6.672604e+002,2.299588e-003
6.691890e+002,2.518348e-003
6.711174e+002,2.687827e-003
6.730460e+002,2.966641e-003
6.749745e+002,3.195409e-003
6.769030e+002,3.416304e-003
6.788314e+002,3.652124e-003
6.807599e+002,3.886819e-003
6.826885e+002,4.143743e-003
6.846169e+002,4.446844e-003
6.865454e+002,4.744908e-003
6.884739e+002,5.131787e-003
6.904025e+002,5.451234e-003
6.923309e+002,5.792893e-003
6.942594e+002,6.109864e-003
6.961879e+002,6.349642e-003
6.981165e+002,6.504308e-003
7.000449e+002,6.701656e-003
7.019734e+002,6.867923e-003
7.039019e+002,7.176828e-003
7.058304e+002,7.450048e-003
7.077589e+002,7.873951e-003
7.096874e+002,8.375162e-003
7.116159e+002,8.972120e-003
7.135444e+002,9.650134e-003
7.154729e+002,1.045900e-002
7.174014e+002,1.136371e-002
7.193299e+002,1.257942e-002
7.212584e+002,1.357000e-002
7.231869e+002,1.375481e-002
7.251154e+002,1.311233e-002
7.270439e+002,1.211913e-002
7.289724e+002,1.108418e-002
7.309009e+002,1.018889e-002
7.328294e+002,9.262163e-003
7.347579e+002,8.467738e-003
7.366864e+002,7.760573e-003
7.386149e+002,7.161248e-003
7.405434e+002,6.529422e-003
7.424719e+002,5.991193e-003
7.444004e+002,5.490895e-003
7.463289e+002,5.089266e-003
7.482574e+002,4.693799e-003
7.501859e+002,4.373515e-003
7.521144e+002,4.077189e-003
7.540428e+002,3.883786e-003
7.559714e+002,3.723644e-003
7.578999e+002,3.694540e-003
7.598284e+002,3.718941e-003
7.617568e+002,3.767656e-003
7.636854e+002,3.708405e-003
7.656139e+002,3.714941e-003
7.675424e+002,3.609132e-003
7.694709e+002,3.539559e-003
7.713994e+002,3.393903e-003
7.733279e+002,3.213149e-003
7.752563e+002,3.060786e-003
7.771849e+002,3.017874e-003
7.791134e+002,3.062116e-003
7.810419e+002,3.113206e-003
7.829703e+002,3.124230e-003
7.848989e+002,3.296774e-003
7.868274e+002,3.524374e-003
7.887559e+002,3.791412e-003
7.906843e+002,3.992215e-003
7.926129e+002,4.228825e-003
7.945414e+002,4.509076e-003
7.964698e+002,4.921243e-003
7.983983e+002,5.327426e-003
8.003268e+002,5.894734e-003
8.022554e+002,6.726932e-003
8.041838e+002,8.296188e-003
8.061123e+002,1.061882e-002
8.080408e+002,1.263580e-002
8.099694e+002,1.253239e-002
8.118978e+002,1.052817e-002
8.138263e+002,8.198071e-003
8.157548e+002,6.891456e-003
8.176833e+002,6.280905e-003
8.196118e+002,6.092472e-003
8.215403e+002,6.017240e-003
8.234689e+002,6.140642e-003
8.253973e+002,6.305268e-003
8.273258e+002,6.673377e-003
8.292543e+002,7.067349e-003
8.311829e+002,7.643180e-003
8.331113e+002,8.486699e-003
8.350398e+002,1.023724e-002
8.369683e+002,1.458698e-002
8.388969e+002,2.379554e-002
8.408253e+002,2.931779e-002
8.427538e+002,2.238441e-002
8.446823e+002,1.389748e-002
8.466108e+002,1.017483e-002
8.485393e+002,8.708870e-003
8.504678e+002,8.005459e-003
8.523963e+002,7.584140e-003
8.543248e+002,7.293962e-003
8.562533e+002,7.054998e-003
8.581818e+002,6.905667e-003
8.601103e+002,6.743163e-003
8.620388e+002,6.622765e-003
8.639673e+002,6.542129e-003
8.658958e+002,6.536044e-003
8.678243e+002,6.535856e-003
8.697528e+002,6.611018e-003
8.716813e+002,6.569214e-003
8.736098e+002,6.525153e-003
8.755383e+002,6.446416e-003
8.774668e+002,6.415846e-003
8.793953e+002,6.311724e-003
8.813238e+002,6.275151e-003
8.832523e+002,6.385986e-003
8.851808e+002,6.668013e-003
8.871093e+002,6.909885e-003
8.890378e+002,7.154373e-003
8.909663e+002,7.471189e-003
8.928948e+002,8.266222e-003
8.948232e+002,9.818995e-003
8.967518e+002,1.215156e-002
8.986803e+002,1.365413e-002
9.006088e+002,1.285812e-002
9.025372e+002,1.048617e-002
9.044658e+002,8.467209e-003
9.063943e+002,7.396793e-003
9.083228e+002,7.005671e-003
9.102512e+002,6.723622e-003
9.121797e+002,6.540909e-003
9.141083e+002,6.388238e-003
9.160367e+002,6.334519e-003
9.179653e+002,6.344026e-003
9.198937e+002,6.350910e-003
9.218223e+002,6.275089e-003
9.237507e+002,6.314494e-003
9.256793e+002,6.380007e-003
9.276077e+002,6.521409e-003
9.295363e+002,6.588217e-003
9.314647e+002,6.852413e-003
9.333932e+002,7.245457e-003
9.353217e+002,7.884782e-003
9.372502e+002,8.779494e-003
9.391787e+002,9.640846e-003
9.411072e+002,9.757139e-003
9.430358e+002,9.508902e-003
9.449642e+002,9.322464e-003
9.468928e+002,9.305773e-003
9.488212e+002,9.440089e-003
9.507498e+002,9.742854e-003
9.526782e+002,1.007248e-002
9.546068e+002,1.065178e-002
9.565352e+002,1.129507e-002
9.584637e+002,1.204385e-002
9.603922e+002,1.296427e-002
9.623207e+002,1.415934e-002
9.642492e+002,1.578139e-002
9.661777e+002,1.865426e-002
9.681062e+002,2.422612e-002
9.700347e+002,3.324575e-002
9.719632e+002,4.013779e-002
9.738917e+002,3.793417e-002
9.758202e+002,3.009529e-002
9.777487e+002,2.295333e-002
9.796772e+002,1.812372e-002
9.816057e+002,1.547191e-002
9.835342e+002,1.425632e-002
9.854627e+002,1.404780e-002
9.873912e+002,1.450327e-002
9.893197e+002,1.582735e-002
9.912482e+002,1.844471e-002
9.931767e+002,2.341193e-002
9.951052e+002,3.099996e-002
9.970337e+002,3.693591e-002
9.989622e+002,3.457943e-002
1.000891e+003,2.668516e-002
1.002819e+003,2.025111e-002
1.004748e+003,1.684281e-002
1.006676e+003,1.510077e-002
1.008605e+003,1.424027e-002
1.010533e+003,1.378047e-002
1.012462e+003,1.356181e-002
1.014390e+003,1.347844e-002
1.016319e+003,1.354710e-002
1.018247e+003,1.361067e-002
1.020176e+003,1.377236e-002
1.022104e+003,1.390000e-002
1.024033e+003,1.401610e-002
1.025961e+003,1.413389e-002
1.027890e+003,1.433698e-002
1.029818e+003,1.451946e-002
1.031747e+003,1.475202e-002
1.033675e+003,1.495186e-002
1.035604e+003,1.510322e-002
1.037532e+003,1.509510e-002
1.039461e+003,1.522160e-002
1.041389e+003,1.567841e-002
1.043318e+003,1.632735e-002
1.045246e+003,1.654206e-002
1.047175e+003,1.630906e-002
1.049103e+003,1.599570e-002
1.051032e+003,1.597345e-002
1.052960e+003,1.611940e-002
1.054889e+003,1.647650e-002
1.056817e+003,1.679789e-002
1.058746e+003,1.711229e-002
1.060674e+003,1.731162e-002
1.062603e+003,1.760988e-002
1.064531e+003,1.782756e-002
1.066460e+003,1.801549e-002
1.068388e+003,1.821270e-002
1.070317e+003,1.860805e-002
1.072245e+003,1.921470e-002
1.074174e+003,2.009098e-002
1.076102e+003,2.122080e-002
1.078031e+003,2.264752e-002
1.079959e+003,2.417943e-002
1.081888e+003,2.565288e-002
1.083816e+003,2.689165e-002
1.085745e+003,2.813309e-002
1.087673e+003,2.936300e-002
1.089602e+003,3.080007e-002
1.091530e+003,3.223252e-002
1.093459e+003,3.355269e-002
1.095387e+003,3.449530e-002
1.097316e+003,3.525705e-002
1.099244e+003,3.577112e-002
1.101173e+003,3.602254e-002
1.103101e+003,3.546912e-002
1.105030e+003,3.417834e-002
1.106958e+003,3.293959e-002
1.108887e+003,3.261118e-002
1.110815e+003,3.300974e-002
1.112744e+003,3.401116e-002
1.114672e+003,3.515389e-002
1.116601e+003,3.606272e-002
1.118529e+003,3.630053e-002
1.120458e+003,3.580129e-002
1.122386e+003,3.450110e-002
1.124315e+003,3.291257e-002
1.126243e+003,3.159947e-002
1.128172e+003,3.125122e-002
1.130100e+003,3.203042e-002
1.132029e+003,3.403600e-002
1.133957e+003,3.699110e-002
1.135885e+003,4.069119e-002
1.137814e+003,4.457629e-002
1.139743e+003,4.833203e-002
1.141671e+003,5.145511e-002
1.143600e+003,5.403161e-002
1.145528e+003,5.634154e-002
1.147457e+003,5.895605e-002
1.149385e+003,6.183871e-002
1.151314e+003,6.475334e-002
1.153242e+003,6.708048e-002
1.155171e+003,6.915773e-002
1.157099e+003,7.130843e-002
1.159028e+003,7.375389e-002
1.160956e+003,7.647523e-002
1.162885e+003,7.982656e-002
1.164813e+003,8.315738e-002
1.166742e+003,8.451796e-002
1.168670e+003,8.060388e-002
1.170599e+003,7.232894e-002
1.172527e+003,6.379146e-002
1.174456e+003,5.741512e-002
1.176384e+003,5.287123e-002
1.178313e+003,4.957956e-002
1.180241e+003,4.690052e-002
1.182170e+003,4.468256e-002
1.184098e+003,4.274135e-002
1.186027e+003,4.112935e-002
1.187955e+003,3.962589e-002
1.189884e+003,3.832024e-002
1.191812e+003,3.699303e-002
1.193740e+003,3.575505e-002
1.195669e+003,3.452263e-002
1.197598e+003,3.344160e-002
1.199526e+003,3.249371e-002
1.201455e+003,3.184378e-002
1.203383e+003,3.132989e-002
1.205312e+003,3.111038e-002
1.207240e+003,3.102048e-002
1.209168e+003,3.108750e-002
1.211097e+003,3.115025e-002
1.213026e+003,3.134544e-002
1.214954e+003,3.164041e-002
1.216883e+003,3.215818e-002
1.218811e+003,3.259716e-002
1.220740e+003,3.283466e-002
1.222668e+003,3.284091e-002
1.224596e+003,3.304656e-002
1.226525e+003,3.340710e-002
1.228453e+003,3.390514e-002
1.230382e+003,3.433906e-002
1.232311e+003,3.489099e-002
1.234239e+003,3.531050e-002
1.236167e+003,3.568000e-002
1.238096e+003,3.582134e-002
1.240025e+003,3.581812e-002
1.241953e+003,3.547254e-002
1.243882e+003,3.492389e-002
1.245810e+003,3.404534e-002
1.247739e+003,3.313410e-002
1.249667e+003,3.237502e-002
1.251595e+003,3.245956e-002
1.253524e+003,3.335519e-002
1.255453e+003,3.360241e-002
1.257381e+003,3.192341e-002
1.259310e+003,2.983700e-002
1.261238e+003,2.823260e-002
1.263167e+003,2.716513e-002
1.265095e+003,2.628233e-002
1.267023e+003,2.560758e-002
1.268952e+003,2.496108e-002
1.270880e+003,2.455973e-002
1.272809e+003,2.433556e-002
1.274738e+003,2.441875e-002
1.276666e+003,2.448896e-002
1.278594e+003,2.455758e-002
1.280523e+003,2.434064e-002
1.282451e+003,2.392094e-002
1.284380e+003,2.325763e-002
1.286308e+003,2.272258e-002
1.288237e+003,2.246463e-002
1.290166e+003,2.279178e-002
1.292094e+003,2.336222e-002
1.294022e+003,2.411351e-002
1.295951e+003,2.447545e-002
1.297879e+003,2.451250e-002
1.299808e+003,2.465447e-002
1.301736e+003,2.586763e-002
1.303665e+003,2.722167e-002
1.305594e+003,2.629130e-002
1.307522e+003,2.337642e-002
1.309450e+003,2.146598e-002
1.311379e+003,2.070871e-002
1.313307e+003,2.061950e-002
1.315236e+003,2.060024e-002
1.317164e+003,2.084051e-002
1.319093e+003,2.098096e-002
1.321021e+003,2.126201e-002
1.322950e+003,2.154496e-002
1.324878e+003,2.211141e-002
1.326807e+003,2.233907e-002
1.328735e+003,2.243220e-002
1.330664e+003,2.195520e-002
1.332592e+003,2.138734e-002
1.334521e+003,2.095852e-002
1.336449e+003,2.115932e-002
1.338378e+003,2.161231e-002
1.340306e+003,2.272348e-002
1.342235e+003,2.361097e-002
1.344163e+003,2.490097e-002
1.346092e+003,2.640197e-002
1.348021e+003,2.851942e-002
1.349949e+003,3.092771e-002
1.351877e+003,3.457677e-002
1.353806e+003,3.963911e-002
1.355734e+003,4.693108e-002
1.357663e+003,5.231339e-002
1.359591e+003,5.288534e-002
1.361520e+003,4.877646e-002
1.363448e+003,4.538417e-002
1.365377e+003,4.520961e-002
1.367305e+003,5.070217e-002
1.369234e+003,6.592837e-002
1.371162e+003,9.421125e-002
1.373091e+003,1.359807e-001
1.375019e+003,1.749160e-001
1.376948e+003,1.586127e-001
1.378876e+003,1.134863e-001
1.380805e+003,7.530826e-002
1.382733e+003,5.058656e-002
1.384662e+003,3.591119e-002
1.386590e+003,2.726156e-002
1.388519e+003,2.216273e-002
1.390447e+003,1.962897e-002
1.392376e+003,1.837966e-002
1.394304e+003,1.736394e-002
1.396233e+003,1.702246e-002
1.398161e+003,1.688723e-002
1.400090e+003,1.721101e-002
1.402018e+003,1.722499e-002
1.403947e+003,1.712527e-002
1.405875e+003,1.654651e-002
1.407804e+003,1.635044e-002
1.409732e+003,1.661789e-002
1.411661e+003,1.774323e-002
1.413589e+003,1.919849e-002
1.415518e+003,2.059977e-002
1.417446e+003,2.135989e-002
1.419375e+003,2.132795e-002
1.421303e+003,2.101773e-002
1.423232e+003,2.115197e-002
1.425160e+003,2.201444e-002
1.427089e+003,2.372536e-002
1.429017e+003,2.727225e-002
1.430946e+003,3.419017e-002
1.432874e+003,4.329579e-002
1.434803e+003,5.079075e-002
1.436731e+003,5.349328e-002
1.438660e+003,5.426800e-002
1.440588e+003,5.791791e-002
1.442517e+003,6.577754e-002
1.444445e+003,7.815658e-002
1.446374e+003,9.330617e-002
1.448302e+003,1.105485e-001
1.450231e+003,1.197155e-001
1.452159e+003,1.247956e-001
1.454088e+003,1.276406e-001
1.456016e+003,1.299942e-001
1.457945e+003,1.273433e-001
1.459873e+003,1.244827e-001
1.461802e+003,1.197843e-001
1.463730e+003,1.126482e-001
1.465659e+003,9.715497e-002
1.467587e+003,8.186633e-002
1.469516e+003,6.555793e-002
1.471444e+003,4.941996e-002
1.473373e+003,3.080857e-002
1.475301e+003,2.360152e-002
1.477230e+003,1.852490e-002
1.479158e+003,1.571591e-002
1.481087e+003,1.337350e-002
1.483015e+003,1.170423e-002
1.484944e+003,1.042329e-002
1.486872e+003,9.570185e-003
1.488801e+003,8.592699e-003
1.490729e+003,7.964373e-003
1.492658e+003,7.445369e-003
1.494586e+003,7.271029e-003
1.496515e+003,6.717466e-003
1.498443e+003,6.329495e-003
1.500372e+003,5.859520e-003
1.502300e+003,5.626466e-003
1.504229e+003,5.409334e-003
1.506157e+003,5.245045e-003
1.508086e+003,4.699357e-003
1.510014e+003,4.731599e-003
1.511943e+003,4.581161e-003
1.513871e+003,4.586641e-003
1.515800e+003,4.522376e-003
1.517728e+003,4.392397e-003
1.519657e+003,4.205521e-003
1.521585e+003,4.038241e-003
1.523514e+003,3.969297e-003
1.525442e+003,3.928524e-003
1.527371e+003,3.826197e-003
1.529299e+003,3.844023e-003
1.531228e+003,3.815066e-003
1.533156e+003,3.884967e-003
1.535085e+003,3.814988e-003
1.537013e+003,3.848009e-003
1.538942e+003,3.728993e-003
1.540870e+003,3.716350e-003
1.542799e+003,3.676083e-003
1.544727e+003,3.687248e-003
1.546656e+003,3.625799e-003
1.548584e+003,3.730949e-003
1.550513e+003,3.702778e-003
1.552441e+003,3.702912e-003
1.554370e+003,3.661051e-003
1.556298e+003,3.579926e-003
1.558227e+003,3.119927e-003
1.560155e+003,3.104042e-003
1.562084e+003,3.288966e-003
1.564012e+003,3.352121e-003
1.565941e+003,3.309604e-003
1.567869e+003,3.361650e-003
1.569798e+003,3.302723e-003
1.571726e+003,3.255446e-003
1.573655e+003,3.245868e-003
1.575583e+003,3.217235e-003
1.577512e+003,3.186762e-003
1.579440e+003,3.211834e-003
1.581369e+003,3.217310e-003
1.583297e+003,3.251836e-003
1.585226e+003,3.291856e-003
1.587154e+003,3.329117e-003
1.589083e+003,3.314551e-003
1.591011e+003,3.361613e-003
1.592940e+003,3.418710e-003
1.594868e+003,3.464125e-003
1.596797e+003,3.455136e-003
1.598725e+003,3.498290e-003
1.600654e+003,3.572382e-003
1.602582e+003,3.645133e-003
1.604511e+003,3.709637e-003
1.606439e+003,3.769051e-003
1.608368e+003,3.753707e-003
1.610296e+003,3.831897e-003
1.612225e+003,3.922664e-003
1.614153e+003,4.014138e-003
1.616082e+003,4.082918e-003
1.618010e+003,4.118986e-003
1.619939e+003,4.150022e-003
1.621867e+003,4.238460e-003
1.623796e+003,4.333895e-003
1.625724e+003,4.419401e-003
1.627653e+003,4.532747e-003
1.629581e+003,4.683200e-003
1.631510e+003,4.797701e-003
1.633438e+003,4.873034e-003
1.635367e+003,4.933309e-003
1.637295e+003,5.044449e-003
1.639224e+003,5.165506e-003
1.641152e+003,5.372010e-003
1.643081e+003,5.636703e-003
1.645009e+003,5.929731e-003
1.646938e+003,6.405063e-003
1.648866e+003,6.603234e-003
1.650795e+003,6.648824e-003
1.652723e+003,6.418519e-003
1.654652e+003,6.690074e-003
1.656580e+003,6.786250e-003
1.658509e+003,6.663699e-003
1.660437e+003,6.464899e-003
1.662366e+003,6.135233e-003
1.664294e+003,5.968262e-003
1.666223e+003,6.000891e-003
1.668151e+003,6.048284e-003
1.670080e+003,6.001305e-003
1.672008e+003,5.914681e-003
1.673937e+003,5.993951e-003
1.675865e+003,6.180920e-003
1.677794e+003,6.391015e-003
1.679722e+003,6.546695e-003
1.681651e+003,6.663252e-003
1.683579e+003,6.694995e-003
1.685508e+003,6.943192e-003
1.687436e+003,7.261228e-003
1.689365e+003,7.656649e-003
1.691293e+003,8.054584e-003
1.693222e+003,8.406784e-003
1.695150e+003,8.950945e-003
1.697079e+003,9.717833e-003
1.699007e+003,1.010918e-002
1.700936e+003,1.108501e-002
1.702864e+003,1.188486e-002
1.704793e+003,1.271840e-002
1.706721e+003,1.376027e-002
1.708650e+003,1.454321e-002
1.710578e+003,1.530074e-002
1.712507e+003,1.617965e-002
1.714435e+003,1.702252e-002
1.716364e+003,1.815501e-002
1.718292e+003,2.024207e-002
1.720221e+003,2.222839e-002
1.722149e+003,2.437710e-002
1.724078e+003,2.787049e-002
1.726006e+003,3.187600e-002
1.727935e+003,3.694293e-002
1.729863e+003,4.444288e-002
1.731792e+003,5.223232e-002
1.733720e+003,6.583451e-002
1.735649e+003,8.571697e-002
1.737577e+003,9.675874e-002
1.739506e+003,1.148433e-001
1.741434e+003,1.305619e-001
1.743363e+003,1.402588e-001
1.745291e+003,1.435655e-001
1.747220e+003,1.400439e-001
1.749148e+003,1.277897e-001
1.751077e+003,1.091780e-001
1.753005e+003,8.935638e-002
1.754934e+003,7.460029e-002
1.756862e+003,5.634402e-002
1.758791e+003,4.242042e-002
1.760719e+003,3.285616e-002
1.762648e+003,2.363251e-002
1.764576e+003,1.845190e-002
1.766505e+003,1.521168e-002
1.768433e+003,1.224865e-002
1.770362e+003,1.053825e-002
1.772290e+003,8.758787e-003
1.774219e+003,7.523667e-003
1.776147e+003,6.766357e-003
1.778076e+003,6.224565e-003
1.780004e+003,5.725268e-003
1.781933e+003,5.216140e-003
1.783861e+003,4.904471e-003
1.785790e+003,4.563246e-003
1.787718e+003,4.269067e-003
1.789646e+003,4.088096e-003
1.791575e+003,3.797602e-003
1.793504e+003,3.417570e-003
1.795432e+003,3.294922e-003
1.797361e+003,3.173221e-003
1.799289e+003,2.963670e-003
1.801218e+003,2.701007e-003
1.803146e+003,2.592903e-003
1.805074e+003,2.444655e-003
1.807003e+003,2.263200e-003
1.808932e+003,2.115831e-003
1.810860e+003,1.878679e-003
1.812789e+003,1.607139e-003
1.814717e+003,1.326106e-003
1.816646e+003,1.096703e-003
1.818574e+003,1.342315e-003
1.820502e+003,1.478225e-003
1.822431e+003,1.511596e-003
1.824360e+003,1.460548e-003
1.826288e+003,1.380812e-003
1.828217e+003,1.343824e-003
1.830145e+003,1.161922e-003
1.832073e+003,1.014277e-003
1.834002e+003,1.005698e-003
1.835931e+003,9.694211e-004
1.837859e+003,1.006387e-003
1.839788e+003,8.993074e-004
1.841716e+003,9.249523e-004
1.843645e+003,7.713996e-004
1.845573e+003,5.945191e-004
1.847501e+003,5.184859e-004
1.849430e+003,5.121753e-004
1.851359e+003,4.884228e-004
1.853287e+003,4.254580e-004
1.855216e+003,3.555305e-004
1.857144e+003,4.142337e-004
1.859073e+003,3.728606e-004
1.861001e+003,2.749935e-004
1.862929e+003,1.890063e-004
1.864858e+003,2.464838e-004
1.866787e+003,1.478568e-004
1.868715e+003,-1.043081e-006
1.870644e+003,-1.611449e-004
1.872572e+003,-8.095056e-006
1.874500e+003,-6.934255e-005
1.876429e+003,-1.958311e-004
1.878357e+003,-1.360215e-004
1.880286e+003,-2.786145e-005
1.882215e+003,-2.793670e-004
1.884143e+003,-3.137998e-004
1.886072e+003,-3.711469e-004
1.888000e+003,-3.469698e-004
1.889928e+003,-3.449693e-004
1.891857e+003,-2.554245e-004
1.893785e+003,-5.181842e-004
1.895714e+003,-5.893707e-004
1.897643e+003,-5.549751e-004
1.899571e+003,-4.115291e-004
1.901500e+003,-4.026517e-004
1.903428e+003,-3.937744e-004
1.905356e+003,-3.849156e-004
1.907285e+003,-3.760643e-004
1.909213e+003,-3.672279e-004
1.911142e+003,-3.583916e-004
1.913071e+003,-3.495701e-004
1.914999e+003,-3.407635e-004
1.916927e+003,-3.319681e-004
1.918856e+003,-3.231764e-004
1.920784e+003,-3.143996e-004
1.922713e+003,-3.056340e-004
1.924641e+003,-2.968758e-004
1.926570e+003,-2.881251e-004
1.928499e+003,-2.793856e-004
1.930427e+003,-2.706647e-004
1.932355e+003,-2.619475e-004
1.934284e+003,-2.532378e-004
1.936212e+003,-2.445430e-004
1.938141e+003,-2.358593e-004
1.940070e+003,-2.271794e-004
1.941998e+003,-2.185181e-004
1.943927e+003,-2.098605e-004
1.945855e+003,-2.012178e-004
1.947783e+003,-1.925789e-004
1.949712e+003,-1.839586e-004
1.951640e+003,-1.753420e-004
1.953569e+003,-1.667403e-004
1.955498e+003,-1.581423e-004
1.957426e+003,-1.495630e-004
1.959354e+003,-1.409911e-004
1.961283e+003,-1.324266e-004
1.963211e+003,-1.238734e-004
1.965140e+003,-1.153350e-004
1.967068e+003,-1.068041e-004
1.968997e+003,-9.828433e-005
1.970926e+003,-8.976832e-005
1.972854e+003,-8.127093e-005
1.974782e+003,-7.278100e-005
1.976711e+003,-6.430224e-005
1.978639e+003,-5.582720e-005
1.980568e+003,-4.736707e-005
1.982496e+003,-3.892556e-005
1.984425e+003,-3.048033e-005
1.986354e+003,-2.204999e-005
1.988282e+003,-1.363084e-005
1.990210e+003,-5.222857e-006
1.992139e+003,3.173947e-006
1.994067e+003,1.156330e-005
1.995996e+003,1.993775e-005
1.997924e+003,2.830848e-005
1.999853e+003,3.666058e-005
2.001781e+003,4.500896e-005
2.003710e+003,5.334616e-005
2.005638e+003,6.167218e-005
2.007567e+003,6.998330e-005
2.009495e+003,7.829443e-005
2.011424e+003,8.658692e-005
2.013352e+003,9.487197e-005
2.015281e+003,1.031496e-004
2.017209e+003,1.114160e-004
2.019138e+003,1.196638e-004
2.021066e+003,1.279116e-004
2.022995e+003,1.361482e-004
2.024923e+003,1.443699e-004
2.026852e+003,1.525842e-004
2.028781e+003,1.607873e-004
2.030709e+003,1.689754e-004
2.032637e+003,1.771562e-004
2.034566e+003,1.853332e-004
2.036494e+003,1.934916e-004
2.038423e+003,2.016425e-004
2.040351e+003,2.097860e-004
2.042280e+003,2.179146e-004
2.044208e+003,2.260357e-004
2.046137e+003,2.341419e-004
2.048065e+003,2.422445e-004
2.049994e+003,2.503358e-004
2.051922e+003,2.584122e-004
2.053851e+003,2.664886e-004
2.055779e+003,2.745427e-004
2.057708e+003,2.825968e-004
2.059636e+003,2.906322e-004
2.061565e+003,2.986602e-004
2.063493e+003,3.066771e-004
2.065422e+003,3.146827e-004
2.067350e+003,3.226772e-004
2.069279e+003,3.306717e-004
2.071207e+003,3.386475e-004
2.073136e+003,3.466122e-004
2.075064e+003,3.545657e-004
2.076993e+003,3.625117e-004
2.078921e+003,3.704429e-004
2.080850e+003,3.783703e-004
2.082778e+003,3.862865e-004
2.084707e+003,3.941953e-004
2.086635e+003,4.020892e-004
2.088564e+003,4.099682e-004
2.090492e+003,4.178472e-004
2.092421e+003,4.257075e-004
2.094349e+003,4.335642e-004
2.096278e+003,4.414059e-004
2.098206e+003,4.492439e-004
2.100135e+003,4.570670e-004
2.102063e+003,4.648753e-004
2.103992e+003,4.726797e-004
2.105920e+003,4.804693e-004
2.107849e+003,4.882477e-004
2.109777e+003,4.960187e-004
2.111706e+003,5.037785e-004
2.113634e+003,5.115382e-004
2.115563e+003,5.192757e-004
2.117491e+003,5.270019e-004
2.119420e+003,5.347207e-004
2.121348e+003,5.424246e-004
2.123277e+003,5.501285e-004
2.125205e+003,5.578175e-004
2.127134e+003,5.654953e-004
2.129062e+003,5.731657e-004
2.130991e+003,5.808249e-004
2.132919e+003,5.884767e-004
2.134848e+003,5.961135e-004
2.136776e+003,6.037392e-004
2.138705e+003,6.113537e-004
2.140633e+003,6.189570e-004
2.142562e+003,6.265640e-004
2.144490e+003,6.341450e-004
2.146419e+003,6.417222e-004
2.148347e+003,6.492846e-004
2.150276e+003,6.568395e-004
2.152204e+003,6.643794e-004
2.154133e+003,6.719194e-004
2.156061e+003,6.794520e-004
2.157990e+003,6.869622e-004
2.159918e+003,6.944649e-004
2.161847e+003,7.019565e-004
2.163775e+003,7.094443e-004
2.165704e+003,7.169060e-004
2.167632e+003,7.243715e-004
2.169561e+003,7.318296e-004
2.171489e+003,7.392690e-004
2.173418e+003,7.467046e-004
2.175346e+003,7.541291e-004
2.177275e+003,7.615350e-004
2.179203e+003,7.689372e-004
2.181132e+003,7.763281e-004
2.183060e+003,7.837042e-004
2.184989e+003,7.910766e-004
2.186917e+003,7.984377e-004
2.188846e+003,8.057915e-004
2.190774e+003,8.131266e-004
2.192703e+003,8.204579e-004
2.194631e+003,8.277707e-004
2.196560e+003,8.350834e-004
2.198488e+003,8.423775e-004
2.200417e+003,8.496791e-004
2.202345e+003,8.569509e-004
2.204274e+003,8.642189e-004
2.206202e+003,8.714795e-004
2.208131e+003,8.787252e-004
2.210059e+003,8.859560e-004
2.211988e+003,8.931831e-004
2.213916e+003,9.003989e-004
2.215845e+003,9.075999e-004
2.217773e+003,9.148009e-004
2.219702e+003,9.219833e-004
2.221630e+003,9.291656e-004
2.223559e+003,9.363256e-004
2.225487e+003,9.434782e-004
2.227416e+003,9.506270e-004
2.229344e+003,9.577572e-004
2.231273e+003,9.648874e-004
2.233201e+003,9.719990e-004
2.235130e+003,9.790994e-004
2.237058e+003,9.861924e-004
2.238987e+003,9.932704e-004
2.240915e+003,1.000345e-003
2.242844e+003,1.007404e-003
2.244772e+003,1.014464e-003
2.246701e+003,1.021501e-003
2.248629e+003,1.028534e-003
2.250558e+003,1.035552e-003
2.252486e+003,1.042563e-003
2.254415e+003,1.049567e-003
2.256343e+003,1.056552e-003
2.258272e+003,1.063529e-003
2.260200e+003,1.070503e-003
2.262129e+003,1.077462e-003
2.264057e+003,1.084417e-003
2.265986e+003,1.091350e-003
2.267914e+003,1.098275e-003
2.269843e+003,1.105193e-003
2.271771e+003,1.112103e-003
2.273700e+003,1.119003e-003
2.275628e+003,1.125891e-003
2.277557e+003,1.132771e-003
2.279485e+003,1.139641e-003
2.281414e+003,1.146495e-003
2.283342e+003,1.153335e-003
2.285271e+003,1.160167e-003
2.287199e+003,1.166996e-003
2.289128e+003,1.173817e-003
2.291056e+003,1.180619e-003
2.292985e+003,1.187414e-003
2.294913e+003,1.194194e-003
2.296842e+003,1.200974e-003
2.298770e+003,1.207735e-003
2.300699e+003,1.214486e-003
2.302627e+003,1.221236e-003
2.304556e+003,1.227964e-003
2.306484e+003,1.234692e-003
2.308413e+003,1.241401e-003
2.310341e+003,1.248106e-003
2.312270e+003,1.254793e-003
2.314198e+003,1.261476e-003
2.316127e+003,1.268145e-003
2.318055e+003,1.274809e-003
2.319984e+003,1.281459e-003
2.321912e+003,1.288105e-003
2.323841e+003,1.294732e-003
2.325769e+003,1.301348e-003
2.327698e+003,1.307964e-003
2.329626e+003,1.314566e-003
2.331555e+003,1.321144e-003
2.333483e+003,1.327731e-003
2.335412e+003,1.334295e-003
2.337340e+003,1.340859e-003
2.339269e+003,1.347408e-003
2.341197e+003,1.353942e-003
2.343126e+003,1.360461e-003
2.345054e+003,1.366980e-003
2.346983e+003,1.373500e-003
2.348911e+003,1.379989e-003
2.350840e+003,1.386486e-003
2.352768e+003,1.392961e-003
2.354697e+003,1.399420e-003
2.356625e+003,1.405872e-003
2.358554e+003,1.412317e-003
2.360482e+003,1.418754e-003
2.362411e+003,1.425177e-003
2.364339e+003,1.431599e-003
2.366268e+003,1.437999e-003
2.368196e+003,1.444392e-003
2.370125e+003,1.450770e-003
2.372053e+003,1.457147e-003
2.373982e+003,1.463510e-003
2.375910e+003,1.469858e-003
2.377839e+003,1.476206e-003
2.379767e+003,1.482539e-003
2.381696e+003,1.488857e-003
2.383624e+003,1.495168e-003
2.385553e+003,1.501471e-003
2.387481e+003,1.507767e-003
2.389410e+003,1.514055e-003
2.391338e+003,1.520328e-003
2.393267e+003,1.526587e-003
2.395195e+003,1.532830e-003
2.397124e+003,1.539066e-003
2.399052e+003,1.545303e-003
2.400981e+003,1.532145e-003
2.402909e+003,1.407184e-003
2.404838e+003,1.410685e-003
2.406766e+003,1.596786e-003
2.408695e+003,1.846313e-003
2.410623e+003,1.755834e-003
2.412552e+003,1.751877e-003
2.414480e+003,1.792483e-003
2.416409e+003,1.762591e-003
2.418337e+003,1.834475e-003
2.420266e+003,1.934521e-003
2.422194e+003,1.882292e-003
2.424123e+003,1.940198e-003
2.426051e+003,1.972489e-003
2.427979e+003,2.140366e-003
2.429908e+003,2.350301e-003
2.431837e+003,2.238825e-003
2.433765e+003,2.034537e-003
2.435694e+003,2.112694e-003
2.437622e+003,2.112120e-003
2.439551e+003,2.093270e-003
2.441479e+003,2.129801e-003
2.443407e+003,2.065688e-003
2.445336e+003,1.965187e-003
2.447265e+003,2.083905e-003
2.449193e+003,2.059169e-003
2.451122e+003,2.055310e-003
2.453050e+003,2.169259e-003
2.454979e+003,2.152696e-003
2.456907e+003,2.094887e-003
2.458836e+003,2.068587e-003
2.460764e+003,1.925707e-003
2.462693e+003,1.906328e-003
2.464621e+003,1.743525e-003
2.466550e+003,1.699135e-003
2.468478e+003,1.696303e-003
2.470406e+003,1.659878e-003
2.472335e+003,1.769111e-003
2.474264e+003,1.917809e-003
2.476192e+003,1.872152e-003
2.478121e+003,2.033658e-003
2.480049e+003,2.080366e-003
2.481978e+003,2.034135e-003
2.483906e+003,1.951881e-003
2.485835e+003,1.904339e-003
2.487763e+003,1.978658e-003
2.489692e+003,2.088264e-003
2.491620e+003,2.164513e-003
2.493549e+003,2.223261e-003
2.495477e+003,2.165318e-003
2.497406e+003,2.289914e-003
2.499334e+003,2.331100e-003
2.501263e+003,2.205238e-003
2.503191e+003,2.169482e-003
2.505120e+003,2.228312e-003
2.507048e+003,2.195589e-003
2.508977e+003,2.245277e-003
2.510905e+003,2.269253e-003
2.512833e+003,2.301216e-003
2.514762e+003,2.378672e-003
2.516691e+003,2.542466e-003
2.518619e+003,2.573237e-003
2.520548e+003,2.569504e-003
2.522476e+003,2.641216e-003
2.524405e+003,2.905384e-003
2.526333e+003,2.983980e-003
2.528261e+003,3.067933e-003
2.530190e+003,3.125004e-003
2.532119e+003,3.258303e-003
2.534047e+003,3.462397e-003
2.535976e+003,3.477275e-003
2.537904e+003,3.315456e-003
2.539833e+003,3.406890e-003
2.541761e+003,3.639683e-003
2.543689e+003,3.745347e-003
2.545618e+003,3.751785e-003
2.547547e+003,3.772438e-003
2.549475e+003,3.680088e-003
2.551404e+003,3.752731e-003
2.553332e+003,3.900774e-003
2.555260e+003,4.018486e-003
2.557189e+003,4.185677e-003
2.559117e+003,4.416943e-003
2.561046e+003,4.475072e-003
2.562975e+003,4.659489e-003
2.564903e+003,4.755154e-003
2.566832e+003,4.866220e-003
2.568760e+003,4.985720e-003
2.570688e+003,5.274206e-003
2.572617e+003,5.566165e-003
2.574546e+003,5.898044e-003
2.576474e+003,6.267808e-003
2.578403e+003,6.658152e-003
2.580331e+003,6.890096e-003
2.582260e+003,7.032953e-003
2.584188e+003,6.877400e-003
2.586116e+003,6.639495e-003
2.588045e+003,6.385952e-003
2.589974e+003,6.201155e-003
2.591902e+003,6.078817e-003
2.593831e+003,6.126925e-003
2.595759e+003,6.126612e-003
2.597688e+003,6.196328e-003
2.599616e+003,6.278194e-003
2.601544e+003,6.328546e-003
2.603473e+003,6.517813e-003
2.605402e+003,6.819941e-003
2.607330e+003,7.125534e-003
2.609259e+003,7.380910e-003
2.611187e+003,7.529929e-003
2.613115e+003,7.803090e-003
2.615044e+003,8.004315e-003
2.616972e+003,8.065060e-003
2.618901e+003,8.125141e-003
2.620830e+003,8.161932e-003
2.622758e+003,8.166663e-003
2.624687e+003,8.270003e-003
2.626615e+003,8.292936e-003
2.628543e+003,8.335389e-003
2.630472e+003,8.389272e-003
2.632400e+003,8.428834e-003
2.634329e+003,8.442238e-003
2.636258e+003,8.510500e-003
2.638186e+003,8.700766e-003
2.640115e+003,8.903131e-003
2.642043e+003,9.032801e-003
2.643971e+003,9.243324e-003
2.645900e+003,9.476446e-003
2.647828e+003,9.607762e-003
2.649757e+003,9.774275e-003
2.651686e+003,1.002680e-002
2.653614e+003,1.023896e-002
2.655542e+003,1.043304e-002
2.657471e+003,1.058402e-002
2.659399e+003,1.067347e-002
2.661328e+003,1.060355e-002
2.663256e+003,1.040570e-002
2.665185e+003,1.014182e-002
2.667114e+003,1.005922e-002
2.669042e+003,1.012208e-002
2.670970e+003,1.021529e-002
2.672899e+003,1.034797e-002
2.674827e+003,1.039371e-002
2.676756e+003,1.040268e-002
2.678685e+003,1.045746e-002
2.680613e+003,1.047768e-002
2.682542e+003,1.045986e-002
2.684470e+003,1.039131e-002
2.686398e+003,1.032283e-002
2.688327e+003,1.024880e-002
2.690255e+003,1.017991e-002
2.692184e+003,1.015051e-002
2.694113e+003,1.005651e-002
2.696041e+003,1.001411e-002
2.697969e+003,1.013395e-002
2.699898e+003,1.019894e-002
2.701826e+003,1.037225e-002
2.703755e+003,1.060676e-002
2.705683e+003,1.083016e-002
2.707612e+003,1.116195e-002
2.709541e+003,1.158789e-002
2.711469e+003,1.205664e-002
2.713397e+003,1.271136e-002
2.715326e+003,1.348636e-002
2.717254e+003,1.438095e-002
2.719183e+003,1.535655e-002
2.721111e+003,1.603145e-002
2.723040e+003,1.608974e-002
2.724969e+003,1.567709e-002
2.726897e+003,1.497015e-002
2.728825e+003,1.426940e-002
2.730754e+003,1.368914e-002
2.732682e+003,1.327704e-002
2.734611e+003,1.291786e-002
2.736539e+003,1.253226e-002
2.738468e+003,1.210537e-002
2.740396e+003,1.176889e-002
2.742325e+003,1.152352e-002
2.744253e+003,1.129823e-002
2.746182e+003,1.121525e-002
2.748110e+003,1.113916e-002
2.750039e+003,1.102648e-002
2.751967e+003,1.102254e-002
2.753896e+003,1.113109e-002
2.755824e+003,1.134045e-002
2.757753e+003,1.156119e-002
2.759681e+003,1.174238e-002
2.761610e+003,1.193937e-002
2.763538e+003,1.218168e-002
2.765467e+003,1.241834e-002
2.767395e+003,1.263043e-002
2.769324e+003,1.284430e-002
2.771252e+003,1.311889e-002
2.773181e+003,1.350445e-002
2.775109e+003,1.405474e-002
2.777038e+003,1.461917e-002
2.778966e+003,1.516519e-002
2.780895e+003,1.583071e-002
2.782823e+003,1.662889e-002
2.784752e+003,1.758881e-002
2.786680e+003,1.871490e-002
2.788609e+003,1.995660e-002
2.790537e+003,2.122033e-002
2.792466e+003,2.237654e-002
2.794394e+003,2.334227e-002
2.796323e+003,2.418654e-002
2.798251e+003,2.507124e-002
2.800180e+003,2.624773e-002
2.802108e+003,2.791985e-002
2.804037e+003,2.996036e-002
2.805965e+003,3.209874e-002
2.807894e+003,3.411000e-002
2.809822e+003,3.605169e-002
2.811751e+003,3.804368e-002
2.813679e+003,4.018322e-002
2.815608e+003,4.274763e-002
2.817536e+003,4.591706e-002
2.819465e+003,4.983271e-002
2.821393e+003,5.471835e-002
2.823322e+003,6.092601e-002
2.825250e+003,6.917164e-002
2.827179e+003,8.056206e-002
2.829107e+003,9.689543e-002
2.831036e+003,1.204383e-001
2.832964e+003,1.515687e-001
2.834893e+003,1.849541e-001
2.836821e+003,2.103605e-001
2.838750e+003,2.208771e-001
2.840678e+003,2.181723e-001
2.842607e+003,2.104511e-001
2.844535e+003,2.065454e-001
2.846464e+003,2.109420e-001
2.848392e+003,2.224218e-001
2.850321e+003,2.358805e-001
2.852249e+003,2.449450e-001
2.854178e+003,2.454573e-001
2.856106e+003,2.385969e-001
2.858035e+003,2.305434e-001
2.859963e+003,2.285154e-001
2.861892e+003,2.357021e-001
2.863820e+003,2.460124e-001
2.865749e+003,2.485993e-001
2.867677e+003,2.413507e-001
2.869606e+003,2.311807e-001
2.871534e+003,2.225734e-001
2.873463e+003,2.169279e-001
2.875391e+003,2.147883e-001
2.877320e+003,2.133806e-001
2.879248e+003,2.097668e-001
2.881177e+003,2.053773e-001
2.883105e+003,2.026661e-001
2.885034e+003,2.024762e-001
2.886962e+003,2.045989e-001
2.888891e+003,2.089169e-001
2.890819e+003,2.160143e-001
2.892748e+003,2.268361e-001
2.894676e+003,2.419387e-001
2.896605e+003,2.615063e-001
2.898533e+003,2.849009e-001
2.900462e+003,3.110467e-001
2.902390e+003,3.388606e-001
2.904319e+003,3.670239e-001
2.906247e+003,3.937682e-001
2.908176e+003,4.201205e-001
2.910104e+003,4.517057e-001
2.912033e+003,4.942502e-001
2.913961e+003,5.449089e-001
2.915890e+003,5.881669e-001
2.917818e+003,6.062729e-001
2.919747e+003,5.983843e-001
2.921675e+003,5.766433e-001
2.923604e+003,5.482050e-001
2.925532e+003,5.124617e-001
2.927461e+003,4.689234e-001
2.929389e+003,4.211709e-001
2.931318e+003,3.750227e-001
2.933246e+003,3.344718e-001
2.935175e+003,3.017623e-001
2.937103e+003,2.783971e-001
2.939032e+003,2.661922e-001
2.940960e+003,2.675837e-001
2.942889e+003,2.839782e-001
2.944817e+003,3.129221e-001
2.946746e+003,3.454214e-001
2.948674e+003,3.665851e-001
2.950603e+003,3.640330e-001
2.952531e+003,3.419155e-001
2.954460e+003,3.175252e-001
2.956388e+003,3.033645e-001
2.958317e+003,2.982167e-001
2.960245e+003,2.900468e-001
2.962174e+003,2.673842e-001
2.964102e+003,2.329570e-001
2.966031e+003,1.971768e-001
2.967959e+003,1.647290e-001
2.969888e+003,1.359371e-001
2.971816e+003,1.115508e-001
2.973745e+003,9.180786e-002
2.975673e+003,7.623585e-002
2.977602e+003,6.399655e-002
2.979530e+003,5.435419e-002
2.981459e+003,4.680461e-002
2.983387e+003,4.103202e-002
2.985316e+003,3.649423e-002
2.987244e+003,3.304247e-002
2.989173e+003,3.051627e-002
2.991101e+003,2.873483e-002
2.993030e+003,2.784171e-002
2.994958e+003,2.787095e-002
2.996887e+003,2.871583e-002
2.998815e+003,3.011762e-002
3.000744e+003,3.145789e-002
3.002672e+003,3.237505e-002
3.004601e+003,3.263020e-002
3.006529e+003,3.195246e-002
3.008458e+003,3.021691e-002
3.010386e+003,2.770255e-002
3.012315e+003,2.468650e-002
3.014243e+003,2.155430e-002
3.016172e+003,1.866657e-002
3.018100e+003,1.614550e-002
3.020029e+003,1.397251e-002
3.021957e+003,1.228213e-002
3.023886e+003,1.094344e-002
3.025814e+003,9.837471e-003
3.027743e+003,8.941613e-003
3.029671e+003,8.258186e-003
3.031600e+003,7.694341e-003
3.033528e+003,7.193409e-003
3.035457e+003,6.899700e-003
3.037385e+003,6.573416e-003
3.039314e+003,6.212249e-003
3.041242e+003,6.030656e-003
3.043171e+003,5.870186e-003
3.045099e+003,5.659834e-003
3.047028e+003,5.493119e-003
3.048956e+003,5.348302e-003
3.050885e+003,5.208381e-003
3.052813e+003,5.177215e-003
3.054742e+003,5.157456e-003
3.056670e+003,5.072258e-003
3.058599e+003,4.940331e-003
3.060527e+003,4.885390e-003
3.062456e+003,4.839055e-003
3.064384e+003,4.740618e-003
3.066313e+003,4.722610e-003
3.068241e+003,4.747093e-003
3.070170e+003,4.596718e-003
3.072098e+003,4.378937e-003
3.074027e+003,4.195027e-003
3.075955e+003,4.046127e-003
3.077884e+003,3.966197e-003
3.079812e+003,3.912613e-003
3.081741e+003,3.872558e-003
3.083669e+003,3.735267e-003
3.085598e+003,3.563903e-003
3.087526e+003,3.660962e-003
3.089455e+003,3.706947e-003
3.091383e+003,3.669970e-003
3.093312e+003,3.580816e-003
3.095240e+003,3.539555e-003
3.097169e+003,3.440224e-003
3.099097e+003,3.326669e-003
3.101026e+003,3.380641e-003
3.102954e+003,3.448032e-003
3.104883e+003,3.323257e-003
3.106811e+003,3.316194e-003
3.108740e+003,3.250778e-003
3.110668e+003,3.183186e-003
3.112597e+003,3.186211e-003
3.114525e+003,3.271140e-003
3.116454e+003,3.296740e-003
3.118382e+003,3.297910e-003
3.120311e+003,3.258951e-003
3.122239e+003,3.258325e-003
3.124168e+003,3.345288e-003
3.126096e+003,3.455430e-003
3.128025e+003,3.499411e-003
3.129953e+003,3.523417e-003
3.131882e+003,3.512703e-003
3.133810e+003,3.518023e-003
3.135739e+003,3.570750e-003
3.137667e+003,3.659882e-003
3.139596e+003,3.733821e-003
3.141524e+003,3.753655e-003
3.143453e+003,3.732108e-003
3.145381e+003,3.688268e-003
3.147310e+003,3.632374e-003
3.149238e+003,3.630467e-003
3.151167e+003,3.652483e-003
3.153095e+003,3.662921e-003
3.155024e+003,3.613740e-003
3.156952e+003,3.581338e-003
3.158881e+003,3.486268e-003
3.160809e+003,3.415644e-003
3.162738e+003,3.486477e-003
3.164666e+003,3.566302e-003
3.166594e+003,3.532380e-003
3.168523e+003,3.537223e-003
3.170452e+003,3.533103e-003
3.172380e+003,3.601238e-003
3.174309e+003,3.661729e-003
3.176237e+003,3.634296e-003
3.178166e+003,3.647581e-003
3.180094e+003,3.710546e-003
3.182022e+003,3.782548e-003
3.183951e+003,3.856324e-003
3.185880e+003,3.919035e-003
3.187808e+003,3.966279e-003
3.189737e+003,3.965445e-003
3.191665e+003,3.963798e-003
3.193594e+003,3.931776e-003
3.195522e+003,3.886402e-003
3.197450e+003,3.866702e-003
3.199379e+003,3.807195e-003
3.201308e+003,3.771901e-003
3.203236e+003,3.817156e-003
3.205165e+003,3.835380e-003
3.207093e+003,3.753327e-003
3.209021e+003,3.665626e-003
3.210950e+003,3.546394e-003
3.212878e+003,3.436998e-003
3.214807e+003,3.382429e-003
3.216736e+003,3.359832e-003
3.218664e+003,3.345370e-003
3.220593e+003,3.274471e-003
3.222521e+003,3.054179e-003
3.224449e+003,2.864838e-003
3.226378e+003,2.867669e-003
3.228307e+003,2.753891e-003
3.230235e+003,2.571225e-003
3.232164e+003,2.583198e-003
3.234092e+003,2.589598e-003
3.236021e+003,2.594955e-003
3.237949e+003,2.594255e-003
3.239877e+003,2.531230e-003
3.241806e+003,2.520517e-003
3.243735e+003,2.476335e-003
3.245663e+003,2.435446e-003
3.247592e+003,2.409026e-003
3.249520e+003,2.393708e-003
3.251448e+003,2.434470e-003
3.253377e+003,2.533048e-003
3.255305e+003,2.618171e-003
3.257234e+003,2.621762e-003
3.259163e+003,2.591394e-003
3.261091e+003,2.551988e-003
3.263020e+003,2.615415e-003
3.264948e+003,2.724312e-003
3.266876e+003,2.716377e-003
3.268805e+003,2.708890e-003
3.270733e+003,2.752312e-003
3.272662e+003,2.802245e-003
3.274591e+003,2.790473e-003
3.276519e+003,2.793975e-003
3.278448e+003,2.743743e-003
3.280376e+003,2.745338e-003
3.282304e+003,2.795354e-003
3.284233e+003,2.897032e-003
3.286161e+003,2.855286e-003
3.288090e+003,2.852023e-003
3.290019e+003,2.914280e-003
3.291947e+003,2.997153e-003
3.293875e+003,2.942674e-003
3.295804e+003,2.866931e-003
3.297732e+003,2.817146e-003
3.299661e+003,2.795286e-003
3.301589e+003,2.801232e-003
3.303518e+003,2.816863e-003
3.305447e+003,2.850130e-003
3.307375e+003,2.931878e-003
3.309303e+003,2.927840e-003
3.311232e+003,2.818100e-003
3.313160e+003,2.793729e-003
3.315089e+003,2.864122e-003
3.317018e+003,2.884932e-003
3.318946e+003,2.857149e-003
3.320875e+003,2.907850e-003
3.322803e+003,2.863817e-003
3.324731e+003,2.849549e-003
3.326660e+003,2.948113e-003
3.328588e+003,2.976395e-003
3.330517e+003,2.910756e-003
3.332446e+003,2.972797e-003
3.334374e+003,3.055505e-003
3.336302e+003,3.009200e-003
3.338231e+003,3.061824e-003
3.340159e+003,3.162645e-003
3.342088e+003,3.111191e-003
3.344016e+003,2.976917e-003
3.345945e+003,2.988026e-003
3.347874e+003,3.078580e-003
3.349802e+003,3.048927e-003
3.351730e+003,3.030606e-003
3.353659e+003,2.964042e-003
3.355587e+003,2.947755e-003
3.357516e+003,3.009811e-003
3.359444e+003,3.049150e-003
3.361373e+003,3.003895e-003
3.363302e+003,2.890550e-003
3.365230e+003,2.905838e-003
3.367158e+003,2.968572e-003
3.369087e+003,2.966464e-003
3.371015e+003,2.934791e-003
3.372944e+003,2.860554e-003
3.374872e+003,2.887160e-003
3.376801e+003,2.913900e-003
3.378729e+003,2.844401e-003
3.380658e+003,2.790451e-003
3.382586e+003,2.700463e-003
3.384515e+003,2.648860e-003
3.386443e+003,2.627186e-003
3.388372e+003,2.578355e-003
3.390300e+003,2.630562e-003
3.392229e+003,2.737679e-003
3.394157e+003,2.730593e-003
3.396086e+003,2.670966e-003
3.398014e+003,2.678208e-003
3.399943e+003,2.751373e-003
3.401871e+003,2.693906e-003
3.403800e+003,2.651170e-003
3.405728e+003,2.693385e-003
3.407657e+003,2.808765e-003
3.409585e+003,2.824262e-003
3.411514e+003,2.866127e-003
3.413442e+003,2.857655e-003
3.415371e+003,2.745584e-003
3.417299e+003,2.639659e-003
3.419228e+003,2.649486e-003
3.421156e+003,2.691083e-003
3.423085e+003,2.714343e-003
3.425013e+003,2.710901e-003
3.426942e+003,2.652392e-003
3.428870e+003,2.605461e-003
3.430799e+003,2.646491e-003
3.432727e+003,2.668783e-003
3.434656e+003,2.714008e-003
3.436584e+003,2.845429e-003
3.438513e+003,2.828971e-003
3.440441e+003,2.800971e-003
3.442370e+003,2.812564e-003
3.444298e+003,2.731957e-003
3.446227e+003,2.756767e-003
3.448155e+003,2.699047e-003
3.450084e+003,2.644293e-003
3.452012e+003,2.743639e-003
3.453941e+003,2.912611e-003
3.455869e+003,3.047600e-003
3.457798e+003,3.157236e-003
3.459726e+003,3.172167e-003
3.461655e+003,3.209867e-003
3.463583e+003,3.196567e-003
3.465512e+003,3.231220e-003
3.467440e+003,3.240317e-003
3.469369e+003,3.230177e-003
3.471297e+003,3.223814e-003
3.473226e+003,3.243685e-003
3.475154e+003,3.244072e-003
3.477083e+003,3.210403e-003
3.479011e+003,3.120944e-003
3.480940e+003,3.068961e-003
3.482868e+003,3.065884e-003
3.484797e+003,3.032029e-003
3.486725e+003,2.875745e-003
3.488654e+003,2.633192e-003
3.490582e+003,2.599768e-003
3.492511e+003,2.616964e-003
3.494439e+003,2.590254e-003
3.496368e+003,2.545238e-003
3.498296e+003,2.446689e-003
3.500225e+003,2.417095e-003
3.502153e+003,2.519995e-003
3.504082e+003,2.408870e-003
3.506010e+003,2.305679e-003
3.507939e+003,2.336711e-003
3.509867e+003,2.198040e-003
3.511796e+003,2.127893e-003
3.513724e+003,2.127089e-003
3.515653e+003,2.109803e-003
3.517581e+003,2.077438e-003
3.519510e+003,2.123050e-003
3.521438e+003,2.212569e-003
3.523367e+003,2.163410e-003
3.525295e+003,2.023384e-003
3.527224e+003,1.871616e-003
3.529152e+003,1.727775e-003
3.531081e+003,1.766160e-003
3.533009e+003,1.719221e-003
3.534938e+003,1.783222e-003
3.536866e+003,1.773402e-003
3.538795e+003,1.729712e-003
3.540723e+003,1.814157e-003
3.542652e+003,1.855075e-003
3.544580e+003,1.796462e-003
3.546509e+003,1.775675e-003
3.548437e+003,1.449414e-003
3.550366e+003,1.310319e-003
3.552294e+003,1.340128e-003
3.554223e+003,1.241550e-003
3.556151e+003,1.162700e-003
3.558080e+003,1.217648e-003
3.560008e+003,1.297906e-003
3.561937e+003,1.175448e-003
3.563865e+003,1.043193e-003
3.565794e+003,1.096666e-003
3.567722e+003,5.710497e-004
3.569651e+003,2.140403e-004
3.571579e+003,3.038570e-004
3.573508e+003,3.365725e-004
3.575436e+003,2.400056e-004
3.577365e+003,2.295896e-004
3.579293e+003,2.961084e-004
3.581222e+003,4.335418e-004
3.583150e+003,4.335418e-004
3.585079e+003,4.121736e-004
3.587007e+003,2.659634e-004
3.588936e+003,-1.368970e-004
3.590864e+003,-1.720563e-004
3.592793e+003,-9.390712e-005
3.594721e+003,5.111098e-006
3.596650e+003,-2.578124e-004
3.598578e+003,-2.804399e-004
3.600507e+003,-1.504347e-004
3.602435e+003,-4.861504e-005
3.604364e+003,3.946573e-005
3.606292e+003,2.538860e-004
3.608221e+003,3.891662e-004
3.610149e+003,1.982823e-004
3.612078e+003,1.813844e-004
3.614006e+003,-5.631894e-005
3.615935e+003,-1.155734e-004
3.617863e+003,-2.636015e-005
3.619792e+003,-1.683459e-004
3.621720e+003,-4.500970e-004
3.623649e+003,-5.084351e-004
3.625577e+003,-2.214760e-004
3.627506e+003,4.459843e-004
3.629434e+003,2.569705e-004
3.631363e+003,-3.078878e-004
3.633291e+003,-4.805177e-004
3.635220e+003,-4.437938e-004
3.637148e+003,-3.960207e-004
3.639077e+003,-3.937036e-004
3.641005e+003,-1.087189e-004
3.642934e+003,-3.100112e-004
3.644862e+003,-1.607165e-004
3.646791e+003,7.318780e-004
3.648719e+003,7.671937e-004
3.650648e+003,-4.457980e-004
3.652576e+003,-8.122697e-004
3.654505e+003,-5.300269e-004
3.656433e+003,-6.678924e-004
3.658362e+003,-7.866696e-004
3.660290e+003,-6.555319e-004
3.662219e+003,-4.120991e-004
3.664147e+003,-2.878532e-004
3.666076e+003,-2.376214e-004
3.668004e+003,2.254993e-004
3.669933e+003,5.703047e-004
3.671861e+003,1.247153e-004
3.673790e+003,3.182516e-004
3.675718e+003,-2.947301e-004
3.677647e+003,-8.371323e-004
3.679575e+003,-9.209812e-004
3.681504e+003,-6.068423e-004
3.683432e+003,-1.339465e-004
3.685361e+003,1.403987e-004
3.687289e+003,1.673102e-004
3.689218e+003,-1.330897e-004
3.691146e+003,-2.282336e-004
3.693075e+003,-3.448203e-004
3.695003e+003,-2.230853e-004
3.696932e+003,-2.147034e-004
3.698860e+003,-2.146512e-004
3.700789e+003,-1.365170e-004
3.702717e+003,-3.755391e-004
3.704646e+003,-2.767742e-004
3.706574e+003,4.213303e-005
3.708503e+003,3.440231e-004
3.710431e+003,4.980341e-004
3.712360e+003,-3.113076e-004
3.714288e+003,-4.816800e-004
3.716217e+003,-3.477335e-004
3.718145e+003,-3.129691e-004
3.720074e+003,-5.579740e-005
3.722002e+003,2.302751e-004
3.723931e+003,2.427921e-004
3.725859e+003,4.306436e-006
3.727788e+003,-1.300648e-004
3.729716e+003,3.566891e-004
3.731645e+003,9.023771e-004
3.733573e+003,1.004018e-003
3.735502e+003,3.787950e-004
3.737430e+003,-4.254431e-004
3.739359e+003,-7.756799e-005
3.741287e+003,1.302510e-004
3.743216e+003,3.445223e-004
3.745144e+003,6.093830e-005
3.747073e+003,2.926812e-004
3.749001e+003,5.208477e-004
3.750930e+003,3.981590e-005
3.752858e+003,-2.528131e-004
3.754787e+003,-4.518032e-005
3.756715e+003,1.434758e-004
3.758644e+003,1.632422e-004
3.760572e+003,8.024275e-006
3.762501e+003,-9.812415e-006
3.764429e+003,1.022592e-004
3.766358e+003,7.355958e-005
3.768286e+003,1.774132e-004
3.770215e+003,-3.299862e-005
3.772143e+003,-6.833673e-005
3.774072e+003,1.043081e-005
3.776000e+003,1.610294e-004
3.777929e+003,3.613457e-004
3.779857e+003,2.718419e-004
3.781786e+003,-1.021251e-004
3.783714e+003,-1.475289e-004
3.785643e+003,3.055483e-005
3.787571e+003,-2.431124e-005
3.789500e+003,-7.363409e-005
3.791428e+003,1.725107e-004
3.793357e+003,2.580509e-004
3.795285e+003,5.058721e-004
3.797214e+003,2.950504e-004
3.799142e+003,1.938939e-004
3.801071e+003,3.829226e-004
3.802999e+003,-5.070120e-005
3.804927e+003,-2.227724e-006
3.806856e+003,-1.840293e-005
3.808785e+003,-2.356023e-004
3.810713e+003,2.063811e-005
3.812642e+003,3.043637e-004
3.814570e+003,7.470027e-004
3.816499e+003,3.888607e-004
3.818427e+003,9.503216e-005
3.820355e+003,1.171902e-004
3.822284e+003,-5.144626e-005
3.824213e+003,-9.015203e-005
3.826141e+003,9.299815e-005
3.828070e+003,1.111180e-004
3.829998e+003,1.762733e-004
3.831927e+003,1.186654e-004
3.833855e+003,2.250969e-004
3.835783e+003,4.873276e-004
3.837712e+003,2.835840e-004
3.839641e+003,-1.046956e-004
3.841569e+003,-3.061816e-004
3.843498e+003,-3.223643e-004
3.845426e+003,-3.567412e-004
3.847354e+003,-1.101419e-004
3.849283e+003,3.937036e-004
3.851211e+003,7.904544e-004
3.853140e+003,8.688867e-005
3.855069e+003,-7.434711e-004
3.856997e+003,-4.902706e-004
3.858926e+003,-4.726648e-005
3.860854e+003,2.282783e-004
3.862782e+003,3.056675e-004
3.864711e+003,4.467666e-004
3.866640e+003,-5.160272e-005
3.868568e+003,-5.324930e-005
3.870497e+003,-4.301295e-004
3.872425e+003,-3.416315e-004
3.874354e+003,-2.022237e-004
3.876282e+003,-3.013015e-005
3.878210e+003,1.387075e-004
3.880139e+003,2.899542e-004
3.882068e+003,4.135072e-005
3.883996e+003,2.855211e-004
3.885925e+003,1.586005e-004
3.887853e+003,-1.622662e-004
3.889781e+003,3.878772e-005
3.891710e+003,1.134127e-004
3.893638e+003,-1.274794e-005
3.895567e+003,-7.748604e-006
3.897496e+003,3.008470e-004
3.899424e+003,5.751550e-004
3.901353e+003,3.700554e-004
3.903281e+003,7.352233e-005
3.905209e+003,-3.705695e-004
3.907138e+003,-4.773289e-004
3.909066e+003,-2.575889e-004
3.910995e+003,3.054738e-006
3.912924e+003,2.542883e-005
3.914852e+003,1.949742e-004
3.916781e+003,1.918972e-004
3.918709e+003,-6.288290e-006
3.920637e+003,-9.422004e-005
3.922566e+003,1.039281e-004
3.924494e+003,1.784191e-004
3.926423e+003,-1.008064e-005
3.928352e+003,7.992238e-005
3.930280e+003,2.226904e-004
3.932208e+003,1.014248e-004
3.934137e+003,-1.502037e-004
3.936065e+003,-1.436621e-004
3.937994e+003,-2.867728e-005
3.939922e+003,1.672879e-004
3.941851e+003,2.550185e-004
3.943780e+003,-3.406405e-005
3.945708e+003,-1.074895e-004
3.947636e+003,-3.360212e-006
3.949565e+003,5.436689e-005
3.951493e+003,1.639128e-005
3.953422e+003,-4.630536e-005
3.955351e+003,-1.370907e-006
3.957279e+003,4.708022e-005
3.959208e+003,8.180737e-006
3.961136e+003,1.852959e-005
3.963064e+003,6.580353e-005
3.964993e+003,7.772446e-005
3.966921e+003,1.863316e-004
3.968850e+003,2.398863e-004
3.970779e+003,1.110137e-004
3.972707e+003,-4.151464e-005
3.974635e+003,-1.674891e-005
3.976564e+003,9.679794e-005
3.978492e+003,1.206845e-004
3.980421e+003,1.563653e-004
3.982349e+003,2.129897e-004
3.984278e+003,1.540184e-004
3.986207e+003,2.240688e-004
3.988135e+003,3.101975e-004
3.990063e+003,3.363118e-004
3.991992e+003,4.387796e-004
3.993920e+003,4.714653e-004
3.995849e+003,4.156753e-004
3.997777e+003,3.782660e-004
3.999706e+003,3.838614e-004
4.001635e+003,0.000000e+000
