3.991992e+002,0.000000e+000
4.011277e+002,0.000000e+000
4.030562e+002,0.000000e+000
4.049846e+002,0.000000e+000
4.069131e+002,0.000000e+000
4.088416e+002,0.000000e+000
4.107701e+002,0.000000e+000
4.126986e+002,0.000000e+000
4.146271e+002,0.000000e+000
4.165556e+002,0.000000e+000
4.184841e+002,0.000000e+000
4.204126e+002,0.000000e+000
4.223411e+002,0.000000e+000
4.242697e+002,0.000000e+000
4.261982e+002,0.000000e+000
4.281266e+002,0.000000e+000
4.300551e+002,0.000000e+000
4.319836e+002,0.000000e+000
4.339121e+002,0.000000e+000
4.358406e+002,0.000000e+000
4.377691e+002,0.000000e+000
4.396976e+002,0.000000e+000
4.416261e+002,0.000000e+000
4.435546e+002,0.000000e+000
4.454831e+002,0.000000e+000
4.474116e+002,0.000000e+000
4.493401e+002,0.000000e+000
4.512686e+002,0.000000e+000
4.531971e+002,0.000000e+000
4.551256e+002,0.000000e+000
4.570541e+002,0.000000e+000
4.589826e+002,0.000000e+000
4.609111e+002,0.000000e+000
4.628396e+002,0.000000e+000
4.647681e+002,0.000000e+000
4.666966e+002,0.000000e+000
4.686251e+002,0.000000e+000
4.705536e+002,0.000000e+000
4.724821e+002,0.000000e+000
4.744106e+002,0.000000e+000
4.763391e+002,0.000000e+000
4.782676e+002,0.000000e+000
4.801961e+002,0.000000e+000
4.821246e+002,0.000000e+000
4.840531e+002,0.000000e+000
4.859816e+002,0.000000e+000
4.879101e+002,0.000000e+000
4.898386e+002,0.000000e+000
4.917671e+002,0.000000e+000
4.936956e+002,0.000000e+000
4.956241e+002,0.000000e+000
4.975526e+002,0.000000e+000
4.994811e+002,0.000000e+000
5.014096e+002,0.000000e+000
5.033381e+002,0.000000e+000
5.052666e+002,0.000000e+000
5.071951e+002,0.000000e+000
5.091236e+002,0.000000e+000
5.110521e+002,0.000000e+000
5.129806e+002,0.000000e+000
5.149091e+002,0.000000e+000
5.168376e+002,0.000000e+000
5.187661e+002,0.000000e+000
5.206946e+002,0.000000e+000
5.226230e+002,0.000000e+000
5.245516e+002,2.936814e-004
5.264800e+002,3.303587e-004
5.284086e+002,2.831724e-004
5.303370e+002,2.537332e-004
5.322656e+002,1.955926e-004
5.341940e+002,1.728833e-004
5.361226e+002,2.145953e-005
5.380510e+002,-1.165196e-004
5.399796e+002,-2.230331e-004
5.419081e+002,-3.448129e-004
5.438365e+002,-5.151816e-004
5.457650e+002,-4.366189e-004
5.476935e+002,-3.592223e-004
5.496221e+002,-2.233330e-004
5.515505e+002,-1.329314e-004
5.534790e+002,2.286211e-005
5.554075e+002,7.837079e-005
5.573361e+002,6.443076e-005
5.592645e+002,-1.652986e-004
5.611931e+002,-3.168378e-004
5.631215e+002,-4.043411e-004
5.650500e+002,-4.036613e-004
5.669785e+002,-4.000049e-004
5.689070e+002,-4.437398e-004
5.708355e+002,-5.007647e-004
5.727640e+002,-3.819969e-004
5.746925e+002,-4.302114e-004
5.766210e+002,-4.073996e-004
5.785495e+002,-3.653243e-004
5.804780e+002,-3.223643e-004
5.824065e+002,-3.736354e-004
5.843350e+002,-3.159214e-004
5.862635e+002,-3.179479e-004
5.881920e+002,-3.183782e-004
5.901205e+002,-2.688505e-004
5.920490e+002,-3.144983e-004
5.939775e+002,-4.459508e-004
5.959060e+002,-3.558360e-004
5.978345e+002,-3.119726e-004
5.997630e+002,-3.071427e-004
6.016915e+002,-2.116021e-004
6.036200e+002,-1.787394e-004
6.055485e+002,-1.915544e-004
6.074770e+002,-7.222779e-005
6.094055e+002,-6.719492e-005
6.113340e+002,-9.777583e-005
6.132625e+002,-1.998283e-004
6.151910e+002,-2.388973e-004
6.171195e+002,-1.232792e-004
6.190480e+002,4.657358e-005
6.209765e+002,1.937877e-004
6.229050e+002,3.748853e-004
6.248335e+002,4.061460e-004
6.267620e+002,4.295185e-004
6.286905e+002,3.604386e-004
6.306190e+002,3.768373e-004
6.325475e+002,4.280880e-004
6.344760e+002,5.931538e-004
6.364045e+002,6.564036e-004
6.383330e+002,7.611234e-004
6.402615e+002,6.942656e-004
6.421899e+002,5.910546e-004
6.441185e+002,4.660152e-004
6.460470e+002,3.772676e-004
6.479755e+002,2.448056e-004
6.499039e+002,3.068745e-004
6.518325e+002,3.634263e-004
6.537610e+002,4.352592e-004
6.556895e+002,3.267750e-004
6.576179e+002,2.689864e-004
6.595464e+002,2.383590e-004
6.614750e+002,2.650321e-004
6.634034e+002,2.434477e-004
6.653319e+002,2.481975e-004
6.672604e+002,2.685878e-004
6.691890e+002,3.298130e-004
6.711174e+002,3.131386e-004
6.730460e+002,3.181174e-004
6.749745e+002,2.792627e-004
6.769030e+002,2.694111e-004
6.788314e+002,2.680030e-004
6.807599e+002,2.288315e-004
6.826885e+002,1.792070e-004
6.846169e+002,2.183598e-004
6.865454e+002,2.964046e-004
6.884739e+002,3.870651e-004
6.904025e+002,3.521666e-004
6.923309e+002,3.818702e-004
6.942594e+002,4.727747e-004
6.961879e+002,5.594157e-004
6.981165e+002,6.157458e-004
7.000449e+002,6.725378e-004
7.019734e+002,6.396975e-004
7.039019e+002,6.682314e-004
7.058304e+002,6.490555e-004
7.077589e+002,7.417016e-004
7.096874e+002,7.750019e-004
7.116159e+002,7.755049e-004
7.135444e+002,8.534025e-004
7.154729e+002,9.714253e-004
7.174014e+002,9.890143e-004
7.193299e+002,1.078589e-003
7.212584e+002,1.119530e-003
7.231869e+002,1.120690e-003
7.251154e+002,1.060247e-003
7.270439e+002,1.040541e-003
7.289724e+002,1.011418e-003
7.309009e+002,1.023315e-003
7.328294e+002,8.894634e-004
7.347579e+002,8.285455e-004
7.366864e+002,8.292813e-004
7.386149e+002,8.395556e-004
7.405434e+002,8.336995e-004
7.424719e+002,8.328352e-004
7.444004e+002,8.034986e-004
7.463289e+002,8.020382e-004
7.482574e+002,7.463861e-004
7.501859e+002,7.488094e-004
7.521144e+002,7.467736e-004
7.540428e+002,7.885117e-004
7.559714e+002,8.058324e-004
7.578999e+002,8.632559e-004
7.598284e+002,8.710586e-004
7.617568e+002,9.123571e-004
7.636854e+002,9.199977e-004
7.656139e+002,1.015041e-003
7.675424e+002,1.085611e-003
7.694709e+002,1.158558e-003
7.713994e+002,1.156909e-003
7.733279e+002,1.135416e-003
7.752563e+002,1.084959e-003
7.771849e+002,1.148898e-003
7.791134e+002,1.261054e-003
7.810419e+002,1.420554e-003
7.829703e+002,1.535740e-003
7.848989e+002,1.693333e-003
7.868274e+002,1.928151e-003
7.887559e+002,2.211811e-003
7.906843e+002,2.392016e-003
7.926129e+002,2.581693e-003
7.945414e+002,2.763063e-003
7.964698e+002,3.072677e-003
7.983983e+002,3.408018e-003
8.003268e+002,3.841178e-003
8.022554e+002,4.512766e-003
8.041838e+002,5.692476e-003
8.061123e+002,7.357409e-003
8.080408e+002,8.792210e-003
8.099694e+002,8.684389e-003
8.118978e+002,7.140340e-003
8.138263e+002,5.285846e-003
8.157548e+002,4.155429e-003
8.176833e+002,3.621224e-003
8.196118e+002,3.470952e-003
8.215403e+002,3.368208e-003
8.234689e+002,3.442187e-003
8.253973e+002,3.526494e-003
8.273258e+002,3.717322e-003
8.292543e+002,3.948906e-003
8.311829e+002,4.393345e-003
8.331113e+002,5.032334e-003
8.350398e+002,6.268928e-003
8.369683e+002,9.364273e-003
8.388969e+002,1.613323e-002
8.408253e+002,2.010265e-002
8.427538e+002,1.473768e-002
8.446823e+002,8.239239e-003
8.466108e+002,5.348269e-003
8.485393e+002,4.201366e-003
8.504678e+002,3.661586e-003
8.523963e+002,3.336204e-003
8.543248e+002,3.149085e-003
8.562533e+002,2.957527e-003
8.581818e+002,2.826253e-003
8.601103e+002,2.757916e-003
8.620388e+002,2.614276e-003
8.639673e+002,2.547612e-003
8.658958e+002,2.588809e-003
8.678243e+002,2.593832e-003
8.697528e+002,2.652941e-003
8.716813e+002,2.572039e-003
8.736098e+002,2.551390e-003
8.755383e+002,2.551174e-003
8.774668e+002,2.543088e-003
8.793953e+002,2.517695e-003
8.813238e+002,2.538688e-003
8.832523e+002,2.613299e-003
8.851808e+002,2.794262e-003
8.871093e+002,2.930479e-003
8.890378e+002,3.166389e-003
8.909663e+002,3.433958e-003
8.928948e+002,4.109727e-003
8.948232e+002,5.389638e-003
8.967518e+002,7.216878e-003
8.986803e+002,8.379005e-003
9.006088e+002,7.719290e-003
9.025372e+002,5.792748e-003
9.044658e+002,4.163070e-003
9.063943e+002,3.272127e-003
9.083228e+002,2.887005e-003
9.102512e+002,2.660559e-003
9.121797e+002,2.617402e-003
9.141083e+002,2.548130e-003
9.160367e+002,2.438469e-003
9.179653e+002,2.453016e-003
9.198937e+002,2.556449e-003
9.218223e+002,2.545645e-003
9.237507e+002,2.524739e-003
9.256793e+002,2.510060e-003
9.276077e+002,2.602195e-003
9.295363e+002,2.679791e-003
9.314647e+002,2.817690e-003
9.333932e+002,3.036704e-003
9.353217e+002,3.431927e-003
9.372502e+002,4.016835e-003
9.391787e+002,4.564062e-003
9.411072e+002,4.522678e-003
9.430358e+002,4.206972e-003
9.449642e+002,3.953498e-003
9.468928e+002,3.869310e-003
9.488212e+002,3.893424e-003
9.507498e+002,4.029186e-003
9.526782e+002,4.188318e-003
9.546068e+002,4.601020e-003
9.565352e+002,5.000640e-003
9.584637e+002,5.415384e-003
9.603922e+002,5.974349e-003
9.623207e+002,6.839976e-003
9.642492e+002,8.061998e-003
9.661777e+002,1.020324e-002
9.681062e+002,1.432487e-002
9.700347e+002,2.092828e-002
9.719632e+002,2.594089e-002
9.738917e+002,2.433669e-002
9.758202e+002,1.850733e-002
9.777487e+002,1.311924e-002
9.796772e+002,9.486530e-003
9.816057e+002,7.474393e-003
9.835342e+002,6.566048e-003
9.854627e+002,6.457929e-003
9.873912e+002,6.852195e-003
9.893197e+002,7.878270e-003
9.912482e+002,9.836592e-003
9.931767e+002,1.350577e-002
9.951052e+002,1.898669e-002
9.970337e+002,2.311455e-002
9.989622e+002,2.117675e-002
1.000891e+003,1.522683e-002
1.002819e+003,1.039362e-002
1.004748e+003,7.844590e-003
1.006676e+003,6.509990e-003
1.008605e+003,5.807038e-003
1.010533e+003,5.404226e-003
1.012462e+003,5.197629e-003
1.014390e+003,5.034484e-003
1.016319e+003,5.006265e-003
1.018247e+003,4.940536e-003
1.020176e+003,4.886020e-003
1.022104e+003,4.807439e-003
1.024033e+003,4.755858e-003
1.025961e+003,4.739929e-003
1.027890e+003,4.788850e-003
1.029818e+003,4.851475e-003
1.031747e+003,4.986808e-003
1.033675e+003,5.100161e-003
1.035604e+003,5.187031e-003
1.037532e+003,5.213693e-003
1.039461e+003,5.390521e-003
1.041389e+003,5.758628e-003
1.043318e+003,6.172817e-003
1.045246e+003,6.153472e-003
1.047175e+003,5.790502e-003
1.049103e+003,5.367845e-003
1.051032e+003,5.154938e-003
1.052960e+003,4.954509e-003
1.054889e+003,4.870482e-003
1.056817e+003,4.845675e-003
1.058746e+003,4.870433e-003
1.060674e+003,4.781105e-003
1.062603e+003,4.744913e-003
1.064531e+003,4.753821e-003
1.066460e+003,4.764196e-003
1.068388e+003,4.753992e-003
1.070317e+003,4.822291e-003
1.072245e+003,4.827973e-003
1.074174e+003,4.874319e-003
1.076102e+003,4.955679e-003
1.078031e+003,5.086347e-003
1.079959e+003,5.160566e-003
1.081888e+003,5.312972e-003
1.083816e+003,5.376101e-003
1.085745e+003,5.468655e-003
1.087673e+003,5.544059e-003
1.089602e+003,5.728584e-003
1.091530e+003,5.955789e-003
1.093459e+003,6.283820e-003
1.095387e+003,6.612387e-003
1.097316e+003,7.177215e-003
1.099244e+003,7.860199e-003
1.101173e+003,8.515239e-003
1.103101e+003,8.615077e-003
1.105030e+003,8.124135e-003
1.106958e+003,7.414442e-003
1.108887e+003,6.976299e-003
1.110815e+003,6.726049e-003
1.112744e+003,6.666381e-003
1.114672e+003,6.612804e-003
1.116601e+003,6.631058e-003
1.118529e+003,6.640758e-003
1.120458e+003,6.728861e-003
1.122386e+003,6.790895e-003
1.124315e+003,6.891273e-003
1.126243e+003,7.009089e-003
1.128172e+003,7.220697e-003
1.130100e+003,7.456083e-003
1.132029e+003,7.835079e-003
1.133957e+003,8.222736e-003
1.135885e+003,8.736633e-003
1.137814e+003,9.342410e-003
1.139743e+003,1.010918e-002
1.141671e+003,1.093951e-002
1.143600e+003,1.184557e-002
1.145528e+003,1.289231e-002
1.147457e+003,1.425024e-002
1.149385e+003,1.565637e-002
1.151314e+003,1.687405e-002
1.153242e+003,1.752943e-002
1.155171e+003,1.792716e-002
1.157099e+003,1.840543e-002
1.159028e+003,1.931643e-002
1.160956e+003,2.070867e-002
1.162885e+003,2.291018e-002
1.164813e+003,2.559014e-002
1.166742e+003,2.721730e-002
1.168670e+003,2.527058e-002
1.170599e+003,2.018018e-002
1.172527e+003,1.494350e-002
1.174456e+003,1.143562e-002
1.176384e+003,9.363111e-003
1.178313e+003,8.235861e-003
1.180241e+003,7.621948e-003
1.182170e+003,7.357221e-003
1.184098e+003,7.246941e-003
1.186027e+003,7.291418e-003
1.187955e+003,7.365871e-003
1.189884e+003,7.518645e-003
1.191812e+003,7.675074e-003
1.193740e+003,7.891174e-003
1.195669e+003,8.035038e-003
1.197598e+003,8.199435e-003
1.199526e+003,8.334477e-003
1.201455e+003,8.520093e-003
1.203383e+003,8.675564e-003
1.205312e+003,8.879088e-003
1.207240e+003,9.018473e-003
1.209168e+003,9.194542e-003
1.211097e+003,9.353671e-003
1.213026e+003,9.607669e-003
1.214954e+003,9.863622e-003
1.216883e+003,1.015151e-002
1.218811e+003,1.027792e-002
1.220740e+003,1.018996e-002
1.222668e+003,9.851791e-003
1.224596e+003,9.538013e-003
1.226525e+003,9.313747e-003
1.228453e+003,9.265456e-003
1.230382e+003,9.218037e-003
1.232311e+003,9.251274e-003
1.234239e+003,9.246282e-003
1.236167e+003,9.266481e-003
1.238096e+003,9.238478e-003
1.240025e+003,9.208933e-003
1.241953e+003,9.110320e-003
1.243882e+003,9.082802e-003
1.245810e+003,8.988868e-003
1.247739e+003,8.998714e-003
1.249667e+003,9.131778e-003
1.251595e+003,9.727754e-003
1.253524e+003,1.069647e-002
1.255453e+003,1.101523e-002
1.257381e+003,9.854078e-003
1.259310e+003,8.430660e-003
1.261238e+003,7.377170e-003
1.263167e+003,6.752711e-003
1.265095e+003,6.248422e-003
1.267023e+003,5.894132e-003
1.268952e+003,5.623545e-003
1.270880e+003,5.507596e-003
1.272809e+003,5.435362e-003
1.274738e+003,5.476937e-003
1.276666e+003,5.487591e-003
1.278594e+003,5.606879e-003
1.280523e+003,5.698454e-003
1.282451e+003,5.836181e-003
1.284380e+003,5.965784e-003
1.286308e+003,6.195009e-003
1.288237e+003,6.460391e-003
1.290166e+003,6.930277e-003
1.292094e+003,7.450890e-003
1.294022e+003,8.045167e-003
1.295951e+003,8.315410e-003
1.297879e+003,8.329097e-003
1.299808e+003,8.437794e-003
1.301736e+003,9.367656e-003
1.303665e+003,1.039085e-002
1.305594e+003,9.832405e-003
1.307522e+003,7.884506e-003
1.309450e+003,6.590627e-003
1.311379e+003,6.087817e-003
1.313307e+003,6.089177e-003
1.315236e+003,6.134771e-003
1.317164e+003,6.377999e-003
1.319093e+003,6.584570e-003
1.321021e+003,6.994594e-003
1.322950e+003,7.470656e-003
1.324878e+003,8.240324e-003
1.326807e+003,8.765467e-003
1.328735e+003,9.118505e-003
1.330664e+003,8.911017e-003
1.332592e+003,8.488197e-003
1.334521e+003,8.063812e-003
1.336449e+003,7.988382e-003
1.338378e+003,7.983085e-003
1.340306e+003,8.427944e-003
1.342235e+003,8.828022e-003
1.344163e+003,9.586174e-003
1.346092e+003,1.047031e-002
1.348021e+003,1.183947e-002
1.349949e+003,1.351463e-002
1.351877e+003,1.619209e-002
1.353806e+003,1.997796e-002
1.355734e+003,2.541385e-002
1.357663e+003,2.933016e-002
1.359591e+003,2.962538e-002
1.361520e+003,2.646418e-002
1.363448e+003,2.395067e-002
1.365377e+003,2.396262e-002
1.367305e+003,2.832603e-002
1.369234e+003,4.014132e-002
1.371162e+003,6.153993e-002
1.373091e+003,9.173763e-002
1.375019e+003,1.180337e-001
1.376948e+003,1.050110e-001
1.378876e+003,7.180251e-002
1.380805e+003,4.426728e-002
1.382733e+003,2.684641e-002
1.384662e+003,1.683827e-002
1.386590e+003,1.136063e-002
1.388519e+003,8.581080e-003
1.390447e+003,7.323854e-003
1.392376e+003,6.840758e-003
1.394304e+003,6.357126e-003
1.396233e+003,6.241720e-003
1.398161e+003,6.054323e-003
1.400090e+003,6.072931e-003
1.402018e+003,6.015569e-003
1.403947e+003,6.106861e-003
1.405875e+003,6.135065e-003
1.407804e+003,6.278634e-003
1.409732e+003,6.376255e-003
1.411661e+003,6.603114e-003
1.413589e+003,6.820068e-003
1.415518e+003,7.118892e-003
1.417446e+003,7.318489e-003
1.419375e+003,7.756185e-003
1.421303e+003,8.140270e-003
1.423232e+003,8.655775e-003
1.425160e+003,9.546425e-003
1.427089e+003,1.060953e-002
1.429017e+003,1.260112e-002
1.430946e+003,1.675730e-002
1.432874e+003,2.253979e-002
1.434803e+003,2.722807e-002
1.436731e+003,2.802523e-002
1.438660e+003,2.765381e-002
1.440588e+003,2.982641e-002
1.442517e+003,3.507106e-002
1.444445e+003,4.362388e-002
1.446374e+003,5.411923e-002
1.448302e+003,6.568484e-002
1.450231e+003,7.102605e-002
1.452159e+003,7.260259e-002
1.454088e+003,7.242519e-002
1.456016e+003,7.217304e-002
1.457945e+003,6.948639e-002
1.459873e+003,6.724153e-002
1.461802e+003,6.376106e-002
1.463730e+003,5.809423e-002
1.465659e+003,4.667291e-002
1.467587e+003,3.741386e-002
1.469516e+003,2.977186e-002
1.471444e+003,2.310340e-002
1.473373e+003,1.501603e-002
1.475301e+003,1.137435e-002
1.477230e+003,8.780476e-003
1.479158e+003,7.351946e-003
1.481087e+003,6.169830e-003
1.483015e+003,5.337127e-003
1.484944e+003,4.736096e-003
1.486872e+003,4.291136e-003
1.488801e+003,3.799479e-003
1.490729e+003,3.527921e-003
1.492658e+003,3.329080e-003
1.494586e+003,3.244545e-003
1.496515e+003,3.041849e-003
1.498443e+003,2.910800e-003
1.500372e+003,2.770305e-003
1.502300e+003,2.696984e-003
1.504229e+003,2.620645e-003
1.506157e+003,2.518732e-003
1.508086e+003,2.377905e-003
1.510014e+003,2.371684e-003
1.511943e+003,2.357796e-003
1.513871e+003,2.416018e-003
1.515800e+003,2.442021e-003
1.517728e+003,2.379593e-003
1.519657e+003,2.214808e-003
1.521585e+003,2.094045e-003
1.523514e+003,2.189998e-003
1.525442e+003,2.217345e-003
1.527371e+003,2.258509e-003
1.529299e+003,2.315126e-003
1.531228e+003,2.336394e-003
1.533156e+003,2.406001e-003
1.535085e+003,2.403304e-003
1.537013e+003,2.344314e-003
1.538942e+003,2.175853e-003
1.540870e+003,2.288993e-003
1.542799e+003,2.405345e-003
1.544727e+003,2.428133e-003
1.546656e+003,2.400510e-003
1.548584e+003,2.435960e-003
1.550513e+003,2.413753e-003
1.552441e+003,2.389267e-003
1.554370e+003,2.315383e-003
1.556298e+003,2.166431e-003
1.558227e+003,1.752995e-003
1.560155e+003,1.925819e-003
1.562084e+003,2.093963e-003
1.564012e+003,2.130203e-003
1.565941e+003,2.105642e-003
1.567869e+003,2.060950e-003
1.569798e+003,2.025694e-003
1.571726e+003,2.033345e-003
1.573655e+003,2.001740e-003
1.575583e+003,1.926020e-003
1.577512e+003,1.981571e-003
1.579440e+003,2.003912e-003
1.581369e+003,1.962997e-003
1.583297e+003,1.966689e-003
1.585226e+003,2.007768e-003
1.587154e+003,2.023153e-003
1.589083e+003,2.004471e-003
1.591011e+003,2.045389e-003
1.592940e+003,2.070963e-003
1.594868e+003,2.039097e-003
1.596797e+003,2.048135e-003
1.598725e+003,2.118222e-003
1.600654e+003,2.163865e-003
1.602582e+003,2.226256e-003
1.604511e+003,2.279107e-003
1.606439e+003,2.303869e-003
1.608368e+003,2.317231e-003
1.610296e+003,2.337687e-003
1.612225e+003,2.395257e-003
1.614153e+003,2.420750e-003
1.616082e+003,2.391607e-003
1.618010e+003,2.485704e-003
1.619939e+003,2.531078e-003
1.621867e+003,2.554297e-003
1.623796e+003,2.619505e-003
1.625724e+003,2.642896e-003
1.627653e+003,2.683416e-003
1.629581e+003,2.761979e-003
1.631510e+003,2.818730e-003
1.633438e+003,2.836842e-003
1.635367e+003,2.866380e-003
1.637295e+003,2.944466e-003
1.639224e+003,2.943993e-003
1.641152e+003,2.983119e-003
1.643081e+003,3.070924e-003
1.645009e+003,3.125861e-003
1.646938e+003,3.165331e-003
1.648866e+003,3.114037e-003
1.650795e+003,2.994373e-003
1.652723e+003,2.603333e-003
1.654652e+003,2.806235e-003
1.656580e+003,2.954509e-003
1.658509e+003,2.948515e-003
1.660437e+003,2.933934e-003
1.662366e+003,2.851669e-003
1.664294e+003,2.816599e-003
1.666223e+003,2.814375e-003
1.668151e+003,2.815589e-003
1.670080e+003,2.754442e-003
1.672008e+003,2.594333e-003
1.673937e+003,2.525330e-003
1.675865e+003,2.497908e-003
1.677794e+003,2.519622e-003
1.679722e+003,2.541661e-003
1.681651e+003,2.445009e-003
1.683579e+003,2.186455e-003
1.685508e+003,2.196118e-003
1.687436e+003,2.313044e-003
1.689365e+003,2.308317e-003
1.691293e+003,2.296887e-003
1.693222e+003,2.273720e-003
1.695150e+003,2.302773e-003
1.697079e+003,2.215762e-003
1.699007e+003,2.015542e-003
1.700936e+003,1.865849e-003
1.702864e+003,2.036225e-003
1.704793e+003,2.074596e-003
1.706721e+003,2.141695e-003
1.708650e+003,2.142694e-003
1.710578e+003,2.121925e-003
1.712507e+003,2.172135e-003
1.714435e+003,2.209499e-003
1.716364e+003,2.127767e-003
1.718292e+003,2.018869e-003
1.720221e+003,2.073374e-003
1.722149e+003,2.183575e-003
1.724078e+003,2.288621e-003
1.726006e+003,2.332628e-003
1.727935e+003,2.392106e-003
1.729863e+003,2.576470e-003
1.731792e+003,2.564948e-003
1.733720e+003,2.538800e-003
1.735649e+003,2.834275e-003
1.737577e+003,3.099017e-003
1.739506e+003,3.465731e-003
1.741434e+003,3.912173e-003
1.743363e+003,4.169993e-003
1.745291e+003,4.358996e-003
1.747220e+003,4.423629e-003
1.749148e+003,4.229795e-003
1.751077e+003,3.825091e-003
1.753005e+003,3.345463e-003
1.754934e+003,2.929129e-003
1.756862e+003,2.383612e-003
1.758791e+003,1.929037e-003
1.760719e+003,1.597140e-003
1.762648e+003,1.262851e-003
1.764576e+003,1.170691e-003
1.766505e+003,1.074474e-003
1.768433e+003,9.875484e-004
1.770362e+003,9.354502e-004
1.772290e+003,7.900260e-004
1.774219e+003,6.843545e-004
1.776147e+003,6.913692e-004
1.778076e+003,6.799549e-004
1.780004e+003,7.030815e-004
1.781933e+003,6.985180e-004
1.783861e+003,7.099584e-004
1.785790e+003,6.377399e-004
1.787718e+003,6.777458e-004
1.789646e+003,7.114671e-004
1.791575e+003,6.900653e-004
1.793504e+003,5.771965e-004
1.795432e+003,5.792156e-004
1.797361e+003,5.830526e-004
1.799289e+003,5.051829e-004
1.801218e+003,3.374740e-004
1.803146e+003,4.387014e-004
1.805074e+003,4.235171e-004
1.807003e+003,3.381185e-004
1.808932e+003,2.880320e-004
1.810860e+003,1.745857e-004
1.812789e+003,4.658103e-005
1.814717e+003,-1.881421e-004
1.816646e+003,-3.645532e-004
1.818574e+003,-1.030415e-005
1.820502e+003,1.670420e-004
1.822431e+003,2.926625e-004
1.824360e+003,3.556497e-004
1.826288e+003,2.845116e-004
1.828217e+003,2.838112e-004
1.830145e+003,3.329478e-004
1.832073e+003,1.455173e-004
1.834002e+003,4.834309e-005
1.835931e+003,6.542355e-005
1.837859e+003,1.890883e-004
1.839788e+003,1.589432e-004
1.841716e+003,2.060831e-004
1.843645e+003,1.987666e-004
1.845573e+003,1.102015e-004
1.847501e+003,-1.159012e-004
1.849430e+003,-1.855120e-004
1.851359e+003,-9.577349e-005
1.853287e+003,4.122779e-005
1.855216e+003,2.768263e-005
1.857144e+003,-3.483891e-005
1.859073e+003,-1.621135e-004
1.861001e+003,-1.361892e-004
1.862929e+003,-5.226582e-005
1.864858e+003,2.332032e-006
1.866787e+003,-8.889288e-005
1.868715e+003,-2.060719e-004
1.870644e+003,-2.683736e-004
1.872572e+003,-1.304299e-004
1.874500e+003,-2.779551e-004
1.876429e+003,-3.050193e-004
1.878357e+003,-2.587102e-004
1.880286e+003,-1.867823e-004
1.882215e+003,-2.783835e-004
1.884143e+003,-3.774427e-004
1.886072e+003,-4.938208e-004
1.888000e+003,-6.046183e-004
1.889928e+003,-5.030818e-004
1.891857e+003,-1.359507e-004
1.893785e+003,-2.175160e-004
1.895714e+003,-3.157370e-004
1.897643e+003,-3.721640e-004
1.899571e+003,-3.025644e-004
1.901500e+003,-2.955608e-004
1.903428e+003,-2.885573e-004
1.905356e+003,-2.815574e-004
1.907285e+003,-2.745613e-004
1.909213e+003,-2.675727e-004
1.911142e+003,-2.605803e-004
1.913071e+003,-2.535991e-004
1.914999e+003,-2.466179e-004
1.916927e+003,-2.396405e-004
1.918856e+003,-2.326705e-004
1.920784e+003,-2.257004e-004
1.922713e+003,-2.187341e-004
1.924641e+003,-2.117790e-004
1.926570e+003,-2.048165e-004
1.928499e+003,-1.978613e-004
1.930427e+003,-1.909174e-004
1.932355e+003,-1.839697e-004
1.934284e+003,-1.770258e-004
1.936212e+003,-1.700893e-004
1.938141e+003,-1.631565e-004
1.940070e+003,-1.562238e-004
1.941998e+003,-1.493022e-004
1.943927e+003,-1.423843e-004
1.945855e+003,-1.354702e-004
1.947783e+003,-1.285486e-004
1.949712e+003,-1.216382e-004
1.951640e+003,-1.147352e-004
1.953569e+003,-1.078323e-004
1.955498e+003,-1.009293e-004
1.957426e+003,-9.403750e-005
1.959354e+003,-8.714572e-005
1.961283e+003,-8.025393e-005
1.963211e+003,-7.337332e-005
1.965140e+003,-6.649271e-005
1.967068e+003,-5.961955e-005
1.968997e+003,-5.274639e-005
1.970926e+003,-4.587322e-005
1.972854e+003,-3.900751e-005
1.974782e+003,-3.214926e-005
1.976711e+003,-2.529472e-005
1.978639e+003,-1.844019e-005
1.980568e+003,-1.158938e-005
1.982496e+003,-4.749745e-006
1.984425e+003,2.093613e-006
1.986354e+003,8.933246e-006
1.988282e+003,1.576543e-005
1.990210e+003,2.259389e-005
1.992139e+003,2.942234e-005
1.994067e+003,3.624707e-005
1.995996e+003,4.306063e-005
1.997924e+003,4.987419e-005
1.999853e+003,5.668774e-005
2.001781e+003,6.349385e-005
2.003710e+003,7.029623e-005
2.005638e+003,7.709116e-005
2.007567e+003,8.389354e-005
2.009495e+003,9.068474e-005
2.011424e+003,9.747222e-005
2.013352e+003,1.042560e-004
2.015281e+003,1.110360e-004
2.017209e+003,1.178086e-004
2.019138e+003,1.245774e-004
2.021066e+003,1.313500e-004
2.022995e+003,1.381077e-004
2.024923e+003,1.448728e-004
2.026852e+003,1.516268e-004
2.028781e+003,1.583844e-004
2.030709e+003,1.651309e-004
2.032637e+003,1.718700e-004
2.034566e+003,1.786128e-004
2.036494e+003,1.853518e-004
2.038423e+003,1.920871e-004
2.040351e+003,1.988150e-004
2.042280e+003,2.055429e-004
2.044208e+003,2.122633e-004
2.046137e+003,2.189800e-004
2.048065e+003,2.256967e-004
2.049994e+003,2.324022e-004
2.051922e+003,2.391115e-004
2.053851e+003,2.458207e-004
2.055779e+003,2.525188e-004
2.057708e+003,2.592131e-004
2.059636e+003,2.659038e-004
2.061565e+003,2.725869e-004
2.063493e+003,2.792701e-004
2.065422e+003,2.859496e-004
2.067350e+003,2.926216e-004
2.069279e+003,2.992973e-004
2.071207e+003,3.059693e-004
2.073136e+003,3.126301e-004
2.075064e+003,3.192872e-004
2.076993e+003,3.259480e-004
2.078921e+003,3.325976e-004
2.080850e+003,3.392436e-004
2.082778e+003,3.458895e-004
2.084707e+003,3.525391e-004
2.086635e+003,3.591739e-004
2.088564e+003,3.658049e-004
2.090492e+003,3.724359e-004
2.092421e+003,3.790595e-004
2.094349e+003,3.856756e-004
2.096278e+003,3.922991e-004
2.098206e+003,3.989190e-004
2.100135e+003,4.055239e-004
2.102063e+003,4.121326e-004
2.103992e+003,4.187301e-004
2.105920e+003,4.253313e-004
2.107849e+003,4.319213e-004
2.109777e+003,4.385151e-004
2.111706e+003,4.450977e-004
2.113634e+003,4.516877e-004
2.115563e+003,4.582703e-004
2.117491e+003,4.648417e-004
2.119420e+003,4.714131e-004
2.121348e+003,4.779808e-004
2.123277e+003,4.845411e-004
2.125205e+003,4.911013e-004
2.127134e+003,4.976615e-004
2.129062e+003,5.042180e-004
2.130991e+003,5.107671e-004
2.132919e+003,5.173087e-004
2.134848e+003,5.238503e-004
2.136776e+003,5.303845e-004
2.138705e+003,5.369149e-004
2.140633e+003,5.434453e-004
2.142562e+003,5.499758e-004
2.144490e+003,5.564950e-004
2.146419e+003,5.630180e-004
2.148347e+003,5.695224e-004
2.150276e+003,5.760342e-004
2.152204e+003,5.825423e-004
2.154133e+003,5.890392e-004
2.156061e+003,5.955473e-004
2.157990e+003,6.020404e-004
2.159918e+003,6.085299e-004
2.161847e+003,6.150156e-004
2.163775e+003,6.214976e-004
2.165704e+003,6.279759e-004
2.167632e+003,6.344505e-004
2.169561e+003,6.409176e-004
2.171489e+003,6.473884e-004
2.173418e+003,6.538592e-004
2.175346e+003,6.603152e-004
2.177275e+003,6.667748e-004
2.179203e+003,6.732233e-004
2.181132e+003,6.796718e-004
2.183060e+003,6.861165e-004
2.184989e+003,6.925575e-004
2.186917e+003,6.989986e-004
2.188846e+003,7.054284e-004
2.190774e+003,7.118508e-004
2.192703e+003,7.182769e-004
2.194631e+003,7.246993e-004
2.196560e+003,7.311180e-004
2.198488e+003,7.375292e-004
2.200417e+003,7.439442e-004
2.202345e+003,7.503554e-004
2.204274e+003,7.567555e-004
2.206202e+003,7.631518e-004
2.208131e+003,7.695481e-004
2.210059e+003,7.759333e-004
2.211988e+003,7.823221e-004
2.213916e+003,7.886961e-004
2.215845e+003,7.950813e-004
2.217773e+003,8.014627e-004
2.219702e+003,8.078292e-004
2.221630e+003,8.141994e-004
2.223559e+003,8.205622e-004
2.225487e+003,8.269213e-004
2.227416e+003,8.332767e-004
2.229344e+003,8.396246e-004
2.231273e+003,8.459836e-004
2.233201e+003,8.523241e-004
2.235130e+003,8.586608e-004
2.237058e+003,8.650012e-004
2.238987e+003,8.713342e-004
2.240915e+003,8.776560e-004
2.242844e+003,8.839816e-004
2.244772e+003,8.903071e-004
2.246701e+003,8.966289e-004
2.248629e+003,9.029433e-004
2.250558e+003,9.092502e-004
2.252486e+003,9.155571e-004
2.254415e+003,9.218566e-004
2.256343e+003,9.281524e-004
2.258272e+003,9.344481e-004
2.260200e+003,9.407401e-004
2.262129e+003,9.470284e-004
2.264057e+003,9.533130e-004
2.265986e+003,9.595901e-004
2.267914e+003,9.658597e-004
2.269843e+003,9.721294e-004
2.271771e+003,9.783953e-004
2.273700e+003,9.846576e-004
2.275628e+003,9.909272e-004
2.277557e+003,9.971820e-004
2.279485e+003,1.003433e-003
2.281414e+003,1.009684e-003
2.283342e+003,1.015920e-003
2.285271e+003,1.022160e-003
2.287199e+003,1.028400e-003
2.289128e+003,1.034636e-003
2.291056e+003,1.040865e-003
2.292985e+003,1.047086e-003
2.294913e+003,1.053307e-003
2.296842e+003,1.059525e-003
2.298770e+003,1.065738e-003
2.300699e+003,1.071952e-003
2.302627e+003,1.078162e-003
2.304556e+003,1.084358e-003
2.306484e+003,1.090560e-003
2.308413e+003,1.096752e-003
2.310341e+003,1.102936e-003
2.312270e+003,1.109123e-003
2.314198e+003,1.115307e-003
2.316127e+003,1.121480e-003
2.318055e+003,1.127653e-003
2.319984e+003,1.133829e-003
2.321912e+003,1.140002e-003
2.323841e+003,1.146164e-003
2.325769e+003,1.152322e-003
2.327698e+003,1.158476e-003
2.329626e+003,1.164630e-003
2.331555e+003,1.170777e-003
2.333483e+003,1.176927e-003
2.335412e+003,1.183063e-003
2.337340e+003,1.189202e-003
2.339269e+003,1.195334e-003
2.341197e+003,1.201462e-003
2.343126e+003,1.207583e-003
2.345054e+003,1.213703e-003
2.346983e+003,1.219824e-003
2.348911e+003,1.225937e-003
2.350840e+003,1.232047e-003
2.352768e+003,1.238149e-003
2.354697e+003,1.244251e-003
2.356625e+003,1.250349e-003
2.358554e+003,1.256444e-003
2.360482e+003,1.262531e-003
2.362411e+003,1.268618e-003
2.364339e+003,1.274705e-003
2.366268e+003,1.280785e-003
2.368196e+003,1.286857e-003
2.370125e+003,1.292925e-003
2.372053e+003,1.298994e-003
2.373982e+003,1.305055e-003
2.375910e+003,1.311116e-003
2.377839e+003,1.317177e-003
2.379767e+003,1.323227e-003
2.381696e+003,1.329273e-003
2.383624e+003,1.335319e-003
2.385553e+003,1.341358e-003
2.387481e+003,1.347393e-003
2.389410e+003,1.353424e-003
2.391338e+003,1.359452e-003
2.393267e+003,1.365483e-003
2.395195e+003,1.371499e-003
2.397124e+003,1.377515e-003
2.399052e+003,1.383528e-003
2.400981e+003,1.344435e-003
2.402909e+003,1.226358e-003
2.404838e+003,1.272798e-003
2.406766e+003,1.517102e-003
2.408695e+003,1.843706e-003
2.410623e+003,1.843780e-003
2.412552e+003,1.766674e-003
2.414480e+003,1.710042e-003
2.416409e+003,1.730759e-003
2.418337e+003,1.712356e-003
2.420266e+003,1.756281e-003
2.422194e+003,1.819659e-003
2.424123e+003,1.904733e-003
2.426051e+003,1.986276e-003
2.427979e+003,2.082698e-003
2.429908e+003,2.114594e-003
2.431837e+003,2.103910e-003
2.433765e+003,2.077829e-003
2.435694e+003,2.108388e-003
2.437622e+003,2.116993e-003
2.439551e+003,2.159867e-003
2.441479e+003,2.231862e-003
2.443407e+003,2.260204e-003
2.445336e+003,2.194200e-003
2.447265e+003,2.247110e-003
2.449193e+003,2.269220e-003
2.451122e+003,2.392158e-003
2.453050e+003,2.493676e-003
2.454979e+003,2.516434e-003
2.456907e+003,2.442557e-003
2.458836e+003,2.314508e-003
2.460764e+003,2.138995e-003
2.462693e+003,2.023146e-003
2.464621e+003,1.939822e-003
2.466550e+003,1.750316e-003
2.468478e+003,1.667865e-003
2.470406e+003,1.796234e-003
2.472335e+003,1.861099e-003
2.474264e+003,1.936141e-003
2.476192e+003,1.989391e-003
2.478121e+003,2.155654e-003
2.480049e+003,2.099082e-003
2.481978e+003,1.957361e-003
2.483906e+003,1.986604e-003
2.485835e+003,2.087090e-003
2.487763e+003,2.102654e-003
2.489692e+003,2.102498e-003
2.491620e+003,2.099272e-003
2.493549e+003,2.159148e-003
2.495477e+003,2.187390e-003
2.497406e+003,2.274081e-003
2.499334e+003,2.243720e-003
2.501263e+003,2.132699e-003
2.503191e+003,2.192952e-003
2.505120e+003,2.413929e-003
2.507048e+003,2.329055e-003
2.508977e+003,2.167299e-003
2.510905e+003,2.201121e-003
2.512833e+003,2.339184e-003
2.514762e+003,2.303917e-003
2.516691e+003,2.433248e-003
2.518619e+003,2.493057e-003
2.520548e+003,2.433646e-003
2.522476e+003,2.474397e-003
2.524405e+003,2.582766e-003
2.526333e+003,2.681378e-003
2.528261e+003,2.804454e-003
2.530190e+003,2.775103e-003
2.532119e+003,2.840437e-003
2.534047e+003,2.982508e-003
2.535976e+003,2.954524e-003
2.537904e+003,2.933361e-003
2.539833e+003,3.210396e-003
2.541761e+003,3.297087e-003
2.543689e+003,3.186613e-003
2.545618e+003,3.215518e-003
2.547547e+003,3.190648e-003
2.549475e+003,3.258731e-003
2.551404e+003,3.441047e-003
2.553332e+003,3.560923e-003
2.555260e+003,3.613882e-003
2.557189e+003,3.780186e-003
2.559117e+003,3.982395e-003
2.561046e+003,3.995605e-003
2.562975e+003,4.116625e-003
2.564903e+003,4.133716e-003
2.566832e+003,4.175298e-003
2.568760e+003,4.225872e-003
2.570688e+003,4.443984e-003
2.572617e+003,4.779387e-003
2.574546e+003,5.048167e-003
2.576474e+003,5.267039e-003
2.578403e+003,5.479097e-003
2.580331e+003,5.477339e-003
2.582260e+003,5.500659e-003
2.584188e+003,5.496703e-003
2.586116e+003,5.378105e-003
2.588045e+003,5.146913e-003
2.589974e+003,4.901722e-003
2.591902e+003,4.805326e-003
2.593831e+003,4.888952e-003
2.595759e+003,4.956529e-003
2.597688e+003,5.079135e-003
2.599616e+003,5.172186e-003
2.601544e+003,5.253009e-003
2.603473e+003,5.344756e-003
2.605402e+003,5.531035e-003
2.607330e+003,5.818143e-003
2.609259e+003,6.023727e-003
2.611187e+003,6.088369e-003
2.613115e+003,6.207392e-003
2.615044e+003,6.327145e-003
2.616972e+003,6.391205e-003
2.618901e+003,6.455347e-003
2.620830e+003,6.455101e-003
2.622758e+003,6.465018e-003
2.624687e+003,6.514505e-003
2.626615e+003,6.531931e-003
2.628543e+003,6.575510e-003
2.630472e+003,6.597340e-003
2.632400e+003,6.586738e-003
2.634329e+003,6.603934e-003
2.636258e+003,6.688058e-003
2.638186e+003,6.850474e-003
2.640115e+003,6.957024e-003
2.642043e+003,7.046960e-003
2.643971e+003,7.280752e-003
2.645900e+003,7.503450e-003
2.647828e+003,7.600322e-003
2.649757e+003,7.709667e-003
2.651686e+003,7.862657e-003
2.653614e+003,7.938556e-003
2.655542e+003,8.030184e-003
2.657471e+003,8.080691e-003
2.659399e+003,8.026831e-003
2.661328e+003,7.870354e-003
2.663256e+003,7.560752e-003
2.665185e+003,7.235654e-003
2.667114e+003,7.142186e-003
2.669042e+003,7.146500e-003
2.670970e+003,7.185280e-003
2.672899e+003,7.268108e-003
2.674827e+003,7.287949e-003
2.676756e+003,7.290728e-003
2.678685e+003,7.332608e-003
2.680613e+003,7.331982e-003
2.682542e+003,7.303357e-003
2.684470e+003,7.344246e-003
2.686398e+003,7.411316e-003
2.688327e+003,7.396661e-003
2.690255e+003,7.396787e-003
2.692184e+003,7.426985e-003
2.694113e+003,7.422626e-003
2.696041e+003,7.440783e-003
2.697969e+003,7.564358e-003
2.699898e+003,7.690571e-003
2.701826e+003,7.904537e-003
2.703755e+003,8.082494e-003
2.705683e+003,8.261099e-003
2.707612e+003,8.539334e-003
2.709541e+003,8.859999e-003
2.711469e+003,9.211443e-003
2.713397e+003,9.671763e-003
2.715326e+003,1.023730e-002
2.717254e+003,1.089976e-002
2.719183e+003,1.153532e-002
2.721111e+003,1.194482e-002
2.723040e+003,1.193104e-002
2.724969e+003,1.153482e-002
2.726897e+003,1.094630e-002
2.728825e+003,1.042973e-002
2.730754e+003,1.005340e-002
2.732682e+003,9.767592e-003
2.734611e+003,9.520635e-003
2.736539e+003,9.298593e-003
2.738468e+003,9.052664e-003
2.740396e+003,8.844547e-003
2.742325e+003,8.653186e-003
2.744253e+003,8.522473e-003
2.746182e+003,8.486934e-003
2.748110e+003,8.443467e-003
2.750039e+003,8.370437e-003
2.751967e+003,8.394964e-003
2.753896e+003,8.532889e-003
2.755824e+003,8.729070e-003
2.757753e+003,8.943453e-003
2.759681e+003,9.077981e-003
2.761610e+003,9.171844e-003
2.763538e+003,9.298414e-003
2.765467e+003,9.500153e-003
2.767395e+003,9.696722e-003
2.769324e+003,9.854056e-003
2.771252e+003,1.003540e-002
2.773181e+003,1.028637e-002
2.775109e+003,1.061913e-002
2.777038e+003,1.096833e-002
2.778966e+003,1.137292e-002
2.780895e+003,1.180545e-002
2.782823e+003,1.228715e-002
2.784752e+003,1.288179e-002
2.786680e+003,1.352490e-002
2.788609e+003,1.426057e-002
2.790537e+003,1.507899e-002
2.792466e+003,1.583822e-002
2.794394e+003,1.640614e-002
2.796323e+003,1.688181e-002
2.798251e+003,1.742092e-002
2.800180e+003,1.812326e-002
2.802108e+003,1.911847e-002
2.804037e+003,2.041177e-002
2.805965e+003,2.173948e-002
2.807894e+003,2.296234e-002
2.809822e+003,2.406858e-002
2.811751e+003,2.519166e-002
2.813679e+003,2.638597e-002
2.815608e+003,2.779567e-002
2.817536e+003,2.959385e-002
2.819465e+003,3.184402e-002
2.821393e+003,3.464002e-002
2.823322e+003,3.818265e-002
2.825250e+003,4.294722e-002
2.827179e+003,4.973100e-002
2.829107e+003,5.966887e-002
2.831036e+003,7.411140e-002
2.832964e+003,9.303931e-002
2.834893e+003,1.124936e-001
2.836821e+003,1.253071e-001
2.838750e+003,1.267077e-001
2.840678e+003,1.174049e-001
2.842607e+003,1.022198e-001
2.844535e+003,8.663251e-002
2.846464e+003,7.415967e-002
2.848392e+003,6.543965e-002
2.850321e+003,5.964816e-002
2.852249e+003,5.631603e-002
2.854178e+003,5.562998e-002
2.856106e+003,5.837473e-002
2.858035e+003,6.567680e-002
2.859963e+003,7.899059e-002
2.861892e+003,9.789232e-002
2.863820e+003,1.162549e-001
2.865749e+003,1.256372e-001
2.867677e+003,1.247402e-001
2.869606e+003,1.193000e-001
2.871534e+003,1.147676e-001
2.873463e+003,1.135770e-001
2.875391e+003,1.154219e-001
2.877320e+003,1.169419e-001
2.879248e+003,1.155425e-001
2.881177e+003,1.122972e-001
2.883105e+003,1.092234e-001
2.885034e+003,1.071019e-001
2.886962e+003,1.060185e-001
2.888891e+003,1.059168e-001
2.890819e+003,1.073006e-001
2.892748e+003,1.109712e-001
2.894676e+003,1.172397e-001
2.896605e+003,1.261752e-001
2.898533e+003,1.374988e-001
2.900462e+003,1.502478e-001
2.902390e+003,1.635527e-001
2.904319e+003,1.764777e-001
2.906247e+003,1.876097e-001
2.908176e+003,1.972556e-001
2.910104e+003,2.087684e-001
2.912033e+003,2.256694e-001
2.913961e+003,2.464112e-001
2.915890e+003,2.618773e-001
2.917818e+003,2.621555e-001
2.919747e+003,2.480819e-001
2.921675e+003,2.288394e-001
2.923604e+003,2.101149e-001
2.925532e+003,1.912573e-001
2.927461e+003,1.704251e-001
2.929389e+003,1.483456e-001
2.931318e+003,1.279654e-001
2.933246e+003,1.117298e-001
2.935175e+003,1.009486e-001
2.937103e+003,9.643403e-002
2.939032e+003,9.901135e-002
2.940960e+003,1.103855e-001
2.942889e+003,1.315158e-001
2.944817e+003,1.600077e-001
2.946746e+003,1.887341e-001
2.948674e+003,2.066720e-001
2.950603e+003,2.055793e-001
2.952531e+003,1.893876e-001
2.954460e+003,1.713992e-001
2.956388e+003,1.618320e-001
2.958317e+003,1.603302e-001
2.960245e+003,1.582351e-001
2.962174e+003,1.465872e-001
2.964102e+003,1.263951e-001
2.966031e+003,1.049152e-001
2.967959e+003,8.538314e-002
2.969888e+003,6.797248e-002
2.971816e+003,5.321879e-002
2.973745e+003,4.136638e-002
2.975673e+003,3.212837e-002
2.977602e+003,2.501647e-002
2.979530e+003,1.958774e-002
2.981459e+003,1.545160e-002
2.983387e+003,1.229306e-002
2.985316e+003,9.787939e-003
2.987244e+003,7.922567e-003
2.989173e+003,6.483600e-003
2.991101e+003,5.238540e-003
2.993030e+003,4.183196e-003
2.994958e+003,3.362291e-003
2.996887e+003,2.808981e-003
2.998815e+003,2.412081e-003
3.000744e+003,2.028368e-003
3.002672e+003,1.698501e-003
3.004601e+003,1.443833e-003
3.006529e+003,1.189820e-003
3.008458e+003,8.883998e-004
3.010386e+003,6.485730e-004
3.012315e+003,4.176572e-004
3.014243e+003,1.945198e-004
3.016172e+003,2.489239e-005
3.018100e+003,-8.752197e-005
3.020029e+003,-1.520663e-004
3.021957e+003,-2.099201e-004
3.023886e+003,-3.041774e-004
3.025814e+003,-3.743842e-004
3.027743e+003,-4.672706e-004
3.029671e+003,-5.009770e-004
3.031600e+003,-5.238056e-004
3.033528e+003,-5.228519e-004
3.035457e+003,-4.828051e-004
3.037385e+003,-5.132258e-004
3.039314e+003,-5.851835e-004
3.041242e+003,-5.596951e-004
3.043171e+003,-4.808158e-004
3.045099e+003,-4.045963e-004
3.047028e+003,-3.884584e-004
3.048956e+003,-4.414842e-004
3.050885e+003,-4.466176e-004
3.052813e+003,-4.039928e-004
3.054742e+003,-3.423765e-004
3.056670e+003,-3.438294e-004
3.058599e+003,-3.886819e-004
3.060527e+003,-4.016459e-004
3.062456e+003,-3.942400e-004
3.064384e+003,-3.982335e-004
3.066313e+003,-3.805235e-004
3.068241e+003,-2.494678e-004
3.070170e+003,-1.591891e-004
3.072098e+003,-2.067387e-004
3.074027e+003,-2.239794e-004
3.075955e+003,-1.973063e-004
3.077884e+003,-1.541153e-004
3.079812e+003,-1.316816e-004
3.081741e+003,-8.009374e-005
3.083669e+003,-1.434609e-004
3.085598e+003,-2.120957e-004
3.087526e+003,-8.694828e-005
3.089455e+003,7.732958e-005
3.091383e+003,1.410022e-004
3.093312e+003,1.157895e-004
3.095240e+003,1.252294e-004
3.097169e+003,1.239479e-004
3.099097e+003,5.937368e-005
3.101026e+003,9.398162e-005
3.102954e+003,1.877546e-004
3.104883e+003,1.919270e-004
3.106811e+003,2.345219e-004
3.108740e+003,2.135485e-004
3.110668e+003,2.661049e-004
3.112597e+003,2.997518e-004
3.114525e+003,3.459826e-004
3.116454e+003,4.125684e-004
3.118382e+003,4.201308e-004
3.120311e+003,4.371107e-004
3.122239e+003,5.211532e-004
3.124168e+003,5.980879e-004
3.126096e+003,6.843135e-004
3.128025e+003,7.800609e-004
3.129953e+003,8.376539e-004
3.131882e+003,7.697493e-004
3.133810e+003,8.248612e-004
3.135739e+003,9.180829e-004
3.137667e+003,1.025476e-003
3.139596e+003,1.190908e-003
3.141524e+003,1.241013e-003
3.143453e+003,1.225278e-003
3.145381e+003,1.168281e-003
3.147310e+003,1.130410e-003
3.149238e+003,1.204871e-003
3.151167e+003,1.234457e-003
3.153095e+003,1.160830e-003
3.155024e+003,1.136996e-003
3.156952e+003,1.150541e-003
3.158881e+003,1.126543e-003
3.160809e+003,1.138531e-003
3.162738e+003,1.228683e-003
3.164666e+003,1.220420e-003
3.166594e+003,1.180530e-003
3.168523e+003,1.259968e-003
3.170452e+003,1.283370e-003
3.172380e+003,1.281783e-003
3.174309e+003,1.333266e-003
3.176237e+003,1.393482e-003
3.178166e+003,1.371995e-003
3.180094e+003,1.447372e-003
3.182022e+003,1.548268e-003
3.183951e+003,1.662903e-003
3.185880e+003,1.759589e-003
3.187808e+003,1.782387e-003
3.189737e+003,1.742780e-003
3.191665e+003,1.718119e-003
3.193594e+003,1.737542e-003
3.195522e+003,1.844406e-003
3.197450e+003,1.857534e-003
3.199379e+003,1.820393e-003
3.201308e+003,1.808248e-003
3.203236e+003,1.862139e-003
3.205165e+003,1.941167e-003
3.207093e+003,1.843780e-003
3.209021e+003,1.774870e-003
3.210950e+003,1.758575e-003
3.212878e+003,1.681075e-003
3.214807e+003,1.617134e-003
3.216736e+003,1.599565e-003
3.218664e+003,1.639992e-003
3.220593e+003,1.591690e-003
3.222521e+003,1.440071e-003
3.224449e+003,1.377121e-003
3.226378e+003,1.452096e-003
3.228307e+003,1.419961e-003
3.230235e+003,1.286209e-003
3.232164e+003,1.244180e-003
3.234092e+003,1.282603e-003
3.236021e+003,1.305185e-003
3.237949e+003,1.371376e-003
3.239877e+003,1.363136e-003
3.241806e+003,1.315325e-003
3.243735e+003,1.334652e-003
3.245663e+003,1.398392e-003
3.247592e+003,1.400262e-003
3.249520e+003,1.356989e-003
3.251448e+003,1.385264e-003
3.253377e+003,1.426809e-003
3.255305e+003,1.520552e-003
3.257234e+003,1.607209e-003
3.259163e+003,1.574203e-003
3.261091e+003,1.527533e-003
3.263020e+003,1.609527e-003
3.264948e+003,1.693219e-003
3.266876e+003,1.709305e-003
3.268805e+003,1.691468e-003
3.270733e+003,1.584038e-003
3.272662e+003,1.650684e-003
3.274591e+003,1.809709e-003
3.276519e+003,1.942866e-003
3.278448e+003,1.886800e-003
3.280376e+003,1.831919e-003
3.282304e+003,1.864925e-003
3.284233e+003,1.888648e-003
3.286161e+003,1.879990e-003
3.288090e+003,1.909479e-003
3.290019e+003,1.995780e-003
3.291947e+003,2.026640e-003
3.293875e+003,2.035230e-003
3.295804e+003,2.071232e-003
3.297732e+003,2.042837e-003
3.299661e+003,1.929924e-003
3.301589e+003,1.877904e-003
3.303518e+003,1.913406e-003
3.305447e+003,1.924358e-003
3.307375e+003,2.012588e-003
3.309303e+003,2.003297e-003
3.311232e+003,1.893297e-003
3.313160e+003,1.980126e-003
3.315089e+003,2.134375e-003
3.317018e+003,2.028078e-003
3.318946e+003,1.878716e-003
3.320875e+003,1.971409e-003
3.322803e+003,2.094060e-003
3.324731e+003,2.132997e-003
3.326660e+003,2.141297e-003
3.328588e+003,2.045222e-003
3.330517e+003,2.024256e-003
3.332446e+003,2.133824e-003
3.334374e+003,2.120711e-003
3.336302e+003,2.116114e-003
3.338231e+003,2.156943e-003
3.340159e+003,2.090856e-003
3.342088e+003,2.128072e-003
3.344016e+003,2.202988e-003
3.345945e+003,2.190538e-003
3.347874e+003,2.133675e-003
3.349802e+003,2.080753e-003
3.351730e+003,2.101116e-003
3.353659e+003,2.105139e-003
3.355587e+003,2.113171e-003
3.357516e+003,2.055265e-003
3.359444e+003,1.973361e-003
3.361373e+003,1.940995e-003
3.363302e+003,1.894429e-003
3.365230e+003,1.929469e-003
3.367158e+003,2.008244e-003
3.369087e+003,1.964115e-003
3.371015e+003,1.809016e-003
3.372944e+003,1.774408e-003
3.374872e+003,1.885921e-003
3.376801e+003,1.960009e-003
3.378729e+003,1.873739e-003
3.380658e+003,1.764372e-003
3.382586e+003,1.727358e-003
3.384515e+003,1.686260e-003
3.386443e+003,1.586094e-003
3.388372e+003,1.607478e-003
3.390300e+003,1.725763e-003
3.392229e+003,1.685970e-003
3.394157e+003,1.584493e-003
3.396086e+003,1.608871e-003
3.398014e+003,1.676753e-003
3.399943e+003,1.737460e-003
3.401871e+003,1.625620e-003
3.403800e+003,1.591697e-003
3.405728e+003,1.586750e-003
3.407657e+003,1.619421e-003
3.409585e+003,1.646042e-003
3.411514e+003,1.652338e-003
3.413442e+003,1.624413e-003
3.415371e+003,1.552857e-003
3.417299e+003,1.542456e-003
3.419228e+003,1.577824e-003
3.421156e+003,1.523264e-003
3.423085e+003,1.426414e-003
3.425013e+003,1.419723e-003
3.426942e+003,1.414955e-003
3.428870e+003,1.331806e-003
3.430799e+003,1.334906e-003
3.432727e+003,1.309976e-003
3.434656e+003,1.352675e-003
3.436584e+003,1.418546e-003
3.438513e+003,1.301028e-003
3.440441e+003,1.206651e-003
3.442370e+003,1.224875e-003
3.444298e+003,1.181766e-003
3.446227e+003,1.084879e-003
3.448155e+003,9.647906e-004
3.450084e+003,8.944944e-004
3.452012e+003,9.392947e-004
3.453941e+003,1.026027e-003
3.455869e+003,9.954870e-004
3.457798e+003,9.907261e-004
3.459726e+003,9.843782e-004
3.461655e+003,9.524226e-004
3.463583e+003,9.423941e-004
3.465512e+003,9.622276e-004
3.467440e+003,8.275136e-004
3.469369e+003,7.592663e-004
3.471297e+003,7.399619e-004
3.473226e+003,7.637292e-004
3.475154e+003,8.273274e-004
3.477083e+003,8.577481e-004
3.479011e+003,8.374676e-004
3.480940e+003,8.280054e-004
3.482868e+003,8.896962e-004
3.484797e+003,8.566901e-004
3.486725e+003,7.150173e-004
3.488654e+003,6.271005e-004
3.490582e+003,6.881878e-004
3.492511e+003,6.984100e-004
3.494439e+003,6.222203e-004
3.496368e+003,5.845204e-004
3.498296e+003,5.162582e-004
3.500225e+003,5.850121e-004
3.502153e+003,7.262528e-004
3.504082e+003,7.649958e-004
3.506010e+003,6.610379e-004
3.507939e+003,5.155355e-004
3.509867e+003,3.407598e-004
3.511796e+003,3.526509e-004
3.513724e+003,3.884360e-004
3.515653e+003,3.469214e-004
3.517581e+003,3.011599e-004
3.519510e+003,3.669262e-004
3.521438e+003,4.991442e-004
3.523367e+003,3.891885e-004
3.525295e+003,1.684800e-004
3.527224e+003,7.319450e-005
3.529152e+003,1.193210e-004
3.531081e+003,1.953095e-004
3.533009e+003,9.021163e-005
3.534938e+003,2.401322e-005
3.536866e+003,4.877150e-005
3.538795e+003,1.067743e-004
3.540723e+003,1.984462e-004
3.542652e+003,3.093407e-004
3.544580e+003,2.617761e-004
3.546509e+003,1.159161e-004
3.548437e+003,-7.733703e-006
3.550366e+003,4.581362e-005
3.552294e+003,8.061528e-005
3.554223e+003,-6.442517e-005
3.556151e+003,-1.529455e-004
3.558080e+003,-1.542121e-004
3.560008e+003,-3.618002e-005
3.561937e+003,5.429983e-005
3.563865e+003,5.538017e-005
3.565794e+003,-2.572685e-005
3.567722e+003,-3.888980e-004
3.569651e+003,-5.830377e-004
3.571579e+003,-4.328936e-004
3.573508e+003,-3.722981e-004
3.575436e+003,-5.439743e-004
3.577365e+003,-6.346852e-004
3.579293e+003,-5.935356e-004
3.581222e+003,-2.856255e-004
3.583150e+003,-6.166101e-005
3.585079e+003,6.060302e-005
3.587007e+003,1.023561e-004
3.588936e+003,-3.988221e-004
3.590864e+003,-6.189346e-004
3.592793e+003,-4.999042e-004
3.594721e+003,-2.061427e-004
3.596650e+003,-3.474653e-004
3.598578e+003,-3.810674e-004
3.600507e+003,-2.771467e-004
3.602435e+003,-2.558753e-004
3.604364e+003,-2.202019e-004
3.606292e+003,1.265854e-005
3.608221e+003,2.198890e-004
3.610149e+003,-3.785640e-005
3.612078e+003,-1.469553e-004
3.614006e+003,-1.753122e-004
3.615935e+003,-2.977774e-004
3.617863e+003,-3.080219e-004
3.619792e+003,-1.859292e-004
3.621720e+003,-2.833605e-004
3.623649e+003,-2.753288e-004
3.625577e+003,-1.610219e-004
3.627506e+003,3.230125e-004
3.629434e+003,2.549589e-004
3.631363e+003,-4.040152e-004
3.633291e+003,-5.398095e-004
3.635220e+003,-3.248230e-004
3.637148e+003,-2.386123e-004
3.639077e+003,-2.246797e-004
3.641005e+003,-4.664809e-005
3.642934e+003,-9.971857e-005
3.644862e+003,1.180246e-004
3.646791e+003,7.763207e-004
3.648719e+003,7.574484e-004
3.650648e+003,4.191697e-005
3.652576e+003,-4.211068e-004
3.654505e+003,-2.832487e-004
3.656433e+003,-2.072081e-004
3.658362e+003,-2.365410e-004
3.660290e+003,-1.564324e-004
3.662219e+003,-6.467104e-006
3.664147e+003,1.603439e-004
3.666076e+003,8.014590e-005
3.668004e+003,2.587661e-004
3.669933e+003,5.580485e-004
3.671861e+003,1.417994e-004
3.673790e+003,1.925454e-004
3.675718e+003,-2.047420e-005
3.677647e+003,-3.284663e-004
3.679575e+003,-2.425984e-004
3.681504e+003,-1.009628e-004
3.683432e+003,1.609549e-004
3.685361e+003,4.153028e-004
3.687289e+003,5.002096e-004
3.689218e+003,2.835393e-004
3.691146e+003,1.590997e-004
3.693075e+003,1.996085e-004
3.695003e+003,3.946796e-004
3.696932e+003,4.503876e-004
3.698860e+003,4.997849e-004
3.700789e+003,5.422235e-004
3.702717e+003,3.726035e-004
3.704646e+003,4.560351e-004
3.706574e+003,7.025376e-004
3.708503e+003,9.416491e-004
3.710431e+003,1.067914e-003
3.712360e+003,5.391762e-004
3.714288e+003,3.513098e-004
3.716217e+003,4.395321e-004
3.718145e+003,6.113276e-004
3.720074e+003,9.220243e-004
3.722002e+003,1.249924e-003
3.723931e+003,1.139238e-003
3.725859e+003,1.008861e-003
3.727788e+003,9.383112e-004
3.729716e+003,1.295261e-003
3.731645e+003,1.896277e-003
3.733573e+003,2.156213e-003
3.735502e+003,1.570769e-003
3.737430e+003,6.593615e-004
3.739359e+003,8.486062e-004
3.741287e+003,8.804873e-004
3.743216e+003,1.102082e-003
3.745144e+003,9.972230e-004
3.747073e+003,8.883178e-004
3.749001e+003,7.513165e-004
3.750930e+003,7.299557e-004
3.752858e+003,6.912425e-004
3.754787e+003,7.011443e-004
3.756715e+003,7.787198e-004
3.758644e+003,7.722229e-004
3.760572e+003,7.772893e-004
3.762501e+003,7.610098e-004
3.764429e+003,8.469447e-004
3.766358e+003,8.090362e-004
3.768286e+003,8.695871e-004
3.770215e+003,8.003190e-004
3.772143e+003,8.396506e-004
3.774072e+003,9.951442e-004
3.776000e+003,1.095869e-003
3.777929e+003,1.257882e-003
3.779857e+003,1.093343e-003
3.781786e+003,7.094666e-004
3.783714e+003,7.451326e-004
3.785643e+003,9.384230e-004
3.787571e+003,1.030512e-003
3.789500e+003,1.165070e-003
3.791428e+003,1.291387e-003
3.793357e+003,1.326628e-003
3.795285e+003,1.640916e-003
3.797214e+003,1.510091e-003
3.799142e+003,1.279540e-003
3.801071e+003,1.538947e-003
3.802999e+003,1.302034e-003
3.804927e+003,1.263477e-003
3.806856e+003,1.199923e-003
3.808785e+003,1.035526e-003
3.810713e+003,1.129523e-003
3.812642e+003,1.229763e-003
3.814570e+003,1.578957e-003
3.816499e+003,1.415968e-003
3.818427e+003,1.098253e-003
3.820355e+003,1.279667e-003
3.822284e+003,1.248926e-003
3.824213e+003,1.004100e-003
3.826141e+003,1.096286e-003
3.828070e+003,1.080155e-003
3.829998e+003,1.105756e-003
3.831927e+003,1.037903e-003
3.833855e+003,1.053825e-003
3.835783e+003,1.351014e-003
3.837712e+003,1.397766e-003
3.839641e+003,9.871349e-004
3.841569e+003,8.466095e-004
3.843498e+003,8.702651e-004
3.845426e+003,9.002760e-004
3.847354e+003,1.197286e-003
3.849283e+003,1.545653e-003
3.851211e+003,1.639239e-003
3.853140e+003,1.554593e-003
3.855069e+003,9.812638e-004
3.856997e+003,8.898899e-004
3.858926e+003,1.198985e-003
3.860854e+003,1.415335e-003
3.862782e+003,1.177795e-003
3.864711e+003,1.105793e-003
3.866640e+003,7.607043e-004
3.868568e+003,8.612722e-004
3.870497e+003,8.312017e-004
3.872425e+003,8.878112e-004
3.874354e+003,8.712932e-004
3.876282e+003,9.032488e-004
3.878210e+003,9.768233e-004
3.880139e+003,1.129217e-003
3.882068e+003,1.133174e-003
3.883996e+003,1.246028e-003
3.885925e+003,1.243643e-003
3.887853e+003,1.013294e-003
3.889781e+003,1.112618e-003
3.891710e+003,1.177534e-003
3.893638e+003,1.062788e-003
3.895567e+003,9.946153e-004
3.897496e+003,1.167469e-003
3.899424e+003,1.377814e-003
3.901353e+003,1.265638e-003
3.903281e+003,1.114242e-003
3.905209e+003,9.152070e-004
3.907138e+003,8.156598e-004
3.909066e+003,9.021834e-004
3.910995e+003,1.091726e-003
3.912924e+003,1.225658e-003
3.914852e+003,1.361221e-003
3.916781e+003,1.345903e-003
3.918709e+003,1.211077e-003
3.920637e+003,1.090690e-003
3.922566e+003,1.083314e-003
3.924494e+003,1.248576e-003
3.926423e+003,1.173280e-003
3.928352e+003,1.208618e-003
3.930280e+003,1.277320e-003
3.932208e+003,1.283102e-003
3.934137e+003,1.136228e-003
3.936065e+003,1.141541e-003
3.937994e+003,1.170158e-003
3.939922e+003,1.173533e-003
3.941851e+003,1.250125e-003
3.943780e+003,1.171023e-003
3.945708e+003,1.180463e-003
3.947636e+003,1.262143e-003
3.949565e+003,1.243010e-003
3.951493e+003,1.134232e-003
3.953422e+003,1.059003e-003
3.955351e+003,1.104183e-003
3.957279e+003,1.084760e-003
3.959208e+003,1.112923e-003
3.961136e+003,1.174971e-003
3.963064e+003,1.196936e-003
3.964993e+003,1.143746e-003
3.966921e+003,1.258463e-003
3.968850e+003,1.320407e-003
3.970779e+003,1.158759e-003
3.972707e+003,1.064770e-003
3.974635e+003,1.172677e-003
3.976564e+003,1.290873e-003
3.978492e+003,1.391046e-003
3.980421e+003,1.435101e-003
3.982349e+003,1.423612e-003
3.984278e+003,1.498722e-003
3.986207e+003,1.553923e-003
3.988135e+003,1.477882e-003
3.990063e+003,1.323022e-003
3.991992e+003,1.300685e-003
3.993920e+003,1.352362e-003
3.995849e+003,1.403816e-003
3.997777e+003,1.421966e-003
3.999706e+003,1.408152e-003
4.001635e+003,0.000000e+000
