3.991992e+002,0.000000e+000
4.011277e+002,0.000000e+000
4.030562e+002,0.000000e+000
4.049846e+002,0.000000e+000
4.069131e+002,0.000000e+000
4.088416e+002,0.000000e+000
4.107701e+002,0.000000e+000
4.126986e+002,0.000000e+000
4.146271e+002,0.000000e+000
4.165556e+002,0.000000e+000
4.184841e+002,0.000000e+000
4.204126e+002,0.000000e+000
4.223411e+002,0.000000e+000
4.242697e+002,0.000000e+000
4.261982e+002,0.000000e+000
4.281266e+002,0.000000e+000
4.300551e+002,0.000000e+000
4.319836e+002,0.000000e+000
4.339121e+002,0.000000e+000
4.358406e+002,0.000000e+000
4.377691e+002,0.000000e+000
4.396976e+002,0.000000e+000
4.416261e+002,0.000000e+000
4.435546e+002,0.000000e+000
4.454831e+002,0.000000e+000
4.474116e+002,0.000000e+000
4.493401e+002,0.000000e+000
4.512686e+002,0.000000e+000
4.531971e+002,0.000000e+000
4.551256e+002,0.000000e+000
4.570541e+002,0.000000e+000
4.589826e+002,0.000000e+000
4.609111e+002,0.000000e+000
4.628396e+002,0.000000e+000
4.647681e+002,0.000000e+000
4.666966e+002,0.000000e+000
4.686251e+002,0.000000e+000
4.705536e+002,0.000000e+000
4.724821e+002,0.000000e+000
4.744106e+002,0.000000e+000
4.763391e+002,0.000000e+000
4.782676e+002,0.000000e+000
4.801961e+002,0.000000e+000
4.821246e+002,0.000000e+000
4.840531e+002,0.000000e+000
4.859816e+002,0.000000e+000
4.879101e+002,0.000000e+000
4.898386e+002,0.000000e+000
4.917671e+002,0.000000e+000
4.936956e+002,0.000000e+000
4.956241e+002,0.000000e+000
4.975526e+002,0.000000e+000
4.994811e+002,0.000000e+000
5.014096e+002,0.000000e+000
5.033381e+002,0.000000e+000
5.052666e+002,0.000000e+000
5.071951e+002,0.000000e+000
5.091236e+002,0.000000e+000
5.110521e+002,0.000000e+000
5.129806e+002,0.000000e+000
5.149091e+002,0.000000e+000
5.168376e+002,0.000000e+000
5.187661e+002,0.000000e+000
5.206946e+002,0.000000e+000
5.226230e+002,0.000000e+000
5.245516e+002,2.810247e-004
5.264800e+002,3.014561e-004
5.284086e+002,3.586672e-004
5.303370e+002,4.315842e-004
5.322656e+002,3.682403e-004
5.341940e+002,2.344083e-004
5.361226e+002,4.711375e-005
5.380510e+002,-2.231169e-005
5.399796e+002,-1.507029e-004
5.419081e+002,-2.472661e-004
5.438365e+002,-3.535636e-004
5.457650e+002,-2.295673e-004
5.476935e+002,-1.367638e-004
5.496221e+002,-4.700478e-005
5.515505e+002,-9.188987e-005
5.534790e+002,-3.581215e-005
5.554075e+002,-2.190843e-005
5.573361e+002,1.288950e-006
5.592645e+002,-2.402440e-005
5.611931e+002,-6.100535e-005
5.631215e+002,-1.787581e-005
5.650500e+002,8.092914e-005
5.669785e+002,1.104465e-004
5.689070e+002,1.871502e-004
5.708355e+002,3.469028e-004
5.727640e+002,6.541433e-004
5.746925e+002,8.405307e-004
5.766210e+002,1.070929e-003
5.785495e+002,1.182485e-003
5.804780e+002,1.254948e-003
5.824065e+002,1.299451e-003
5.843350e+002,1.432277e-003
5.862635e+002,1.430417e-003
5.881920e+002,1.397118e-003
5.901205e+002,1.384341e-003
5.920490e+002,1.264965e-003
5.939775e+002,1.103731e-003
5.959060e+002,1.177057e-003
5.978345e+002,1.189420e-003
5.997630e+002,1.170777e-003
6.016915e+002,1.197502e-003
6.036200e+002,1.257127e-003
6.055485e+002,1.216624e-003
6.074770e+002,1.252342e-003
6.094055e+002,1.196151e-003
6.113340e+002,1.058614e-003
6.132625e+002,7.951586e-004
6.151910e+002,6.544953e-004
6.171195e+002,6.095935e-004
6.190480e+002,6.681597e-004
6.209765e+002,7.152800e-004
6.229050e+002,8.680690e-004
6.248335e+002,9.652879e-004
6.267620e+002,9.965338e-004
6.286905e+002,8.985326e-004
6.306190e+002,9.076679e-004
6.325475e+002,9.842794e-004
6.344760e+002,1.099586e-003
6.364045e+002,1.155654e-003
6.383330e+002,1.283113e-003
6.402615e+002,1.335667e-003
6.421899e+002,1.463396e-003
6.441185e+002,1.586938e-003
6.460470e+002,1.574207e-003
6.479755e+002,1.490224e-003
6.499039e+002,1.592271e-003
6.518325e+002,1.765238e-003
6.537610e+002,1.950471e-003
6.556895e+002,1.982063e-003
6.576179e+002,2.021115e-003
6.595464e+002,2.130443e-003
6.614750e+002,2.336916e-003
6.634034e+002,2.423894e-003
6.653319e+002,2.571950e-003
6.672604e+002,2.800889e-003
6.691890e+002,3.108371e-003
6.711174e+002,3.367426e-003
6.730460e+002,3.708718e-003
6.749745e+002,3.971718e-003
6.769030e+002,4.308829e-003
6.788314e+002,4.717819e-003
6.807599e+002,5.117195e-003
6.826885e+002,5.489465e-003
6.846169e+002,5.907657e-003
6.865454e+002,6.382840e-003
6.884739e+002,6.879324e-003
6.904025e+002,7.266814e-003
6.923309e+002,7.686689e-003
6.942594e+002,8.130653e-003
6.961879e+002,8.517999e-003
6.981165e+002,8.751871e-003
7.000449e+002,9.067751e-003
7.019734e+002,9.320870e-003
7.039019e+002,9.688821e-003
7.058304e+002,1.011183e-002
7.077589e+002,1.080118e-002
7.096874e+002,1.156196e-002
7.116159e+002,1.240407e-002
7.135444e+002,1.337492e-002
7.154729e+002,1.457606e-002
7.174014e+002,1.603414e-002
7.193299e+002,1.790379e-002
7.212584e+002,1.945973e-002
7.231869e+002,1.976912e-002
7.251154e+002,1.878572e-002
7.270439e+002,1.731177e-002
7.289724e+002,1.583550e-002
7.309009e+002,1.450810e-002
7.328294e+002,1.312249e-002
7.347579e+002,1.192301e-002
7.366864e+002,1.088816e-002
7.386149e+002,9.977939e-003
7.405434e+002,9.038236e-003
7.424719e+002,8.230882e-003
7.444004e+002,7.501805e-003
7.463289e+002,6.798524e-003
7.482574e+002,6.202674e-003
7.501859e+002,5.760759e-003
7.521144e+002,5.342301e-003
7.540428e+002,5.034985e-003
7.559714e+002,4.792206e-003
7.578999e+002,4.696896e-003
7.598284e+002,4.693381e-003
7.617568e+002,4.681475e-003
7.636854e+002,4.563127e-003
7.656139e+002,4.556946e-003
7.675424e+002,4.423933e-003
7.694709e+002,4.240569e-003
7.713994e+002,4.009265e-003
7.733279e+002,3.786936e-003
7.752563e+002,3.539605e-003
7.771849e+002,3.395772e-003
7.791134e+002,3.323153e-003
7.810419e+002,3.305322e-003
7.829703e+002,3.292453e-003
7.848989e+002,3.401175e-003
7.868274e+002,3.579963e-003
7.887559e+002,3.806572e-003
7.906843e+002,3.976746e-003
7.926129e+002,4.180791e-003
7.945414e+002,4.422544e-003
7.964698e+002,4.741825e-003
7.983983e+002,5.146908e-003
8.003268e+002,5.718600e-003
8.022554e+002,6.550249e-003
8.041838e+002,8.098992e-003
8.061123e+002,1.044546e-002
8.080408e+002,1.249490e-002
8.099694e+002,1.245183e-002
8.118978e+002,1.060185e-002
8.138263e+002,8.384615e-003
8.157548e+002,7.046701e-003
8.176833e+002,6.416244e-003
8.196118e+002,6.251883e-003
8.215403e+002,6.197248e-003
8.234689e+002,6.307064e-003
8.253973e+002,6.482992e-003
8.273258e+002,6.837040e-003
8.292543e+002,7.314650e-003
8.311829e+002,7.993706e-003
8.331113e+002,8.833844e-003
8.350398e+002,1.047334e-002
8.369683e+002,1.459605e-002
8.388969e+002,2.364348e-002
8.408253e+002,2.940236e-002
8.427538e+002,2.295264e-002
8.446823e+002,1.470608e-002
8.466108e+002,1.098333e-002
8.485393e+002,9.481613e-003
8.504678e+002,8.857645e-003
8.523963e+002,8.509381e-003
8.543248e+002,8.189430e-003
8.562533e+002,7.895108e-003
8.581818e+002,7.681159e-003
8.601103e+002,7.541901e-003
8.620388e+002,7.492600e-003
8.639673e+002,7.469535e-003
8.658958e+002,7.468602e-003
8.678243e+002,7.371303e-003
8.697528e+002,7.440802e-003
8.716813e+002,7.453442e-003
8.736098e+002,7.399336e-003
8.755383e+002,7.251611e-003
8.774668e+002,7.175814e-003
8.793953e+002,7.096922e-003
8.813238e+002,7.096106e-003
8.832523e+002,7.202050e-003
8.851808e+002,7.463491e-003
8.871093e+002,7.671509e-003
8.890378e+002,7.915393e-003
8.909663e+002,8.292012e-003
8.928948e+002,9.097066e-003
8.948232e+002,1.062187e-002
8.967518e+002,1.289501e-002
8.986803e+002,1.438266e-002
9.006088e+002,1.356011e-002
9.025372e+002,1.123724e-002
9.044658e+002,9.256598e-003
9.063943e+002,8.160595e-003
9.083228e+002,7.682076e-003
9.102512e+002,7.379523e-003
9.121797e+002,7.232867e-003
9.141083e+002,7.070526e-003
9.160367e+002,6.927237e-003
9.179653e+002,6.884011e-003
9.198937e+002,6.892791e-003
9.218223e+002,6.810399e-003
9.237507e+002,6.871460e-003
9.256793e+002,6.888648e-003
9.276077e+002,6.974088e-003
9.295363e+002,7.134048e-003
9.314647e+002,7.489512e-003
9.333932e+002,7.915031e-003
9.353217e+002,8.537097e-003
9.372502e+002,9.459654e-003
9.391787e+002,1.034979e-002
9.411072e+002,1.056277e-002
9.430358e+002,1.044067e-002
9.449642e+002,1.038549e-002
9.468928e+002,1.046788e-002
9.488212e+002,1.069144e-002
9.507498e+002,1.107108e-002
9.526782e+002,1.150181e-002
9.546068e+002,1.209987e-002
9.565352e+002,1.277034e-002
9.584637e+002,1.363307e-002
9.603922e+002,1.464279e-002
9.623207e+002,1.585916e-002
9.642492e+002,1.751358e-002
9.661777e+002,2.032963e-002
9.681062e+002,2.573859e-002
9.700347e+002,3.448990e-002
9.719632e+002,4.128646e-002
9.738917e+002,3.932149e-002
9.758202e+002,3.175651e-002
9.777487e+002,2.473998e-002
9.796772e+002,1.992583e-002
9.816057e+002,1.723925e-002
9.835342e+002,1.599849e-002
9.854627e+002,1.571020e-002
9.873912e+002,1.611811e-002
9.893197e+002,1.739170e-002
9.912482e+002,1.986054e-002
9.931767e+002,2.463052e-002
9.951052e+002,3.200167e-002
9.970337e+002,3.785292e-002
9.989622e+002,3.578542e-002
1.000891e+003,2.824919e-002
1.002819e+003,2.198732e-002
1.004748e+003,1.867565e-002
1.006676e+003,1.700894e-002
1.008605e+003,1.619023e-002
1.010533e+003,1.576916e-002
1.012462e+003,1.557679e-002
1.014390e+003,1.553293e-002
1.016319e+003,1.564921e-002
1.018247e+003,1.578178e-002
1.020176e+003,1.600249e-002
1.022104e+003,1.617858e-002
1.024033e+003,1.640220e-002
1.025961e+003,1.659345e-002
1.027890e+003,1.680543e-002
1.029818e+003,1.700931e-002
1.031747e+003,1.727007e-002
1.033675e+003,1.741698e-002
1.035604e+003,1.749983e-002
1.037532e+003,1.742328e-002
1.039461e+003,1.744793e-002
1.041389e+003,1.777010e-002
1.043318e+003,1.834493e-002
1.045246e+003,1.854208e-002
1.047175e+003,1.839910e-002
1.049103e+003,1.823886e-002
1.051032e+003,1.839319e-002
1.052960e+003,1.874641e-002
1.054889e+003,1.924570e-002
1.056817e+003,1.971571e-002
1.058746e+003,2.018807e-002
1.060674e+003,2.054147e-002
1.062603e+003,2.093380e-002
1.064531e+003,2.125153e-002
1.066460e+003,2.151520e-002
1.068388e+003,2.178757e-002
1.070317e+003,2.229608e-002
1.072245e+003,2.309025e-002
1.074174e+003,2.433217e-002
1.076102e+003,2.596241e-002
1.078031e+003,2.796481e-002
1.079959e+003,3.011744e-002
1.081888e+003,3.221260e-002
1.083816e+003,3.396637e-002
1.085745e+003,3.564088e-002
1.087673e+003,3.733317e-002
1.089602e+003,3.925474e-002
1.091530e+003,4.117941e-002
1.093459e+003,4.293020e-002
1.095387e+003,4.409781e-002
1.097316e+003,4.482213e-002
1.099244e+003,4.521862e-002
1.101173e+003,4.523405e-002
1.103101e+003,4.428839e-002
1.105030e+003,4.269763e-002
1.106958e+003,4.133214e-002
1.108887e+003,4.109014e-002
1.110815e+003,4.189993e-002
1.112744e+003,4.351137e-002
1.114672e+003,4.529925e-002
1.116601e+003,4.674441e-002
1.118529e+003,4.725632e-002
1.120458e+003,4.661937e-002
1.122386e+003,4.483943e-002
1.124315e+003,4.264203e-002
1.126243e+003,4.077065e-002
1.128172e+003,4.022127e-002
1.130100e+003,4.131665e-002
1.132029e+003,4.418685e-002
1.133957e+003,4.845411e-002
1.135885e+003,5.373392e-002
1.137814e+003,5.923115e-002
1.139743e+003,6.435660e-002
1.141671e+003,6.851178e-002
1.143600e+003,7.179512e-002
1.145528e+003,7.455111e-002
1.147457e+003,7.758242e-002
1.149385e+003,8.096999e-002
1.151314e+003,8.449910e-002
1.153242e+003,8.750264e-002
1.155171e+003,9.032638e-002
1.157099e+003,9.310761e-002
1.159028e+003,9.600614e-002
1.160956e+003,9.890725e-002
1.162885e+003,1.020937e-001
1.164813e+003,1.049411e-001
1.166742e+003,1.056553e-001
1.168670e+003,1.012225e-001
1.170599e+003,9.248947e-002
1.172527e+003,8.333997e-002
1.174456e+003,7.623229e-002
1.176384e+003,7.087640e-002
1.178313e+003,6.677026e-002
1.180241e+003,6.330258e-002
1.182170e+003,6.039944e-002
1.184098e+003,5.783058e-002
1.186027e+003,5.562079e-002
1.187955e+003,5.354160e-002
1.189884e+003,5.160515e-002
1.191812e+003,4.966363e-002
1.193740e+003,4.788235e-002
1.195669e+003,4.610539e-002
1.197598e+003,4.449379e-002
1.199526e+003,4.306723e-002
1.201455e+003,4.200064e-002
1.203383e+003,4.122711e-002
1.205312e+003,4.086901e-002
1.207240e+003,4.065311e-002
1.209168e+003,4.060376e-002
1.211097e+003,4.061633e-002
1.213026e+003,4.080191e-002
1.214954e+003,4.108213e-002
1.216883e+003,4.160316e-002
1.218811e+003,4.210465e-002
1.220740e+003,4.249832e-002
1.222668e+003,4.273839e-002
1.224596e+003,4.319587e-002
1.226525e+003,4.381264e-002
1.228453e+003,4.457886e-002
1.230382e+003,4.527391e-002
1.232311e+003,4.603555e-002
1.234239e+003,4.661629e-002
1.236167e+003,4.712322e-002
1.238096e+003,4.736534e-002
1.240025e+003,4.731099e-002
1.241953e+003,4.676961e-002
1.243882e+003,4.590109e-002
1.245810e+003,4.457037e-002
1.247739e+003,4.313952e-002
1.249667e+003,4.181764e-002
1.251595e+003,4.135294e-002
1.253524e+003,4.180997e-002
1.255453e+003,4.178269e-002
1.257381e+003,3.996782e-002
1.259310e+003,3.773808e-002
1.261238e+003,3.594711e-002
1.263167e+003,3.475747e-002
1.265095e+003,3.380037e-002
1.267023e+003,3.301705e-002
1.268952e+003,3.224126e-002
1.270880e+003,3.174414e-002
1.272809e+003,3.144064e-002
1.274738e+003,3.149371e-002
1.276666e+003,3.157365e-002
1.278594e+003,3.159882e-002
1.280523e+003,3.125185e-002
1.282451e+003,3.053863e-002
1.284380e+003,2.947504e-002
1.286308e+003,2.861502e-002
1.288237e+003,2.813010e-002
1.290166e+003,2.829684e-002
1.292094e+003,2.878937e-002
1.294022e+003,2.948807e-002
1.295951e+003,2.980418e-002
1.297879e+003,2.983621e-002
1.299808e+003,2.995192e-002
1.301736e+003,3.103117e-002
1.303665e+003,3.216639e-002
1.305594e+003,3.115905e-002
1.307522e+003,2.835182e-002
1.309450e+003,2.655539e-002
1.311379e+003,2.584767e-002
1.313307e+003,2.574617e-002
1.315236e+003,2.569220e-002
1.317164e+003,2.589560e-002
1.319093e+003,2.597326e-002
1.321021e+003,2.610569e-002
1.322950e+003,2.618876e-002
1.324878e+003,2.651444e-002
1.326807e+003,2.648689e-002
1.328735e+003,2.639681e-002
1.330664e+003,2.586487e-002
1.332592e+003,2.531576e-002
1.334521e+003,2.493884e-002
1.336449e+003,2.525313e-002
1.338378e+003,2.590886e-002
1.340306e+003,2.725564e-002
1.342235e+003,2.828161e-002
1.344163e+003,2.963581e-002
1.346092e+003,3.121317e-002
1.348021e+003,3.341363e-002
1.349949e+003,3.581861e-002
1.351877e+003,3.931633e-002
1.353806e+003,4.412755e-002
1.355734e+003,5.110569e-002
1.357663e+003,5.635373e-002
1.359591e+003,5.709296e-002
1.361520e+003,5.328728e-002
1.363448e+003,5.009013e-002
1.365377e+003,4.995019e-002
1.367305e+003,5.521835e-002
1.369234e+003,6.992372e-002
1.371162e+003,9.745871e-002
1.373091e+003,1.377238e-001
1.375019e+003,1.752952e-001
1.376948e+003,1.608559e-001
1.378876e+003,1.179748e-001
1.380805e+003,8.035922e-002
1.382733e+003,5.540596e-002
1.384662e+003,4.034549e-002
1.386590e+003,3.124437e-002
1.388519e+003,2.565360e-002
1.390447e+003,2.284655e-002
1.392376e+003,2.138932e-002
1.394304e+003,2.023884e-002
1.396233e+003,1.985521e-002
1.398161e+003,1.975037e-002
1.400090e+003,2.022782e-002
1.402018e+003,2.036601e-002
1.403947e+003,2.022159e-002
1.405875e+003,1.937962e-002
1.407804e+003,1.901802e-002
1.409732e+003,1.935118e-002
1.411661e+003,2.083726e-002
1.413589e+003,2.284780e-002
1.415518e+003,2.475727e-002
1.417446e+003,2.576648e-002
1.419375e+003,2.558010e-002
1.421303e+003,2.494016e-002
1.423232e+003,2.478766e-002
1.425160e+003,2.546169e-002
1.427089e+003,2.725235e-002
1.429017e+003,3.109066e-002
1.430946e+003,3.843889e-002
1.432874e+003,4.786918e-002
1.434803e+003,5.570141e-002
1.436731e+003,5.897672e-002
1.438660e+003,6.017960e-002
1.440588e+003,6.397033e-002
1.442517e+003,7.176237e-002
1.444445e+003,8.378024e-002
1.446374e+003,9.851451e-002
1.448302e+003,1.156615e-001
1.450231e+003,1.255400e-001
1.452159e+003,1.320258e-001
1.454088e+003,1.364712e-001
1.456016e+003,1.402569e-001
1.457945e+003,1.385453e-001
1.459873e+003,1.363381e-001
1.461802e+003,1.321509e-001
1.463730e+003,1.256790e-001
1.465659e+003,1.105751e-001
1.467587e+003,9.452677e-002
1.469516e+003,7.596588e-002
1.471444e+003,5.687633e-002
1.473373e+003,3.482453e-002
1.475301e+003,2.644921e-002
1.477230e+003,2.066013e-002
1.479158e+003,1.753046e-002
1.481087e+003,1.487603e-002
1.483015e+003,1.302805e-002
1.484944e+003,1.160073e-002
1.486872e+003,1.064197e-002
1.488801e+003,9.450365e-003
1.490729e+003,8.706171e-003
1.492658e+003,8.153243e-003
1.494586e+003,7.996047e-003
1.496515e+003,7.368254e-003
1.498443e+003,6.849669e-003
1.500372e+003,6.281383e-003
1.502300e+003,6.004121e-003
1.504229e+003,5.655140e-003
1.506157e+003,5.365357e-003
1.508086e+003,4.739260e-003
1.510014e+003,4.804781e-003
1.511943e+003,4.672086e-003
1.513871e+003,4.728001e-003
1.515800e+003,4.635267e-003
1.517728e+003,4.473489e-003
1.519657e+003,4.127888e-003
1.521585e+003,3.841463e-003
1.523514e+003,3.828401e-003
1.525442e+003,3.834851e-003
1.527371e+003,3.673932e-003
1.529299e+003,3.685981e-003
1.531228e+003,3.623405e-003
1.533156e+003,3.635995e-003
1.535085e+003,3.539227e-003
1.537013e+003,3.570013e-003
1.538942e+003,3.315261e-003
1.540870e+003,3.178682e-003
1.542799e+003,3.167288e-003
1.544727e+003,3.256407e-003
1.546656e+003,3.272379e-003
1.548584e+003,3.350051e-003
1.550513e+003,3.249530e-003
1.552441e+003,3.275275e-003
1.554370e+003,3.257768e-003
1.556298e+003,3.171325e-003
1.558227e+003,2.449488e-003
1.560155e+003,2.445675e-003
1.562084e+003,2.803423e-003
1.564012e+003,2.894284e-003
1.565941e+003,2.866857e-003
1.567869e+003,2.919186e-003
1.569798e+003,2.836363e-003
1.571726e+003,2.845796e-003
1.573655e+003,2.843035e-003
1.575583e+003,2.790431e-003
1.577512e+003,2.769174e-003
1.579440e+003,2.827333e-003
1.581369e+003,2.828531e-003
1.583297e+003,2.890302e-003
1.585226e+003,2.933694e-003
1.587154e+003,2.971264e-003
1.589083e+003,2.959106e-003
1.591011e+003,3.029509e-003
1.592940e+003,3.089102e-003
1.594868e+003,3.119944e-003
1.596797e+003,3.124973e-003
1.598725e+003,3.169259e-003
1.600654e+003,3.223687e-003
1.602582e+003,3.291748e-003
1.604511e+003,3.343776e-003
1.606439e+003,3.435710e-003
1.608368e+003,3.495762e-003
1.610296e+003,3.533024e-003
1.612225e+003,3.589235e-003
1.614153e+003,3.709251e-003
1.616082e+003,3.776817e-003
1.618010e+003,3.852913e-003
1.619939e+003,3.932821e-003
1.621867e+003,4.065186e-003
1.623796e+003,4.248142e-003
1.625724e+003,4.424920e-003
1.627653e+003,4.569318e-003
1.629581e+003,4.707979e-003
1.631510e+003,4.825827e-003
1.633438e+003,4.904738e-003
1.635367e+003,4.937906e-003
1.637295e+003,5.147392e-003
1.639224e+003,5.439529e-003
1.641152e+003,5.929606e-003
1.643081e+003,6.585220e-003
1.645009e+003,7.096520e-003
1.646938e+003,7.431712e-003
1.648866e+003,7.565789e-003
1.650795e+003,7.578537e-003
1.652723e+003,7.169060e-003
1.654652e+003,7.275095e-003
1.656580e+003,7.342344e-003
1.658509e+003,7.090338e-003
1.660437e+003,6.762862e-003
1.662366e+003,6.340561e-003
1.664294e+003,6.067915e-003
1.666223e+003,6.066926e-003
1.668151e+003,6.098822e-003
1.670080e+003,6.090974e-003
1.672008e+003,6.070659e-003
1.673937e+003,6.152807e-003
1.675865e+003,6.291358e-003
1.677794e+003,6.528299e-003
1.679722e+003,6.820513e-003
1.681651e+003,7.048130e-003
1.683579e+003,6.990965e-003
1.685508e+003,7.321849e-003
1.687436e+003,7.802596e-003
1.689365e+003,8.298818e-003
1.691293e+003,8.850612e-003
1.693222e+003,9.348512e-003
1.695150e+003,1.002830e-002
1.697079e+003,1.093921e-002
1.699007e+003,1.133442e-002
1.700936e+003,1.260427e-002
1.702864e+003,1.355844e-002
1.704793e+003,1.441385e-002
1.706721e+003,1.555584e-002
1.708650e+003,1.647625e-002
1.710578e+003,1.734728e-002
1.712507e+003,1.842456e-002
1.714435e+003,1.952033e-002
1.716364e+003,2.106014e-002
1.718292e+003,2.390342e-002
1.720221e+003,2.670778e-002
1.722149e+003,2.969606e-002
1.724078e+003,3.459376e-002
1.726006e+003,4.030230e-002
1.727935e+003,4.743111e-002
1.729863e+003,5.798339e-002
1.731792e+003,6.907041e-002
1.733720e+003,8.868153e-002
1.735649e+003,1.172599e-001
1.737577e+003,1.328107e-001
1.739506e+003,1.582157e-001
1.741434e+003,1.799766e-001
1.743363e+003,1.928703e-001
1.745291e+003,1.965115e-001
1.747220e+003,1.907001e-001
1.749148e+003,1.729320e-001
1.751077e+003,1.470297e-001
1.753005e+003,1.200330e-001
1.754934e+003,1.001680e-001
1.756862e+003,7.577120e-002
1.758791e+003,5.718287e-002
1.760719e+003,4.434992e-002
1.762648e+003,3.194718e-002
1.764576e+003,2.495502e-002
1.766505e+003,2.055872e-002
1.768433e+003,1.645936e-002
1.770362e+003,1.408642e-002
1.772290e+003,1.166540e-002
1.774219e+003,1.004750e-002
1.776147e+003,9.080265e-003
1.778076e+003,8.344606e-003
1.780004e+003,7.594611e-003
1.781933e+003,6.871618e-003
1.783861e+003,6.400783e-003
1.785790e+003,5.923040e-003
1.787718e+003,5.509254e-003
1.789646e+003,5.271573e-003
1.791575e+003,4.849467e-003
1.793504e+003,4.395917e-003
1.795432e+003,4.172325e-003
1.797361e+003,3.943555e-003
1.799289e+003,3.685344e-003
1.801218e+003,3.398452e-003
1.803146e+003,3.221784e-003
1.805074e+003,3.037799e-003
1.807003e+003,2.823923e-003
1.808932e+003,2.619103e-003
1.810860e+003,2.362523e-003
1.812789e+003,2.046853e-003
1.814717e+003,1.737531e-003
1.816646e+003,1.464337e-003
1.818574e+003,1.704600e-003
1.820502e+003,1.858190e-003
1.822431e+003,1.906034e-003
1.824360e+003,1.865532e-003
1.826288e+003,1.698524e-003
1.828217e+003,1.567848e-003
1.830145e+003,1.315054e-003
1.832073e+003,1.094058e-003
1.834002e+003,1.027551e-003
1.835931e+003,9.958930e-004
1.837859e+003,1.059871e-003
1.839788e+003,9.968281e-004
1.841716e+003,1.034133e-003
1.843645e+003,8.918531e-004
1.845573e+003,6.067343e-004
1.847501e+003,4.019141e-004
1.849430e+003,3.717020e-004
1.851359e+003,4.845485e-004
1.853287e+003,5.423836e-004
1.855216e+003,3.989972e-004
1.857144e+003,2.539083e-004
1.859073e+003,1.869425e-004
1.861001e+003,2.567731e-004
1.862929e+003,2.182834e-004
1.864858e+003,1.173057e-004
1.866787e+003,1.211464e-005
1.868715e+003,-7.928163e-005
1.870644e+003,-2.064854e-004
1.872572e+003,-1.005232e-004
1.874500e+003,-2.652742e-004
1.876429e+003,-2.902038e-004
1.878357e+003,-2.576597e-004
1.880286e+003,-1.990646e-004
1.882215e+003,-3.348626e-004
1.884143e+003,-4.833564e-004
1.886072e+003,-6.065443e-004
1.888000e+003,-4.864074e-004
1.889928e+003,-4.664138e-004
1.891857e+003,-4.823394e-004
1.893785e+003,-5.506314e-004
1.895714e+003,-3.731661e-004
1.897643e+003,-5.283542e-004
1.899571e+003,-5.211756e-004
1.901500e+003,-5.142651e-004
1.903428e+003,-5.073585e-004
1.905356e+003,-5.004667e-004
1.907285e+003,-4.935786e-004
1.909213e+003,-4.867017e-004
1.911142e+003,-4.798323e-004
1.913071e+003,-4.729703e-004
1.914999e+003,-4.661232e-004
1.916927e+003,-4.592799e-004
1.918856e+003,-4.524477e-004
1.920784e+003,-4.456230e-004
1.922713e+003,-4.388057e-004
1.924641e+003,-4.319958e-004
1.926570e+003,-4.251972e-004
1.928499e+003,-4.184060e-004
1.930427e+003,-4.116297e-004
1.932355e+003,-4.048608e-004
1.934284e+003,-3.980957e-004
1.936212e+003,-3.913417e-004
1.938141e+003,-3.845990e-004
1.940070e+003,-3.778599e-004
1.941998e+003,-3.711320e-004
1.943927e+003,-3.644153e-004
1.945855e+003,-3.577098e-004
1.947783e+003,-3.510080e-004
1.949712e+003,-3.443137e-004
1.951640e+003,-3.376268e-004
1.953569e+003,-3.309585e-004
1.955498e+003,-3.242902e-004
1.957426e+003,-3.176369e-004
1.959354e+003,-3.109872e-004
1.961283e+003,-3.043525e-004
1.963211e+003,-2.977178e-004
1.965140e+003,-2.911016e-004
1.967068e+003,-2.844855e-004
1.968997e+003,-2.778843e-004
1.970926e+003,-2.712868e-004
1.972854e+003,-2.647042e-004
1.974782e+003,-2.581216e-004
1.976711e+003,-2.515577e-004
1.978639e+003,-2.449974e-004
1.980568e+003,-2.384484e-004
1.982496e+003,-2.319068e-004
1.984425e+003,-2.253726e-004
1.986354e+003,-2.188496e-004
1.988282e+003,-2.123378e-004
1.990210e+003,-2.058297e-004
1.992139e+003,-1.993328e-004
1.994067e+003,-1.928434e-004
1.995996e+003,-1.863614e-004
1.997924e+003,-1.798943e-004
1.999853e+003,-1.734309e-004
2.001781e+003,-1.669824e-004
2.003710e+003,-1.605339e-004
2.005638e+003,-1.541041e-004
2.007567e+003,-1.476742e-004
2.009495e+003,-1.412556e-004
2.011424e+003,-1.348481e-004
2.013352e+003,-1.284480e-004
2.015281e+003,-1.220554e-004
2.017209e+003,-1.156740e-004
2.019138e+003,-1.093000e-004
2.021066e+003,-1.029335e-004
2.022995e+003,-9.658560e-005
2.024923e+003,-9.023398e-005
2.026852e+003,-8.389726e-005
2.028781e+003,-7.756799e-005
2.030709e+003,-7.124618e-005
2.032637e+003,-6.493554e-005
2.034566e+003,-5.863607e-005
2.036494e+003,-5.234033e-005
2.038423e+003,-4.605576e-005
2.040351e+003,-3.978238e-005
2.042280e+003,-3.351271e-005
2.044208e+003,-2.725422e-005
2.046137e+003,-2.100691e-005
2.048065e+003,-1.476705e-005
2.049994e+003,-8.534640e-006
2.051922e+003,-2.309680e-006
2.053851e+003,3.904104e-006
2.055779e+003,1.011044e-005
2.057708e+003,1.630560e-005
2.059636e+003,2.248958e-005
2.061565e+003,2.866983e-005
2.063493e+003,3.483519e-005
2.065422e+003,4.100055e-005
2.067350e+003,4.714727e-005
2.069279e+003,5.329400e-005
2.071207e+003,5.942583e-005
2.073136e+003,6.555766e-005
2.075064e+003,7.167086e-005
2.076993e+003,7.778034e-005
2.078921e+003,8.387491e-005
2.080850e+003,8.996576e-005
2.082778e+003,9.604543e-005
2.084707e+003,1.021214e-004
2.086635e+003,1.081899e-004
2.088564e+003,1.142398e-004
2.090492e+003,1.202822e-004
2.092421e+003,1.263246e-004
2.094349e+003,1.323484e-004
2.096278e+003,1.383647e-004
2.098206e+003,1.443774e-004
2.100135e+003,1.503825e-004
2.102063e+003,1.563728e-004
2.103992e+003,1.623556e-004
2.105920e+003,1.683347e-004
2.107849e+003,1.742989e-004
2.109777e+003,1.802519e-004
2.111706e+003,1.862049e-004
2.113634e+003,1.921467e-004
2.115563e+003,1.980737e-004
2.117491e+003,2.039932e-004
2.119420e+003,2.099089e-004
2.121348e+003,2.158135e-004
2.123277e+003,2.217069e-004
2.125205e+003,2.275929e-004
2.127134e+003,2.334714e-004
2.129062e+003,2.393425e-004
2.130991e+003,2.451986e-004
2.132919e+003,2.510510e-004
2.134848e+003,2.568960e-004
2.136776e+003,2.627224e-004
2.138705e+003,2.685525e-004
2.140633e+003,2.743676e-004
2.142562e+003,2.801791e-004
2.144490e+003,2.859682e-004
2.146419e+003,2.917610e-004
2.148347e+003,2.975427e-004
2.150276e+003,3.033094e-004
2.152204e+003,3.090762e-004
2.154133e+003,3.148280e-004
2.156061e+003,3.205761e-004
2.157990e+003,3.263131e-004
2.159918e+003,3.320351e-004
2.161847e+003,3.377572e-004
2.163775e+003,3.434643e-004
2.165704e+003,3.491603e-004
2.167632e+003,3.548563e-004
2.169561e+003,3.605373e-004
2.171489e+003,3.662109e-004
2.173418e+003,3.718808e-004
2.175346e+003,3.775321e-004
2.177275e+003,3.831796e-004
2.179203e+003,3.888197e-004
2.181132e+003,3.944524e-004
2.183060e+003,4.000701e-004
2.184989e+003,4.056804e-004
2.186917e+003,4.112870e-004
2.188846e+003,4.168823e-004
2.190774e+003,4.224665e-004
2.192703e+003,4.280396e-004
2.194631e+003,4.336089e-004
2.196560e+003,4.391670e-004
2.198488e+003,4.447177e-004
2.200417e+003,4.502647e-004
2.202345e+003,4.557967e-004
2.204274e+003,4.613213e-004
2.206202e+003,4.668348e-004
2.208131e+003,4.723407e-004
2.210059e+003,4.778355e-004
2.211988e+003,4.833154e-004
2.213916e+003,4.887991e-004
2.215845e+003,4.942678e-004
2.217773e+003,4.997365e-004
2.219702e+003,5.051866e-004
2.221630e+003,5.106293e-004
2.223559e+003,5.160645e-004
2.225487e+003,5.214922e-004
2.227416e+003,5.269088e-004
2.229344e+003,5.323142e-004
2.231273e+003,5.377196e-004
2.233201e+003,5.431101e-004
2.235130e+003,5.484894e-004
2.237058e+003,5.538650e-004
2.238987e+003,5.592257e-004
2.240915e+003,5.645789e-004
2.242844e+003,5.699284e-004
2.244772e+003,5.752705e-004
2.246701e+003,5.805939e-004
2.248629e+003,5.859211e-004
2.250558e+003,5.912296e-004
2.252486e+003,5.965307e-004
2.254415e+003,6.018244e-004
2.256343e+003,6.071106e-004
2.258272e+003,6.123818e-004
2.260200e+003,6.176494e-004
2.262129e+003,6.229095e-004
2.264057e+003,6.281585e-004
2.265986e+003,6.333925e-004
2.267914e+003,6.386265e-004
2.269843e+003,6.438494e-004
2.271771e+003,6.490611e-004
2.273700e+003,6.542653e-004
2.275628e+003,6.594695e-004
2.277557e+003,6.646551e-004
2.279485e+003,6.698295e-004
2.281414e+003,6.750003e-004
2.283342e+003,6.801561e-004
2.285271e+003,6.853081e-004
2.287199e+003,6.904528e-004
2.289128e+003,6.955899e-004
2.291056e+003,7.007197e-004
2.292985e+003,7.058308e-004
2.294913e+003,7.109381e-004
2.296842e+003,7.160380e-004
2.298770e+003,7.211305e-004
2.300699e+003,7.262118e-004
2.302627e+003,7.312819e-004
2.304556e+003,7.363483e-004
2.306484e+003,7.413998e-004
2.308413e+003,7.464439e-004
2.310341e+003,7.514805e-004
2.312270e+003,7.565059e-004
2.314198e+003,7.615276e-004
2.316127e+003,7.665306e-004
2.318055e+003,7.715374e-004
2.319984e+003,7.765330e-004
2.321912e+003,7.815175e-004
2.323841e+003,7.864870e-004
2.325769e+003,7.914566e-004
2.327698e+003,7.964112e-004
2.329626e+003,8.013584e-004
2.331555e+003,8.062981e-004
2.333483e+003,8.112304e-004
2.335412e+003,8.161552e-004
2.337340e+003,8.210689e-004
2.339269e+003,8.259714e-004
2.341197e+003,8.308701e-004
2.343126e+003,8.357465e-004
2.345054e+003,8.406267e-004
2.346983e+003,8.454993e-004
2.348911e+003,8.503571e-004
2.350840e+003,8.552112e-004
2.352768e+003,8.600503e-004
2.354697e+003,8.648820e-004
2.356625e+003,8.697025e-004
2.358554e+003,8.745231e-004
2.360482e+003,8.793287e-004
2.362411e+003,8.841269e-004
2.364339e+003,8.889139e-004
2.366268e+003,8.936971e-004
2.368196e+003,8.984692e-004
2.370125e+003,9.032264e-004
2.372053e+003,9.079836e-004
2.373982e+003,9.127259e-004
2.375910e+003,9.174608e-004
2.377839e+003,9.221956e-004
2.379767e+003,9.269118e-004
2.381696e+003,9.316206e-004
2.383624e+003,9.363145e-004
2.385553e+003,9.410083e-004
2.387481e+003,9.456910e-004
2.389410e+003,9.503625e-004
2.391338e+003,9.550340e-004
2.393267e+003,9.596907e-004
2.395195e+003,9.643324e-004
2.397124e+003,9.689704e-004
2.399052e+003,9.736009e-004
2.400981e+003,9.425804e-004
2.402909e+003,8.087531e-004
2.404838e+003,8.039623e-004
2.406766e+003,9.736940e-004
2.408695e+003,1.169205e-003
2.410623e+003,1.165830e-003
2.412552e+003,1.208894e-003
2.414480e+003,1.160014e-003
2.416409e+003,1.179650e-003
2.418337e+003,1.226641e-003
2.420266e+003,1.332633e-003
2.422194e+003,1.384418e-003
2.424123e+003,1.378093e-003
2.426051e+003,1.420744e-003
2.427979e+003,1.558270e-003
2.429908e+003,1.654912e-003
2.431837e+003,1.672536e-003
2.433765e+003,1.592364e-003
2.435694e+003,1.607083e-003
2.437622e+003,1.577124e-003
2.439551e+003,1.507118e-003
2.441479e+003,1.465186e-003
2.443407e+003,1.457162e-003
2.445336e+003,1.398955e-003
2.447265e+003,1.401167e-003
2.449193e+003,1.410395e-003
2.451122e+003,1.497876e-003
2.453050e+003,1.645148e-003
2.454979e+003,1.744661e-003
2.456907e+003,1.716923e-003
2.458836e+003,1.554497e-003
2.460764e+003,1.284264e-003
2.462693e+003,1.132779e-003
2.464621e+003,1.033470e-003
2.466550e+003,1.035303e-003
2.468478e+003,1.012202e-003
2.470406e+003,1.027409e-003
2.472335e+003,1.086645e-003
2.474264e+003,1.244769e-003
2.476192e+003,1.265813e-003
2.478121e+003,1.324322e-003
2.480049e+003,1.394410e-003
2.481978e+003,1.463398e-003
2.483906e+003,1.321089e-003
2.485835e+003,1.201175e-003
2.487763e+003,1.368366e-003
2.489692e+003,1.587074e-003
2.491620e+003,1.615588e-003
2.493549e+003,1.594625e-003
2.495477e+003,1.553942e-003
2.497406e+003,1.623236e-003
2.499334e+003,1.609113e-003
2.501263e+003,1.574114e-003
2.503191e+003,1.610216e-003
2.505120e+003,1.694798e-003
2.507048e+003,1.644660e-003
2.508977e+003,1.669925e-003
2.510905e+003,1.744047e-003
2.512833e+003,1.875825e-003
2.514762e+003,1.948204e-003
2.516691e+003,2.100453e-003
2.518619e+003,2.095096e-003
2.520548e+003,1.976434e-003
2.522476e+003,2.052039e-003
2.524405e+003,2.259314e-003
2.526333e+003,2.419204e-003
2.528261e+003,2.574608e-003
2.530190e+003,2.518021e-003
2.532119e+003,2.614554e-003
2.534047e+003,2.785377e-003
2.535976e+003,2.742819e-003
2.537904e+003,2.680779e-003
2.539833e+003,2.884727e-003
2.541761e+003,3.084876e-003
2.543689e+003,3.010653e-003
2.545618e+003,2.951201e-003
2.547547e+003,3.051948e-003
2.549475e+003,3.179614e-003
2.551404e+003,3.205646e-003
2.553332e+003,3.357571e-003
2.555260e+003,3.515847e-003
2.557189e+003,3.532071e-003
2.559117e+003,3.652312e-003
2.561046e+003,3.811255e-003
2.562975e+003,4.027665e-003
2.564903e+003,4.084997e-003
2.566832e+003,4.122380e-003
2.568760e+003,4.235588e-003
2.570688e+003,4.455235e-003
2.572617e+003,4.798345e-003
2.574546e+003,5.127173e-003
2.576474e+003,5.391009e-003
2.578403e+003,5.773526e-003
2.580331e+003,5.981393e-003
2.582260e+003,6.120618e-003
2.584188e+003,6.076448e-003
2.586116e+003,5.979754e-003
2.588045e+003,5.738795e-003
2.589974e+003,5.537249e-003
2.591902e+003,5.335152e-003
2.593831e+003,5.322505e-003
2.595759e+003,5.399082e-003
2.597688e+003,5.529866e-003
2.599616e+003,5.687103e-003
2.601544e+003,5.808536e-003
2.603473e+003,5.908098e-003
2.605402e+003,6.148569e-003
2.607330e+003,6.436620e-003
2.609259e+003,6.722055e-003
2.611187e+003,6.953444e-003
2.613115e+003,7.152777e-003
2.615044e+003,7.306330e-003
2.616972e+003,7.420000e-003
2.618901e+003,7.522725e-003
2.620830e+003,7.549591e-003
2.622758e+003,7.497787e-003
2.624687e+003,7.569540e-003
2.626615e+003,7.681381e-003
2.628543e+003,7.767603e-003
2.630472e+003,7.819649e-003
2.632400e+003,7.870663e-003
2.634329e+003,7.963590e-003
2.636258e+003,8.074537e-003
2.638186e+003,8.191962e-003
2.640115e+003,8.299910e-003
2.642043e+003,8.499846e-003
2.643971e+003,8.770291e-003
2.645900e+003,8.962985e-003
2.647828e+003,9.091079e-003
2.649757e+003,9.231802e-003
2.651686e+003,9.429332e-003
2.653614e+003,9.690382e-003
2.655542e+003,9.895977e-003
2.657471e+003,1.002679e-002
2.659399e+003,1.009043e-002
2.661328e+003,1.005103e-002
2.663256e+003,9.854220e-003
2.665185e+003,9.601358e-003
2.667114e+003,9.527132e-003
2.669042e+003,9.570908e-003
2.670970e+003,9.676028e-003
2.672899e+003,9.843118e-003
2.674827e+003,9.920437e-003
2.676756e+003,9.971831e-003
2.678685e+003,1.002695e-002
2.680613e+003,1.000151e-002
2.682542e+003,9.957153e-003
2.684470e+003,9.901963e-003
2.686398e+003,9.840399e-003
2.688327e+003,9.737920e-003
2.690255e+003,9.637069e-003
2.692184e+003,9.572159e-003
2.694113e+003,9.469893e-003
2.696041e+003,9.398174e-003
2.697969e+003,9.451367e-003
2.699898e+003,9.481292e-003
2.701826e+003,9.579174e-003
2.703755e+003,9.759020e-003
2.705683e+003,1.002206e-002
2.707612e+003,1.039467e-002
2.709541e+003,1.083345e-002
2.711469e+003,1.130845e-002
2.713397e+003,1.191692e-002
2.715326e+003,1.262465e-002
2.717254e+003,1.343782e-002
2.719183e+003,1.432044e-002
2.721111e+003,1.493470e-002
2.723040e+003,1.504479e-002
2.724969e+003,1.471858e-002
2.726897e+003,1.408582e-002
2.728825e+003,1.344961e-002
2.730754e+003,1.293030e-002
2.732682e+003,1.253162e-002
2.734611e+003,1.218391e-002
2.736539e+003,1.183047e-002
2.738468e+003,1.144997e-002
2.740396e+003,1.112291e-002
2.742325e+003,1.080819e-002
2.744253e+003,1.054138e-002
2.746182e+003,1.046158e-002
2.748110e+003,1.039822e-002
2.750039e+003,1.031215e-002
2.751967e+003,1.033726e-002
2.753896e+003,1.044432e-002
2.755824e+003,1.064631e-002
2.757753e+003,1.087319e-002
2.759681e+003,1.101529e-002
2.761610e+003,1.117567e-002
2.763538e+003,1.138504e-002
2.765467e+003,1.162664e-002
2.767395e+003,1.189186e-002
2.769324e+003,1.211943e-002
2.771252e+003,1.235943e-002
2.773181e+003,1.270955e-002
2.775109e+003,1.322709e-002
2.777038e+003,1.380822e-002
2.778966e+003,1.445347e-002
2.780895e+003,1.521480e-002
2.782823e+003,1.601649e-002
2.784752e+003,1.695321e-002
2.786680e+003,1.803835e-002
2.788609e+003,1.924396e-002
2.790537e+003,2.051079e-002
2.792466e+003,2.170584e-002
2.794394e+003,2.276726e-002
2.796323e+003,2.369077e-002
2.798251e+003,2.458945e-002
2.800180e+003,2.578121e-002
2.802108e+003,2.746632e-002
2.804037e+003,2.950543e-002
2.805965e+003,3.165025e-002
2.807894e+003,3.375861e-002
2.809822e+003,3.574131e-002
2.811751e+003,3.780286e-002
2.813679e+003,4.013583e-002
2.815608e+003,4.289363e-002
2.817536e+003,4.624249e-002
2.819465e+003,5.028418e-002
2.821393e+003,5.530972e-002
2.823322e+003,6.169926e-002
2.825250e+003,7.014307e-002
2.827179e+003,8.166081e-002
2.829107e+003,9.796657e-002
2.831036e+003,1.211138e-001
2.832964e+003,1.515244e-001
2.834893e+003,1.844983e-001
2.836821e+003,2.108150e-001
2.838750e+003,2.245577e-001
2.840678e+003,2.274896e-001
2.842607e+003,2.276562e-001
2.844535e+003,2.335052e-001
2.846464e+003,2.487688e-001
2.848392e+003,2.705084e-001
2.850321e+003,2.916486e-001
2.852249e+003,3.041754e-001
2.854178e+003,3.032227e-001
2.856106e+003,2.908198e-001
2.858035e+003,2.749449e-001
2.859963e+003,2.643895e-001
2.861892e+003,2.634798e-001
2.863820e+003,2.671801e-001
2.865749e+003,2.656165e-001
2.867677e+003,2.566786e-001
2.869606e+003,2.461376e-001
2.871534e+003,2.371217e-001
2.873463e+003,2.300579e-001
2.875391e+003,2.258960e-001
2.877320e+003,2.229379e-001
2.879248e+003,2.188668e-001
2.881177e+003,2.148446e-001
2.883105e+003,2.130445e-001
2.885034e+003,2.142546e-001
2.886962e+003,2.181367e-001
2.888891e+003,2.244731e-001
2.890819e+003,2.335948e-001
2.892748e+003,2.463311e-001
2.894676e+003,2.632878e-001
2.896605e+003,2.847241e-001
2.898533e+003,3.099768e-001
2.900462e+003,3.381493e-001
2.902390e+003,3.684402e-001
2.904319e+003,3.997206e-001
2.906247e+003,4.305255e-001
2.908176e+003,4.618796e-001
2.910104e+003,4.991459e-001
2.912033e+003,5.479177e-001
2.913961e+003,6.057793e-001
2.915890e+003,6.574062e-001
2.917818e+003,6.843354e-001
2.919747e+003,6.834559e-001
2.921675e+003,6.646729e-001
2.923604e+003,6.350855e-001
2.925532e+003,5.951377e-001
2.927461e+003,5.454968e-001
2.929389e+003,4.909994e-001
2.931318e+003,4.379698e-001
2.933246e+003,3.905074e-001
2.935175e+003,3.510553e-001
2.937103e+003,3.213457e-001
2.939032e+003,3.030542e-001
2.940960e+003,2.985158e-001
2.942889e+003,3.091681e-001
2.944817e+003,3.325945e-001
2.946746e+003,3.605652e-001
2.948674e+003,3.793931e-001
2.950603e+003,3.771797e-001
2.952531e+003,3.566928e-001
2.954460e+003,3.329771e-001
2.956388e+003,3.178001e-001
2.958317e+003,3.105946e-001
2.960245e+003,3.005566e-001
2.962174e+003,2.770619e-001
2.964102e+003,2.423799e-001
2.966031e+003,2.062050e-001
2.967959e+003,1.732251e-001
2.969888e+003,1.440013e-001
2.971816e+003,1.192574e-001
2.973745e+003,9.913228e-002
2.975673e+003,8.310607e-002
2.977602e+003,7.035244e-002
2.979530e+003,6.029249e-002
2.981459e+003,5.241384e-002
2.983387e+003,4.619807e-002
2.985316e+003,4.138523e-002
2.987244e+003,3.778030e-002
2.989173e+003,3.513073e-002
2.991101e+003,3.344931e-002
2.993030e+003,3.287597e-002
2.994958e+003,3.335287e-002
2.996887e+003,3.478894e-002
2.998815e+003,3.693465e-002
3.000744e+003,3.901125e-002
3.002672e+003,4.048126e-002
3.004601e+003,4.102320e-002
3.006529e+003,4.032510e-002
3.008458e+003,3.823638e-002
3.010386e+003,3.513044e-002
3.012315e+003,3.130100e-002
3.014243e+003,2.718979e-002
3.016172e+003,2.338249e-002
3.018100e+003,2.007396e-002
3.020029e+003,1.726122e-002
3.021957e+003,1.503656e-002
3.023886e+003,1.322133e-002
3.025814e+003,1.177096e-002
3.027743e+003,1.061311e-002
3.029671e+003,9.722058e-003
3.031600e+003,9.007916e-003
3.033528e+003,8.367814e-003
3.035457e+003,7.928353e-003
3.037385e+003,7.511150e-003
3.039314e+003,7.075813e-003
3.041242e+003,6.803308e-003
3.043171e+003,6.612062e-003
3.045099e+003,6.397873e-003
3.047028e+003,6.195806e-003
3.048956e+003,6.005675e-003
3.050885e+003,5.857874e-003
3.052813e+003,5.798958e-003
3.054742e+003,5.637910e-003
3.056670e+003,5.511235e-003
3.058599e+003,5.431835e-003
3.060527e+003,5.374074e-003
3.062456e+003,5.335264e-003
3.064384e+003,5.258869e-003
3.066313e+003,5.179185e-003
3.068241e+003,5.136836e-003
3.070170e+003,4.956782e-003
3.072098e+003,4.716333e-003
3.074027e+003,4.514933e-003
3.075955e+003,4.348814e-003
3.077884e+003,4.171502e-003
3.079812e+003,4.003473e-003
3.081741e+003,3.886618e-003
3.083669e+003,3.740020e-003
3.085598e+003,3.663573e-003
3.087526e+003,3.662858e-003
3.089455e+003,3.584545e-003
3.091383e+003,3.528077e-003
3.093312e+003,3.517084e-003
3.095240e+003,3.469281e-003
3.097169e+003,3.411543e-003
3.099097e+003,3.329266e-003
3.101026e+003,3.221527e-003
3.102954e+003,3.237013e-003
3.104883e+003,3.140040e-003
3.106811e+003,3.154300e-003
3.108740e+003,3.137562e-003
3.110668e+003,3.121540e-003
3.112597e+003,3.086638e-003
3.114525e+003,3.119409e-003
3.116454e+003,3.101386e-003
3.118382e+003,2.999432e-003
3.120311e+003,2.921775e-003
3.122239e+003,2.949409e-003
3.124168e+003,3.015902e-003
3.126096e+003,3.025539e-003
3.128025e+003,3.141005e-003
3.129953e+003,3.303550e-003
3.131882e+003,3.232226e-003
3.133810e+003,3.150932e-003
3.135739e+003,3.196161e-003
3.137667e+003,3.270976e-003
3.139596e+003,3.326975e-003
3.141524e+003,3.348529e-003
3.143453e+003,3.449164e-003
3.145381e+003,3.421783e-003
3.147310e+003,3.353603e-003
3.149238e+003,3.438465e-003
3.151167e+003,3.379464e-003
3.153095e+003,3.251925e-003
3.155024e+003,3.238183e-003
3.156952e+003,3.279421e-003
3.158881e+003,3.223870e-003
3.160809e+003,3.215976e-003
3.162738e+003,3.214084e-003
3.164666e+003,3.223140e-003
3.166594e+003,3.278051e-003
3.168523e+003,3.317758e-003
3.170452e+003,3.301401e-003
3.172380e+003,3.391586e-003
3.174309e+003,3.484417e-003
3.176237e+003,3.555235e-003
3.178166e+003,3.601026e-003
3.180094e+003,3.683027e-003
3.182022e+003,3.780093e-003
3.183951e+003,3.851585e-003
3.185880e+003,3.871601e-003
3.187808e+003,3.876951e-003
3.189737e+003,3.861848e-003
3.191665e+003,3.788114e-003
3.193594e+003,3.674019e-003
3.195522e+003,3.678225e-003
3.197450e+003,3.667377e-003
3.199379e+003,3.550541e-003
3.201308e+003,3.436454e-003
3.203236e+003,3.482655e-003
3.205165e+003,3.569316e-003
3.207093e+003,3.388476e-003
3.209021e+003,3.189646e-003
3.210950e+003,3.104568e-003
3.212878e+003,2.981104e-003
3.214807e+003,2.840143e-003
3.216736e+003,2.795119e-003
3.218664e+003,2.765413e-003
3.220593e+003,2.709132e-003
3.222521e+003,2.562080e-003
3.224449e+003,2.382841e-003
3.226378e+003,2.295963e-003
3.228307e+003,2.166186e-003
3.230235e+003,2.074931e-003
3.232164e+003,2.007272e-003
3.234092e+003,1.974117e-003
3.236021e+003,1.969684e-003
3.237949e+003,1.959983e-003
3.239877e+003,1.854863e-003
3.241806e+003,1.794703e-003
3.243735e+003,1.750849e-003
3.245663e+003,1.671016e-003
3.247592e+003,1.668718e-003
3.249520e+003,1.725074e-003
3.251448e+003,1.769572e-003
3.253377e+003,1.801755e-003
3.255305e+003,1.805130e-003
3.257234e+003,1.771420e-003
3.259163e+003,1.770366e-003
3.261091e+003,1.756780e-003
3.263020e+003,1.726009e-003
3.264948e+003,1.806125e-003
3.266876e+003,1.844738e-003
3.268805e+003,1.836114e-003
3.270733e+003,1.772590e-003
3.272662e+003,1.781907e-003
3.274591e+003,1.897834e-003
3.276519e+003,1.953017e-003
3.278448e+003,1.938500e-003
3.280376e+003,1.957215e-003
3.282304e+003,1.978002e-003
3.284233e+003,1.982316e-003
3.286161e+003,1.928639e-003
3.288090e+003,1.971256e-003
3.290019e+003,2.043296e-003
3.291947e+003,2.081241e-003
3.293875e+003,2.032705e-003
3.295804e+003,2.022889e-003
3.297732e+003,1.984179e-003
3.299661e+003,1.943029e-003
3.301589e+003,1.891315e-003
3.303518e+003,1.883082e-003
3.305447e+003,1.961980e-003
3.307375e+003,2.009612e-003
3.309303e+003,1.909353e-003
3.311232e+003,1.866143e-003
3.313160e+003,1.916993e-003
3.315089e+003,1.959868e-003
3.317018e+003,1.967654e-003
3.318946e+003,1.870837e-003
3.320875e+003,1.876507e-003
3.322803e+003,1.945071e-003
3.324731e+003,2.078366e-003
3.326660e+003,2.101067e-003
3.328588e+003,2.008159e-003
3.330517e+003,1.919150e-003
3.332446e+003,1.982838e-003
3.334374e+003,2.062283e-003
3.336302e+003,2.051417e-003
3.338231e+003,2.081655e-003
3.340159e+003,2.152614e-003
3.342088e+003,2.252799e-003
3.344016e+003,2.277873e-003
3.345945e+003,2.262671e-003
3.347874e+003,2.212320e-003
3.349802e+003,2.112295e-003
3.351730e+003,2.128281e-003
3.353659e+003,2.148081e-003
3.355587e+003,2.231792e-003
3.357516e+003,2.293974e-003
3.359444e+003,2.277732e-003
3.361373e+003,2.245765e-003
3.363302e+003,2.200726e-003
3.365230e+003,2.218980e-003
3.367158e+003,2.278961e-003
3.369087e+003,2.300780e-003
3.371015e+003,2.283048e-003
3.372944e+003,2.226308e-003
3.374872e+003,2.383370e-003
3.376801e+003,2.513029e-003
3.378729e+003,2.421215e-003
3.380658e+003,2.335481e-003
3.382586e+003,2.248246e-003
3.384515e+003,2.245478e-003
3.386443e+003,2.307873e-003
3.388372e+003,2.423365e-003
3.390300e+003,2.613615e-003
3.392229e+003,2.683498e-003
3.394157e+003,2.679642e-003
3.396086e+003,2.676010e-003
3.398014e+003,2.664141e-003
3.399943e+003,2.611779e-003
3.401871e+003,2.441920e-003
3.403800e+003,2.381686e-003
3.405728e+003,2.314672e-003
3.407657e+003,2.304301e-003
3.409585e+003,2.318934e-003
3.411514e+003,2.291538e-003
3.413442e+003,2.210230e-003
3.415371e+003,2.100341e-003
3.417299e+003,2.032794e-003
3.419228e+003,2.064213e-003
3.421156e+003,2.040699e-003
3.423085e+003,2.013259e-003
3.425013e+003,2.020523e-003
3.426942e+003,2.067499e-003
3.428870e+003,2.028741e-003
3.430799e+003,1.967140e-003
3.432727e+003,2.029948e-003
3.434656e+003,2.160586e-003
3.436584e+003,2.305776e-003
3.438513e+003,2.277479e-003
3.440441e+003,2.232209e-003
3.442370e+003,2.272710e-003
3.444298e+003,2.264217e-003
3.446227e+003,2.261221e-003
3.448155e+003,2.195433e-003
3.450084e+003,2.210632e-003
3.452012e+003,2.344273e-003
3.453941e+003,2.480090e-003
3.455869e+003,2.550028e-003
3.457798e+003,2.733283e-003
3.459726e+003,2.818182e-003
3.461655e+003,2.883621e-003
3.463583e+003,2.939425e-003
3.465512e+003,3.050849e-003
3.467440e+003,3.133461e-003
3.469369e+003,3.165089e-003
3.471297e+003,3.054626e-003
3.473226e+003,3.020689e-003
3.475154e+003,3.127873e-003
3.477083e+003,3.113650e-003
3.479011e+003,3.017016e-003
3.480940e+003,2.897717e-003
3.482868e+003,2.724387e-003
3.484797e+003,2.672851e-003
3.486725e+003,2.558611e-003
3.488654e+003,2.375036e-003
3.490582e+003,2.342433e-003
3.492511e+003,2.375185e-003
3.494439e+003,2.360933e-003
3.496368e+003,2.285756e-003
3.498296e+003,2.138332e-003
3.500225e+003,2.150066e-003
3.502153e+003,2.227619e-003
3.504082e+003,2.037697e-003
3.506010e+003,1.989201e-003
3.507939e+003,1.986891e-003
3.509867e+003,1.818769e-003
3.511796e+003,1.770280e-003
3.513724e+003,1.844794e-003
3.515653e+003,1.878515e-003
3.517581e+003,1.783103e-003
3.519510e+003,1.783304e-003
3.521438e+003,2.001785e-003
3.523367e+003,2.017714e-003
3.525295e+003,1.824424e-003
3.527224e+003,1.629353e-003
3.529152e+003,1.578405e-003
3.531081e+003,1.582988e-003
3.533009e+003,1.471937e-003
3.534938e+003,1.579814e-003
3.536866e+003,1.595035e-003
3.538795e+003,1.600593e-003
3.540723e+003,1.727939e-003
3.542652e+003,1.848683e-003
3.544580e+003,1.771338e-003
3.546509e+003,1.495600e-003
3.548437e+003,1.176275e-003
3.550366e+003,1.251236e-003
3.552294e+003,1.138389e-003
3.554223e+003,8.917823e-004
3.556151e+003,9.114519e-004
3.558080e+003,9.883642e-004
3.560008e+003,1.147248e-003
3.561937e+003,1.230150e-003
3.563865e+003,1.139954e-003
3.565794e+003,1.106136e-003
3.567722e+003,4.374757e-004
3.569651e+003,1.714602e-004
3.571579e+003,3.730357e-004
3.573508e+003,4.641339e-004
3.575436e+003,3.260076e-004
3.577365e+003,2.405420e-004
3.579293e+003,1.911148e-004
3.581222e+003,2.999976e-004
3.583150e+003,4.685819e-004
3.585079e+003,6.362349e-004
3.587007e+003,6.167889e-004
3.588936e+003,-5.324930e-005
3.590864e+003,-1.823083e-004
3.592793e+003,-8.638948e-005
3.594721e+003,-4.948676e-005
3.596650e+003,-2.026558e-004
3.598578e+003,-1.465082e-004
3.600507e+003,-3.568083e-005
3.602435e+003,-1.614541e-005
3.604364e+003,1.154393e-004
3.606292e+003,3.582612e-004
3.608221e+003,2.788603e-004
3.610149e+003,4.687160e-005
3.612078e+003,5.313754e-005
3.614006e+003,-1.140162e-004
3.615935e+003,-6.621331e-005
3.617863e+003,9.919703e-005
3.619792e+003,-2.223551e-004
3.621720e+003,-3.811046e-004
3.623649e+003,-2.301559e-004
3.625577e+003,8.401275e-005
3.627506e+003,6.419048e-004
3.629434e+003,1.068339e-004
3.631363e+003,-3.685057e-004
3.633291e+003,-3.908649e-004
3.635220e+003,-3.440157e-004
3.637148e+003,-3.123358e-004
3.639077e+003,-2.374724e-004
3.641005e+003,4.439056e-005
3.642934e+003,5.982071e-005
3.644862e+003,5.088076e-004
3.646791e+003,1.283117e-003
3.648719e+003,6.161854e-004
3.650648e+003,-7.988736e-004
3.652576e+003,-8.102581e-004
3.654505e+003,-3.096461e-004
3.656433e+003,-4.038215e-004
3.658362e+003,-4.958063e-004
3.660290e+003,-3.649965e-004
3.662219e+003,-2.361983e-004
3.664147e+003,-1.444966e-004
3.666076e+003,-5.573779e-005
3.668004e+003,3.663003e-004
3.669933e+003,5.440339e-004
3.671861e+003,-2.904981e-005
3.673790e+003,1.305640e-004
3.675718e+003,-7.765293e-004
3.677647e+003,-1.051806e-003
3.679575e+003,-7.520765e-004
3.681504e+003,-4.226044e-004
3.683432e+003,-1.180619e-004
3.685361e+003,1.966804e-004
3.687289e+003,2.657175e-004
3.689218e+003,-4.579648e-004
3.691146e+003,-4.807264e-004
3.693075e+003,-4.163161e-004
3.695003e+003,-2.868399e-004
3.696932e+003,-2.291650e-004
3.698860e+003,-1.007095e-004
3.700789e+003,2.186000e-005
3.702717e+003,-1.781583e-004
3.704646e+003,-1.008511e-004
3.706574e+003,2.811626e-004
3.708503e+003,7.397383e-004
3.710431e+003,7.256642e-004
3.712360e+003,-2.186000e-004
3.714288e+003,-4.233494e-004
3.716217e+003,-9.211153e-005
3.718145e+003,1.011938e-004
3.720074e+003,3.581420e-004
3.722002e+003,5.097166e-004
3.723931e+003,3.027692e-004
3.725859e+003,1.034886e-004
3.727788e+003,-1.786649e-005
3.729716e+003,5.110353e-004
3.731645e+003,1.110628e-003
3.733573e+003,1.163244e-003
3.735502e+003,6.067380e-004
3.737430e+003,-2.703369e-004
3.739359e+003,4.726648e-005
3.741287e+003,3.972128e-004
3.743216e+003,6.802753e-004
3.745144e+003,-1.987740e-004
3.747073e+003,-1.680851e-004
3.749001e+003,-6.332994e-006
3.750930e+003,-4.997849e-004
3.752858e+003,-7.164478e-004
3.754787e+003,-2.770424e-004
3.756715e+003,-8.581579e-005
3.758644e+003,-2.526417e-004
3.760572e+003,-3.650263e-004
3.762501e+003,-1.786426e-004
3.764429e+003,1.793802e-004
3.766358e+003,2.818555e-005
3.768286e+003,6.623566e-006
3.770215e+003,-2.382696e-004
3.772143e+003,-2.606437e-004
3.774072e+003,2.343953e-005
3.776000e+003,2.642572e-004
3.777929e+003,3.810972e-004
3.779857e+003,1.330748e-004
3.781786e+003,-1.486391e-004
3.783714e+003,-1.498759e-004
3.785643e+003,-1.064911e-004
3.787571e+003,-5.665421e-005
3.789500e+003,3.859401e-006
3.791428e+003,2.576783e-004
3.793357e+003,4.063174e-004
3.795285e+003,6.559342e-004
3.797214e+003,4.459843e-004
3.799142e+003,4.982203e-004
3.801071e+003,5.310476e-004
3.802999e+003,-4.908442e-005
3.804927e+003,1.005828e-004
3.806856e+003,-9.588897e-006
3.808785e+003,-2.270564e-004
3.810713e+003,8.294731e-005
3.812642e+003,4.460886e-004
3.814570e+003,8.990094e-004
3.816499e+003,4.057810e-004
3.818427e+003,1.937002e-004
3.820355e+003,2.452657e-004
3.822284e+003,-8.644164e-005
3.824213e+003,-1.374558e-004
3.826141e+003,3.557652e-005
3.828070e+003,3.287196e-005
3.829998e+003,1.162514e-004
3.831927e+003,2.650917e-005
3.833855e+003,1.578256e-004
3.835783e+003,3.797561e-004
3.837712e+003,1.139939e-004
3.839641e+003,-4.951507e-004
3.841569e+003,-6.114468e-004
3.843498e+003,-4.841685e-004
3.845426e+003,-4.619285e-004
3.847354e+003,2.233684e-005
3.849283e+003,6.678030e-004
3.851211e+003,9.883493e-004
3.853140e+003,6.743520e-005
3.855069e+003,-9.503663e-004
3.856997e+003,-7.627457e-004
3.858926e+003,-3.296137e-005
3.860854e+003,5.218461e-004
3.862782e+003,4.341826e-004
3.864711e+003,1.953766e-004
3.866640e+003,-3.471375e-004
3.868568e+003,-2.999902e-004
3.870497e+003,-6.377622e-004
3.872425e+003,-5.140230e-004
3.874354e+003,-4.357025e-004
3.876282e+003,-2.504662e-004
3.878210e+003,-6.698072e-006
3.880139e+003,1.494586e-004
3.882068e+003,-1.733899e-004
3.883996e+003,-3.721565e-005
3.885925e+003,-1.099929e-004
3.887853e+003,-2.231747e-004
3.889781e+003,5.711615e-005
3.891710e+003,4.886091e-005
3.893638e+003,-6.616861e-005
3.895567e+003,4.538894e-005
3.897496e+003,4.346669e-004
3.899424e+003,4.782304e-004
3.901353e+003,3.130734e-005
3.903281e+003,-2.743602e-004
3.905209e+003,-5.632639e-004
3.907138e+003,-5.568862e-004
3.909066e+003,-3.872514e-004
3.910995e+003,4.112720e-006
3.912924e+003,2.315044e-004
3.914852e+003,3.528297e-004
3.916781e+003,2.121180e-004
3.918709e+003,-2.603233e-005
3.920637e+003,-2.048612e-004
3.922566e+003,-1.450032e-004
3.924494e+003,-2.874434e-005
3.926423e+003,-9.164214e-005
3.928352e+003,1.073405e-004
3.930280e+003,1.889691e-004
3.932208e+003,7.928908e-005
3.934137e+003,-1.385286e-004
3.936065e+003,-1.550838e-004
3.937994e+003,9.623915e-005
3.939922e+003,3.205761e-004
3.941851e+003,3.095195e-004
3.943780e+003,-2.865493e-005
3.945708e+003,-6.365031e-005
3.947636e+003,9.015203e-005
3.949565e+003,9.835511e-005
3.951493e+003,4.479289e-005
3.953422e+003,4.556775e-005
3.955351e+003,5.634874e-005
3.957279e+003,2.346933e-005
3.959208e+003,5.012751e-005
3.961136e+003,1.024231e-004
3.963064e+003,1.431033e-004
3.964993e+003,1.786351e-004
3.966921e+003,2.254397e-004
3.968850e+003,2.379641e-004
3.970779e+003,1.123175e-004
3.972707e+003,1.240969e-004
3.974635e+003,2.847984e-004
3.976564e+003,3.501847e-004
3.978492e+003,2.652034e-004
3.980421e+003,2.612323e-004
3.982349e+003,3.677458e-004
3.984278e+003,4.273653e-004
3.986207e+003,4.558861e-004
3.988135e+003,4.725382e-004
3.990063e+003,4.574656e-004
3.991992e+003,3.997013e-004
3.993920e+003,3.909171e-004
3.995849e+003,4.666075e-004
3.997777e+003,5.111024e-004
3.999706e+003,5.954802e-004
4.001635e+003,0.000000e+000
