3.991992e+002,0.000000e+000
4.011277e+002,0.000000e+000
4.030562e+002,0.000000e+000
4.049846e+002,0.000000e+000
4.069131e+002,0.000000e+000
4.088416e+002,0.000000e+000
4.107701e+002,0.000000e+000
4.126986e+002,0.000000e+000
4.146271e+002,0.000000e+000
4.165556e+002,0.000000e+000
4.184841e+002,0.000000e+000
4.204126e+002,0.000000e+000
4.223411e+002,0.000000e+000
4.242697e+002,0.000000e+000
4.261982e+002,0.000000e+000
4.281266e+002,0.000000e+000
4.300551e+002,0.000000e+000
4.319836e+002,0.000000e+000
4.339121e+002,0.000000e+000
4.358406e+002,0.000000e+000
4.377691e+002,0.000000e+000
4.396976e+002,0.000000e+000
4.416261e+002,0.000000e+000
4.435546e+002,0.000000e+000
4.454831e+002,0.000000e+000
4.474116e+002,0.000000e+000
4.493401e+002,0.000000e+000
4.512686e+002,0.000000e+000
4.531971e+002,0.000000e+000
4.551256e+002,0.000000e+000
4.570541e+002,0.000000e+000
4.589826e+002,0.000000e+000
4.609111e+002,0.000000e+000
4.628396e+002,0.000000e+000
4.647681e+002,0.000000e+000
4.666966e+002,0.000000e+000
4.686251e+002,0.000000e+000
4.705536e+002,0.000000e+000
4.724821e+002,0.000000e+000
4.744106e+002,0.000000e+000
4.763391e+002,0.000000e+000
4.782676e+002,0.000000e+000
4.801961e+002,0.000000e+000
4.821246e+002,0.000000e+000
4.840531e+002,0.000000e+000
4.859816e+002,0.000000e+000
4.879101e+002,0.000000e+000
4.898386e+002,0.000000e+000
4.917671e+002,0.000000e+000
4.936956e+002,0.000000e+000
4.956241e+002,0.000000e+000
4.975526e+002,0.000000e+000
4.994811e+002,0.000000e+000
5.014096e+002,0.000000e+000
5.033381e+002,0.000000e+000
5.052666e+002,0.000000e+000
5.071951e+002,0.000000e+000
5.091236e+002,0.000000e+000
5.110521e+002,0.000000e+000
5.129806e+002,0.000000e+000
5.149091e+002,0.000000e+000
5.168376e+002,0.000000e+000
5.187661e+002,0.000000e+000
5.206946e+002,0.000000e+000
5.226230e+002,0.000000e+000
5.245516e+002,1.544412e-004
5.264800e+002,-6.030127e-005
5.284086e+002,-1.433901e-004
5.303370e+002,-3.105029e-006
5.322656e+002,-7.763505e-006
5.341940e+002,-1.459327e-004
5.361226e+002,-2.550501e-004
5.380510e+002,-2.522683e-004
5.399796e+002,-3.787186e-004
5.419081e+002,-3.937213e-004
5.438365e+002,-5.644616e-004
5.457650e+002,-7.113619e-004
5.476935e+002,-6.050775e-004
5.496221e+002,-4.768698e-004
5.515505e+002,-5.797055e-004
5.534790e+002,-4.476067e-004
5.554075e+002,-2.871631e-004
5.573361e+002,-2.820594e-004
5.592645e+002,-5.320618e-004
5.611931e+002,-5.342858e-004
5.631215e+002,-4.587444e-004
5.650500e+002,-4.030196e-004
5.669785e+002,-4.439251e-004
5.689070e+002,-3.409460e-004
5.708355e+002,-4.070504e-004
5.727640e+002,-5.121361e-004
5.746925e+002,-6.286222e-004
5.766210e+002,-6.435029e-004
5.785495e+002,-6.528953e-004
5.804780e+002,-5.286830e-004
5.824065e+002,-3.624326e-004
5.843350e+002,-3.513694e-004
5.862635e+002,-4.313774e-004
5.881920e+002,-3.858181e-004
5.901205e+002,-4.302412e-004
5.920490e+002,-4.875772e-004
5.939775e+002,-5.229088e-004
5.959060e+002,-4.429156e-004
5.978345e+002,-4.096646e-004
5.997630e+002,-4.152842e-004
6.016915e+002,-2.699075e-004
6.036200e+002,-1.445115e-004
6.055485e+002,-1.193900e-004
6.074770e+002,-6.378535e-005
6.094055e+002,-1.738090e-004
6.113340e+002,-2.575321e-004
6.132625e+002,-3.471365e-004
6.151910e+002,-4.069274e-004
6.171195e+002,-4.305867e-004
6.190480e+002,-2.991091e-004
6.209765e+002,-3.481358e-004
6.229050e+002,-2.846904e-004
6.248335e+002,-1.799893e-004
6.267620e+002,-6.519537e-005
6.286905e+002,-1.201881e-004
6.306190e+002,-1.030816e-004
6.325475e+002,-5.842838e-005
6.344760e+002,3.121048e-005
6.364045e+002,2.381392e-005
6.383330e+002,5.617645e-005
6.402615e+002,1.081713e-004
6.421899e+002,1.450842e-004
6.441185e+002,1.550606e-004
6.460470e+002,3.094003e-004
6.479755e+002,2.237512e-004
6.499039e+002,6.915443e-005
6.518325e+002,4.318077e-005
6.537610e+002,9.085704e-005
6.556895e+002,1.321705e-004
6.576179e+002,2.833353e-004
6.595464e+002,3.210120e-004
6.614750e+002,3.239801e-004
6.634034e+002,2.443036e-004
6.653319e+002,2.068784e-004
6.672604e+002,2.728188e-004
6.691890e+002,3.475770e-004
6.711174e+002,1.464384e-004
6.730460e+002,7.907581e-005
6.749745e+002,6.107520e-005
6.769030e+002,1.512822e-004
6.788314e+002,1.940252e-004
6.807599e+002,1.541255e-004
6.826885e+002,7.604994e-005
6.846169e+002,1.257826e-004
6.865454e+002,1.932541e-004
6.884739e+002,2.850266e-004
6.904025e+002,2.488503e-004
6.923309e+002,2.588965e-004
6.942594e+002,3.189603e-004
6.961879e+002,4.444700e-004
6.981165e+002,4.462209e-004
7.000449e+002,4.622992e-004
7.019734e+002,4.383959e-004
7.039019e+002,4.739342e-004
7.058304e+002,5.122013e-004
7.077589e+002,4.557129e-004
7.096874e+002,3.813077e-004
7.116159e+002,4.591411e-004
7.135444e+002,4.460709e-004
7.154729e+002,5.319864e-004
7.174014e+002,6.768862e-004
7.193299e+002,7.991111e-004
7.212584e+002,7.434040e-004
7.231869e+002,6.544366e-004
7.251154e+002,5.504545e-004
7.270439e+002,5.627861e-004
7.289724e+002,5.638544e-004
7.309009e+002,5.288944e-004
7.328294e+002,4.697209e-004
7.347579e+002,4.917262e-004
7.366864e+002,4.909281e-004
7.386149e+002,4.954711e-004
7.405434e+002,4.747128e-004
7.424719e+002,5.111713e-004
7.444004e+002,5.230475e-004
7.463289e+002,5.299989e-004
7.482574e+002,4.636068e-004
7.501859e+002,4.183268e-004
7.521144e+002,4.290761e-004
7.540428e+002,5.751327e-004
7.559714e+002,5.707275e-004
7.578999e+002,5.465914e-004
7.598284e+002,5.448293e-004
7.617568e+002,5.832147e-004
7.636854e+002,6.465614e-004
7.656139e+002,7.280055e-004
7.675424e+002,7.266942e-004
7.694709e+002,7.541450e-004
7.713994e+002,7.856814e-004
7.733279e+002,8.362634e-004
7.752563e+002,8.389000e-004
7.771849e+002,8.858796e-004
7.791134e+002,9.486740e-004
7.810419e+002,1.158001e-003
7.829703e+002,1.321991e-003
7.848989e+002,1.492935e-003
7.868274e+002,1.778253e-003
7.887559e+002,2.085024e-003
7.906843e+002,2.326315e-003
7.926129e+002,2.672427e-003
7.945414e+002,2.954016e-003
7.964698e+002,3.340914e-003
7.983983e+002,3.768026e-003
8.003268e+002,4.321285e-003
8.022554e+002,5.087662e-003
8.041838e+002,6.456319e-003
8.061123e+002,8.496779e-003
8.080408e+002,1.027117e-002
8.099694e+002,1.004164e-002
8.118978e+002,8.091424e-003
8.138263e+002,5.859707e-003
8.157548e+002,4.529756e-003
8.176833e+002,3.914922e-003
8.196118e+002,3.644366e-003
8.215403e+002,3.454376e-003
8.234689e+002,3.446991e-003
8.253973e+002,3.615384e-003
8.273258e+002,3.904788e-003
8.292543e+002,4.201392e-003
8.311829e+002,4.721241e-003
8.331113e+002,5.420128e-003
8.350398e+002,6.853774e-003
8.369683e+002,1.053028e-002
8.388969e+002,1.865906e-002
8.408253e+002,2.360731e-002
8.427538e+002,1.736608e-002
8.446823e+002,9.500075e-003
8.466108e+002,5.913435e-003
8.485393e+002,4.491953e-003
8.504678e+002,3.803652e-003
8.523963e+002,3.367065e-003
8.543248e+002,3.127602e-003
8.562533e+002,2.878522e-003
8.581818e+002,2.728852e-003
8.601103e+002,2.582266e-003
8.620388e+002,2.519031e-003
8.639673e+002,2.386268e-003
8.658958e+002,2.382655e-003
8.678243e+002,2.345363e-003
8.697528e+002,2.329309e-003
8.716813e+002,2.255629e-003
8.736098e+002,2.240893e-003
8.755383e+002,2.239599e-003
8.774668e+002,2.268209e-003
8.793953e+002,2.214845e-003
8.813238e+002,2.265353e-003
8.832523e+002,2.371835e-003
8.851808e+002,2.506548e-003
8.871093e+002,2.594556e-003
8.890378e+002,2.802650e-003
8.909663e+002,3.167447e-003
8.928948e+002,4.005297e-003
8.948232e+002,5.471773e-003
8.967518e+002,7.732065e-003
8.986803e+002,9.154690e-003
9.006088e+002,8.330522e-003
9.025372e+002,5.995853e-003
9.044658e+002,4.146750e-003
9.063943e+002,3.136626e-003
9.083228e+002,2.645687e-003
9.102512e+002,2.486375e-003
9.121797e+002,2.398358e-003
9.141083e+002,2.298693e-003
9.160367e+002,2.241260e-003
9.179653e+002,2.162359e-003
9.198937e+002,2.235742e-003
9.218223e+002,2.192057e-003
9.237507e+002,2.163542e-003
9.256793e+002,2.138065e-003
9.276077e+002,2.267884e-003
9.295363e+002,2.396023e-003
9.314647e+002,2.497328e-003
9.333932e+002,2.658134e-003
9.353217e+002,3.096014e-003
9.372502e+002,3.723025e-003
9.391787e+002,4.373698e-003
9.411072e+002,4.426051e-003
9.430358e+002,4.061192e-003
9.449642e+002,3.692906e-003
9.468928e+002,3.511096e-003
9.488212e+002,3.520472e-003
9.507498e+002,3.728332e-003
9.526782e+002,3.944119e-003
9.546068e+002,4.204882e-003
9.565352e+002,4.573017e-003
9.584637e+002,5.145101e-003
9.603922e+002,5.804746e-003
9.623207e+002,6.761580e-003
9.642492e+002,8.193625e-003
9.661777e+002,1.083007e-002
9.681062e+002,1.585258e-002
9.700347e+002,2.392666e-002
9.719632e+002,3.015547e-002
9.738917e+002,2.828874e-002
9.758202e+002,2.120246e-002
9.777487e+002,1.459880e-002
9.796772e+002,1.017041e-002
9.816057e+002,7.777880e-003
9.835342e+002,6.707454e-003
9.854627e+002,6.549467e-003
9.873912e+002,7.008836e-003
9.893197e+002,8.187163e-003
9.912482e+002,1.046489e-002
9.931767e+002,1.491863e-002
9.951052e+002,2.162877e-002
9.970337e+002,2.674490e-002
9.989622e+002,2.449492e-002
1.000891e+003,1.735720e-002
1.002819e+003,1.152957e-002
1.004748e+003,8.559949e-003
1.006676e+003,7.023334e-003
1.008605e+003,6.172718e-003
1.010533e+003,5.736975e-003
1.012462e+003,5.524839e-003
1.014390e+003,5.386711e-003
1.016319e+003,5.319419e-003
1.018247e+003,5.196426e-003
1.020176e+003,5.136204e-003
1.022104e+003,5.038152e-003
1.024033e+003,5.024820e-003
1.025961e+003,4.986638e-003
1.027890e+003,4.984245e-003
1.029818e+003,5.016870e-003
1.031747e+003,5.178054e-003
1.033675e+003,5.320870e-003
1.035604e+003,5.486140e-003
1.037532e+003,5.547431e-003
1.039461e+003,5.749521e-003
1.041389e+003,6.138806e-003
1.043318e+003,6.651613e-003
1.045246e+003,6.653093e-003
1.047175e+003,6.205994e-003
1.049103e+003,5.647174e-003
1.051032e+003,5.321173e-003
1.052960e+003,5.046004e-003
1.054889e+003,4.909407e-003
1.056817e+003,4.804770e-003
1.058746e+003,4.760902e-003
1.060674e+003,4.684852e-003
1.062603e+003,4.704451e-003
1.064531e+003,4.693709e-003
1.066460e+003,4.711860e-003
1.068388e+003,4.679417e-003
1.070317e+003,4.769774e-003
1.072245e+003,4.794545e-003
1.074174e+003,4.870216e-003
1.076102e+003,4.956941e-003
1.078031e+003,5.113445e-003
1.079959e+003,5.243757e-003
1.081888e+003,5.325253e-003
1.083816e+003,5.358442e-003
1.085745e+003,5.458389e-003
1.087673e+003,5.586421e-003
1.089602e+003,5.859667e-003
1.091530e+003,6.082844e-003
1.093459e+003,6.385368e-003
1.095387e+003,6.747344e-003
1.097316e+003,7.336281e-003
1.099244e+003,8.054840e-003
1.101173e+003,8.779427e-003
1.103101e+003,8.846745e-003
1.105030e+003,8.232545e-003
1.106958e+003,7.360699e-003
1.108887e+003,6.692094e-003
1.110815e+003,6.229283e-003
1.112744e+003,5.995971e-003
1.114672e+003,5.779945e-003
1.116601e+003,5.665831e-003
1.118529e+003,5.500146e-003
1.120458e+003,5.416326e-003
1.122386e+003,5.312336e-003
1.124315e+003,5.280097e-003
1.126243e+003,5.248782e-003
1.128172e+003,5.317838e-003
1.130100e+003,5.375370e-003
1.132029e+003,5.475364e-003
1.133957e+003,5.654410e-003
1.135885e+003,6.011957e-003
1.137814e+003,6.379343e-003
1.139743e+003,6.978041e-003
1.141671e+003,7.720624e-003
1.143600e+003,8.680658e-003
1.145528e+003,9.796638e-003
1.147457e+003,1.125154e-002
1.149385e+003,1.286526e-002
1.151314e+003,1.433659e-002
1.153242e+003,1.515739e-002
1.155171e+003,1.569875e-002
1.157099e+003,1.641255e-002
1.159028e+003,1.766581e-002
1.160956e+003,1.956457e-002
1.162885e+003,2.250923e-002
1.164813e+003,2.607029e-002
1.166742e+003,2.831452e-002
1.168670e+003,2.622931e-002
1.170599e+003,2.033488e-002
1.172527e+003,1.425580e-002
1.174456e+003,1.021888e-002
1.176384e+003,7.876266e-003
1.178313e+003,6.553402e-003
1.180241e+003,5.732981e-003
1.182170e+003,5.302092e-003
1.184098e+003,5.063917e-003
1.186027e+003,5.016299e-003
1.187955e+003,4.987797e-003
1.189884e+003,5.001346e-003
1.191812e+003,5.023501e-003
1.193740e+003,5.146977e-003
1.195669e+003,5.228637e-003
1.197598e+003,5.340992e-003
1.199526e+003,5.398936e-003
1.201455e+003,5.578302e-003
1.203383e+003,5.711782e-003
1.205312e+003,5.912536e-003
1.207240e+003,6.143869e-003
1.209168e+003,6.447556e-003
1.211097e+003,6.676256e-003
1.213026e+003,7.061238e-003
1.214954e+003,7.526810e-003
1.216883e+003,7.993626e-003
1.218811e+003,8.214282e-003
1.220740e+003,8.221325e-003
1.222668e+003,7.928935e-003
1.224596e+003,7.639604e-003
1.226525e+003,7.423852e-003
1.228453e+003,7.387789e-003
1.230382e+003,7.373046e-003
1.232311e+003,7.468957e-003
1.234239e+003,7.501815e-003
1.236167e+003,7.580312e-003
1.238096e+003,7.621080e-003
1.240025e+003,7.704560e-003
1.241953e+003,7.730262e-003
1.243882e+003,7.850433e-003
1.245810e+003,7.961567e-003
1.247739e+003,8.178864e-003
1.249667e+003,8.566055e-003
1.251595e+003,9.516282e-003
1.253524e+003,1.088829e-002
1.255453e+003,1.150917e-002
1.257381e+003,1.041245e-002
1.259310e+003,8.933568e-003
1.261238e+003,7.864133e-003
1.263167e+003,7.246703e-003
1.265095e+003,6.710401e-003
1.267023e+003,6.350692e-003
1.268952e+003,6.009616e-003
1.270880e+003,5.866714e-003
1.272809e+003,5.803565e-003
1.274738e+003,5.868645e-003
1.276666e+003,5.870502e-003
1.278594e+003,5.957732e-003
1.280523e+003,6.042177e-003
1.282451e+003,6.259434e-003
1.284380e+003,6.410969e-003
1.286308e+003,6.706733e-003
1.288237e+003,7.042130e-003
1.290166e+003,7.640466e-003
1.292094e+003,8.320287e-003
1.294022e+003,9.035861e-003
1.295951e+003,9.332463e-003
1.297879e+003,9.379962e-003
1.299808e+003,9.568959e-003
1.301736e+003,1.068754e-002
1.303665e+003,1.189150e-002
1.305594e+003,1.119968e-002
1.307522e+003,8.827662e-003
1.309450e+003,7.273959e-003
1.311379e+003,6.623862e-003
1.313307e+003,6.595382e-003
1.315236e+003,6.692488e-003
1.317164e+003,6.963428e-003
1.319093e+003,7.180704e-003
1.321021e+003,7.692091e-003
1.322950e+003,8.301983e-003
1.324878e+003,9.246232e-003
1.326807e+003,9.885548e-003
1.328735e+003,1.031093e-002
1.330664e+003,1.003110e-002
1.332592e+003,9.551421e-003
1.334521e+003,9.014068e-003
1.336449e+003,8.842295e-003
1.338378e+003,8.770360e-003
1.340306e+003,9.316502e-003
1.342235e+003,9.818457e-003
1.344163e+003,1.072658e-002
1.346092e+003,1.176309e-002
1.348021e+003,1.340257e-002
1.349949e+003,1.542849e-002
1.351877e+003,1.858331e-002
1.353806e+003,2.310198e-002
1.355734e+003,2.969466e-002
1.357663e+003,3.446494e-002
1.359591e+003,3.481419e-002
1.361520e+003,3.090730e-002
1.363448e+003,2.790309e-002
1.365377e+003,2.793226e-002
1.367305e+003,3.306175e-002
1.369234e+003,4.725354e-002
1.371162e+003,7.337016e-002
1.373091e+003,1.108451e-001
1.375019e+003,1.442140e-001
1.376948e+003,1.282456e-001
1.378876e+003,8.712661e-002
1.380805e+003,5.351347e-002
1.382733e+003,3.249172e-002
1.384662e+003,2.037770e-002
1.386590e+003,1.368787e-002
1.388519e+003,1.033955e-002
1.390447e+003,8.880073e-003
1.392376e+003,8.297112e-003
1.394304e+003,7.662980e-003
1.396233e+003,7.489195e-003
1.398161e+003,7.248823e-003
1.400090e+003,7.361377e-003
1.402018e+003,7.300913e-003
1.403947e+003,7.373115e-003
1.405875e+003,7.369628e-003
1.407804e+003,7.546738e-003
1.409732e+003,7.625915e-003
1.411661e+003,7.923834e-003
1.413589e+003,8.201417e-003
1.415518e+003,8.460745e-003
1.417446e+003,8.620732e-003
1.419375e+003,9.146171e-003
1.421303e+003,9.621102e-003
1.423232e+003,1.011343e-002
1.425160e+003,1.114613e-002
1.427089e+003,1.234437e-002
1.429017e+003,1.448987e-002
1.430946e+003,1.928890e-002
1.432874e+003,2.623080e-002
1.434803e+003,3.187127e-002
1.436731e+003,3.282284e-002
1.438660e+003,3.243843e-002
1.440588e+003,3.501372e-002
1.442517e+003,4.130142e-002
1.444445e+003,5.164699e-002
1.446374e+003,6.438202e-002
1.448302e+003,7.852983e-002
1.450231e+003,8.527473e-002
1.452159e+003,8.730717e-002
1.454088e+003,8.708033e-002
1.456016e+003,8.652962e-002
1.457945e+003,8.299889e-002
1.459873e+003,8.045057e-002
1.461802e+003,7.628617e-002
1.463730e+003,6.938215e-002
1.465659e+003,5.586348e-002
1.467587e+003,4.498665e-002
1.469516e+003,3.586388e-002
1.471444e+003,2.765863e-002
1.473373e+003,1.784028e-002
1.475301e+003,1.355138e-002
1.477230e+003,1.054608e-002
1.479158e+003,8.898722e-003
1.481087e+003,7.504569e-003
1.483015e+003,6.561009e-003
1.484944e+003,5.823828e-003
1.486872e+003,5.178183e-003
1.488801e+003,4.439827e-003
1.490729e+003,4.269844e-003
1.492658e+003,4.157107e-003
1.494586e+003,4.009794e-003
1.496515e+003,3.774628e-003
1.498443e+003,3.713019e-003
1.500372e+003,3.662946e-003
1.502300e+003,3.693147e-003
1.504229e+003,3.527459e-003
1.506157e+003,3.040638e-003
1.508086e+003,2.969472e-003
1.510014e+003,3.255686e-003
1.511943e+003,3.418628e-003
1.513871e+003,3.562858e-003
1.515800e+003,3.527679e-003
1.517728e+003,3.554957e-003
1.519657e+003,3.441045e-003
1.521585e+003,3.334245e-003
1.523514e+003,3.380319e-003
1.525442e+003,3.378179e-003
1.527371e+003,3.571002e-003
1.529299e+003,3.735319e-003
1.531228e+003,3.624711e-003
1.533156e+003,3.620593e-003
1.535085e+003,3.894249e-003
1.537013e+003,3.922567e-003
1.538942e+003,3.913963e-003
1.540870e+003,3.819754e-003
1.542799e+003,3.663220e-003
1.544727e+003,3.834940e-003
1.546656e+003,4.012827e-003
1.548584e+003,3.978984e-003
1.550513e+003,4.004631e-003
1.552441e+003,3.994936e-003
1.554370e+003,3.884882e-003
1.556298e+003,3.690878e-003
1.558227e+003,3.060680e-003
1.560155e+003,3.077649e-003
1.562084e+003,3.350001e-003
1.564012e+003,3.409388e-003
1.565941e+003,3.381159e-003
1.567869e+003,3.225157e-003
1.569798e+003,3.129460e-003
1.571726e+003,3.214870e-003
1.573655e+003,3.137123e-003
1.575583e+003,3.029959e-003
1.577512e+003,3.106888e-003
1.579440e+003,3.180852e-003
1.581369e+003,3.186589e-003
1.583297e+003,3.171790e-003
1.585226e+003,3.202531e-003
1.587154e+003,3.193956e-003
1.589083e+003,3.200505e-003
1.591011e+003,3.237028e-003
1.592940e+003,3.253343e-003
1.594868e+003,3.284566e-003
1.596797e+003,3.368720e-003
1.598725e+003,3.417669e-003
1.600654e+003,3.405256e-003
1.602582e+003,3.463855e-003
1.604511e+003,3.551232e-003
1.606439e+003,3.551880e-003
1.608368e+003,3.587736e-003
1.610296e+003,3.801452e-003
1.612225e+003,3.950184e-003
1.614153e+003,3.902072e-003
1.616082e+003,3.876226e-003
1.618010e+003,4.063519e-003
1.619939e+003,4.150907e-003
1.621867e+003,4.215818e-003
1.623796e+003,4.548885e-003
1.625724e+003,4.755078e-003
1.627653e+003,4.860736e-003
1.629581e+003,5.193654e-003
1.631510e+003,5.391071e-003
1.633438e+003,5.396927e-003
1.635367e+003,5.251314e-003
1.637295e+003,5.396117e-003
1.639224e+003,5.643900e-003
1.641152e+003,5.891578e-003
1.643081e+003,6.065357e-003
1.645009e+003,6.021310e-003
1.646938e+003,5.983576e-003
1.648866e+003,6.085135e-003
1.650795e+003,5.862478e-003
1.652723e+003,5.283337e-003
1.654652e+003,5.395597e-003
1.656580e+003,5.503330e-003
1.658509e+003,5.430212e-003
1.660437e+003,5.283171e-003
1.662366e+003,5.156249e-003
1.664294e+003,5.054072e-003
1.666223e+003,4.737135e-003
1.668151e+003,4.422495e-003
1.670080e+003,4.277973e-003
1.672008e+003,4.104106e-003
1.673937e+003,3.821246e-003
1.675865e+003,3.868653e-003
1.677794e+003,3.953287e-003
1.679722e+003,3.791448e-003
1.681651e+003,3.477231e-003
1.683579e+003,3.216118e-003
1.685508e+003,3.109777e-003
1.687436e+003,3.010694e-003
1.689365e+003,2.941217e-003
1.691293e+003,2.979359e-003
1.693222e+003,2.895707e-003
1.695150e+003,2.771717e-003
1.697079e+003,2.529899e-003
1.699007e+003,2.145255e-003
1.700936e+003,2.044210e-003
1.702864e+003,2.183020e-003
1.704793e+003,2.082966e-003
1.706721e+003,2.072791e-003
1.708650e+003,2.072658e-003
1.710578e+003,2.131414e-003
1.712507e+003,2.131371e-003
1.714435e+003,2.011647e-003
1.716364e+003,1.743037e-003
1.718292e+003,1.838572e-003
1.720221e+003,2.024420e-003
1.722149e+003,2.031554e-003
1.724078e+003,2.053866e-003
1.726006e+003,2.113141e-003
1.727935e+003,2.049346e-003
1.729863e+003,2.003692e-003
1.731792e+003,1.845479e-003
1.733720e+003,1.540063e-003
1.735649e+003,1.827117e-003
1.737577e+003,1.855578e-003
1.739506e+003,1.834236e-003
1.741434e+003,1.903722e-003
1.743363e+003,1.753356e-003
1.745291e+003,1.592794e-003
1.747220e+003,1.370238e-003
1.749148e+003,1.234580e-003
1.751077e+003,1.081510e-003
1.753005e+003,1.071535e-003
1.754934e+003,1.011882e-003
1.756862e+003,9.707697e-004
1.758791e+003,8.801129e-004
1.760719e+003,6.810073e-004
1.762648e+003,5.330592e-004
1.764576e+003,5.850010e-004
1.766505e+003,5.693063e-004
1.768433e+003,5.173665e-004
1.770362e+003,3.777314e-004
1.772290e+003,2.673063e-004
1.774219e+003,2.194364e-004
1.776147e+003,1.935810e-004
1.778076e+003,2.636947e-004
1.780004e+003,3.668573e-004
1.781933e+003,3.181025e-004
1.783861e+003,2.839845e-004
1.785790e+003,3.153030e-004
1.787718e+003,3.894623e-004
1.789646e+003,2.492052e-004
1.791575e+003,1.246966e-004
1.793504e+003,1.383368e-004
1.795432e+003,5.326234e-005
1.797361e+003,-3.181584e-005
1.799289e+003,-3.542006e-005
1.801218e+003,-7.427670e-005
1.803146e+003,-3.127567e-005
1.805074e+003,-3.886409e-005
1.807003e+003,-9.498373e-005
1.808932e+003,-1.859963e-004
1.810860e+003,-3.392212e-004
1.812789e+003,-5.631428e-004
1.814717e+003,-8.574296e-004
1.816646e+003,-1.035094e-003
1.818574e+003,-5.350523e-004
1.820502e+003,-3.777500e-004
1.822431e+003,-4.081354e-004
1.824360e+003,-3.717840e-004
1.826288e+003,-2.850611e-004
1.828217e+003,-4.810356e-004
1.830145e+003,-4.047286e-004
1.832073e+003,-3.785491e-004
1.834002e+003,-4.716236e-004
1.835931e+003,-5.251393e-004
1.837859e+003,-4.782956e-004
1.839788e+003,-4.871618e-004
1.841716e+003,-7.630754e-004
1.843645e+003,-1.105936e-003
1.845573e+003,-9.357966e-004
1.847501e+003,-8.516759e-004
1.849430e+003,-8.730330e-004
1.851359e+003,-7.937215e-004
1.853287e+003,-5.927291e-004
1.855216e+003,-5.816985e-004
1.857144e+003,-5.335379e-004
1.859073e+003,-7.407758e-004
1.861001e+003,-8.889642e-004
1.862929e+003,-9.524971e-004
1.864858e+003,-8.771438e-004
1.866787e+003,-8.996539e-004
1.868715e+003,-9.556152e-004
1.870644e+003,-1.089675e-003
1.872572e+003,-1.094179e-003
1.874500e+003,-1.106843e-003
1.876429e+003,-1.044013e-003
1.878357e+003,-1.103325e-003
1.880286e+003,-1.260286e-003
1.882215e+003,-1.381055e-003
1.884143e+003,-1.252141e-003
1.886072e+003,-1.357282e-003
1.888000e+003,-1.375441e-003
1.889928e+003,-1.262387e-003
1.891857e+003,-1.199741e-003
1.893785e+003,-1.268063e-003
1.895714e+003,-1.008261e-003
1.897643e+003,-9.939782e-004
1.899571e+003,-1.028337e-003
1.901500e+003,-1.019552e-003
1.903428e+003,-1.010774e-003
1.905356e+003,-1.001997e-003
1.907285e+003,-9.932294e-004
1.909213e+003,-9.844583e-004
1.911142e+003,-9.756945e-004
1.913071e+003,-9.669326e-004
1.914999e+003,-9.581782e-004
1.916927e+003,-9.494238e-004
1.918856e+003,-9.406786e-004
1.920784e+003,-9.319317e-004
1.922713e+003,-9.231921e-004
1.924641e+003,-9.144563e-004
1.926570e+003,-9.057224e-004
1.928499e+003,-8.969922e-004
1.930427e+003,-8.882675e-004
1.932355e+003,-8.795485e-004
1.934284e+003,-8.708294e-004
1.936212e+003,-8.621160e-004
1.938141e+003,-8.534100e-004
1.940070e+003,-8.447021e-004
1.941998e+003,-8.359998e-004
1.943927e+003,-8.273013e-004
1.945855e+003,-8.186102e-004
1.947783e+003,-8.099172e-004
1.949712e+003,-8.012336e-004
1.951640e+003,-7.925536e-004
1.953569e+003,-7.838737e-004
1.955498e+003,-7.751994e-004
1.957426e+003,-7.665269e-004
1.959354e+003,-7.578619e-004
1.961283e+003,-7.492006e-004
1.963211e+003,-7.405374e-004
1.965140e+003,-7.318836e-004
1.967068e+003,-7.232316e-004
1.968997e+003,-7.145870e-004
1.970926e+003,-7.059425e-004
1.972854e+003,-6.973036e-004
1.974782e+003,-6.886683e-004
1.976711e+003,-6.800368e-004
1.978639e+003,-6.714053e-004
1.980568e+003,-6.627850e-004
1.982496e+003,-6.541647e-004
1.984425e+003,-6.455481e-004
1.986354e+003,-6.369390e-004
1.988282e+003,-6.283298e-004
1.990210e+003,-6.197281e-004
1.992139e+003,-6.111246e-004
1.994067e+003,-6.025285e-004
1.995996e+003,-5.939361e-004
1.997924e+003,-5.853493e-004
1.999853e+003,-5.767606e-004
2.001781e+003,-5.681813e-004
2.003710e+003,-5.596038e-004
2.005638e+003,-5.510338e-004
2.007567e+003,-5.424637e-004
2.009495e+003,-5.338993e-004
2.011424e+003,-5.253348e-004
2.013352e+003,-5.167741e-004
2.015281e+003,-5.082227e-004
2.017209e+003,-4.996769e-004
2.019138e+003,-4.911311e-004
2.021066e+003,-4.825871e-004
2.022995e+003,-4.740488e-004
2.024923e+003,-4.655123e-004
2.026852e+003,-4.569851e-004
2.028781e+003,-4.484579e-004
2.030709e+003,-4.399344e-004
2.032637e+003,-4.314184e-004
2.034566e+003,-4.229024e-004
2.036494e+003,-4.143920e-004
2.038423e+003,-4.058834e-004
2.040351e+003,-3.973823e-004
2.042280e+003,-3.888793e-004
2.044208e+003,-3.803894e-004
2.046137e+003,-3.718957e-004
2.048065e+003,-3.634095e-004
2.049994e+003,-3.549270e-004
2.051922e+003,-3.464483e-004
2.053851e+003,-3.379695e-004
2.055779e+003,-3.294945e-004
2.057708e+003,-3.210306e-004
2.059636e+003,-3.125668e-004
2.061565e+003,-3.041066e-004
2.063493e+003,-2.956502e-004
2.065422e+003,-2.871975e-004
2.067350e+003,-2.787523e-004
2.069279e+003,-2.703033e-004
2.071207e+003,-2.618618e-004
2.073136e+003,-2.534278e-004
2.075064e+003,-2.449937e-004
2.076993e+003,-2.365634e-004
2.078921e+003,-2.281405e-004
2.080850e+003,-2.197213e-004
2.082778e+003,-2.113022e-004
2.084707e+003,-2.028868e-004
2.086635e+003,-1.944788e-004
2.088564e+003,-1.860708e-004
2.090492e+003,-1.776703e-004
2.092421e+003,-1.692735e-004
2.094349e+003,-1.608804e-004
2.096278e+003,-1.524910e-004
2.098206e+003,-1.441017e-004
2.100135e+003,-1.357198e-004
2.102063e+003,-1.273416e-004
2.103992e+003,-1.189671e-004
2.105920e+003,-1.105964e-004
2.107849e+003,-1.022331e-004
2.109777e+003,-9.386986e-005
2.111706e+003,-8.551031e-005
2.113634e+003,-7.715076e-005
2.115563e+003,-6.880239e-005
2.117491e+003,-6.045401e-005
2.119420e+003,-5.211309e-005
2.121348e+003,-4.377216e-005
2.123277e+003,-3.543869e-005
2.125205e+003,-2.710335e-005
2.127134e+003,-1.877919e-005
2.129062e+003,-1.045316e-005
2.130991e+003,-2.134591e-006
2.132919e+003,6.183982e-006
2.134848e+003,1.449138e-005
2.136776e+003,2.280250e-005
2.138705e+003,3.110617e-005
2.140633e+003,3.940612e-005
2.142562e+003,4.770607e-005
2.144490e+003,5.599856e-005
2.146419e+003,6.428733e-005
2.148347e+003,7.256866e-005
2.150276e+003,8.084998e-005
2.152204e+003,8.912943e-005
2.154133e+003,9.740330e-005
2.156061e+003,1.056772e-004
2.157990e+003,1.139399e-004
2.159918e+003,1.222007e-004
2.161847e+003,1.304559e-004
2.163775e+003,1.387093e-004
2.165704e+003,1.469590e-004
2.167632e+003,1.552030e-004
2.169561e+003,1.634471e-004
2.171489e+003,1.716837e-004
2.173418e+003,1.799203e-004
2.175346e+003,1.881495e-004
2.177275e+003,1.963750e-004
2.179203e+003,2.045985e-004
2.181132e+003,2.128202e-004
2.183060e+003,2.210345e-004
2.184989e+003,2.292413e-004
2.186917e+003,2.374519e-004
2.188846e+003,2.456587e-004
2.190774e+003,2.538525e-004
2.192703e+003,2.620481e-004
2.194631e+003,2.702400e-004
2.196560e+003,2.784282e-004
2.198488e+003,2.866089e-004
2.200417e+003,2.947934e-004
2.202345e+003,3.029667e-004
2.204274e+003,3.111400e-004
2.206202e+003,3.193077e-004
2.208131e+003,3.274735e-004
2.210059e+003,3.356300e-004
2.211988e+003,3.437884e-004
2.213916e+003,3.519394e-004
2.215845e+003,3.600866e-004
2.217773e+003,3.682338e-004
2.219702e+003,3.763735e-004
2.221630e+003,3.845096e-004
2.223559e+003,3.926419e-004
2.225487e+003,4.007760e-004
2.227416e+003,4.088972e-004
2.229344e+003,4.170183e-004
2.231273e+003,4.251394e-004
2.233201e+003,4.332531e-004
2.235130e+003,4.413612e-004
2.237058e+003,4.494693e-004
2.238987e+003,4.575681e-004
2.240915e+003,4.656650e-004
2.242844e+003,4.737563e-004
2.244772e+003,4.818514e-004
2.246701e+003,4.899353e-004
2.248629e+003,4.980210e-004
2.250558e+003,5.060975e-004
2.252486e+003,5.141739e-004
2.254415e+003,5.222447e-004
2.256343e+003,5.303100e-004
2.258272e+003,5.383734e-004
2.260200e+003,5.464312e-004
2.262129e+003,5.544890e-004
2.264057e+003,5.625393e-004
2.265986e+003,5.705841e-004
2.267914e+003,5.786289e-004
2.269843e+003,5.866680e-004
2.271771e+003,5.947035e-004
2.273700e+003,6.027333e-004
2.275628e+003,6.107613e-004
2.277557e+003,6.187856e-004
2.279485e+003,6.268080e-004
2.281414e+003,6.348249e-004
2.283342e+003,6.428324e-004
2.285271e+003,6.508417e-004
2.287199e+003,6.588474e-004
2.289128e+003,6.668493e-004
2.291056e+003,6.748494e-004
2.292985e+003,6.828383e-004
2.294913e+003,6.908290e-004
2.296842e+003,6.988123e-004
2.298770e+003,7.067937e-004
2.300699e+003,7.147696e-004
2.302627e+003,7.227492e-004
2.304556e+003,7.307138e-004
2.306484e+003,7.386822e-004
2.308413e+003,7.466413e-004
2.310341e+003,7.546004e-004
2.312270e+003,7.625539e-004
2.314198e+003,7.705037e-004
2.316127e+003,7.784478e-004
2.318055e+003,7.863864e-004
2.319984e+003,7.943287e-004
2.321912e+003,8.022655e-004
2.323841e+003,8.101966e-004
2.325769e+003,8.181203e-004
2.327698e+003,8.260440e-004
2.329626e+003,8.339658e-004
2.331555e+003,8.418765e-004
2.333483e+003,8.497890e-004
2.335412e+003,8.576978e-004
2.337340e+003,8.655991e-004
2.339269e+003,8.734968e-004
2.341197e+003,8.813962e-004
2.343126e+003,8.892845e-004
2.345054e+003,8.971710e-004
2.346983e+003,9.050574e-004
2.348911e+003,9.129364e-004
2.350840e+003,9.208154e-004
2.352768e+003,9.286888e-004
2.354697e+003,9.365510e-004
2.356625e+003,9.444151e-004
2.358554e+003,9.522792e-004
2.360482e+003,9.601321e-004
2.362411e+003,9.679850e-004
2.364339e+003,9.758379e-004
2.366268e+003,9.836834e-004
2.368196e+003,9.915195e-004
2.370125e+003,9.993576e-004
2.372053e+003,1.007188e-003
2.373982e+003,1.015017e-003
2.375910e+003,1.022844e-003
2.377839e+003,1.030670e-003
2.379767e+003,1.038486e-003
2.381696e+003,1.046296e-003
2.383624e+003,1.054106e-003
2.385553e+003,1.061914e-003
2.387481e+003,1.069715e-003
2.389410e+003,1.077512e-003
2.391338e+003,1.085309e-003
2.393267e+003,1.093099e-003
2.395195e+003,1.100888e-003
2.397124e+003,1.108667e-003
2.399052e+003,1.116445e-003
2.400981e+003,1.077380e-003
2.402909e+003,1.033017e-003
2.404838e+003,1.131171e-003
2.406766e+003,1.341349e-003
2.408695e+003,1.532556e-003
2.410623e+003,1.452919e-003
2.412552e+003,1.375280e-003
2.414480e+003,1.304664e-003
2.416409e+003,1.355948e-003
2.418337e+003,1.377767e-003
2.420266e+003,1.456609e-003
2.422194e+003,1.557419e-003
2.424123e+003,1.614489e-003
2.426051e+003,1.774043e-003
2.427979e+003,1.971902e-003
2.429908e+003,1.962326e-003
2.431837e+003,1.965070e-003
2.433765e+003,1.954969e-003
2.435694e+003,1.854781e-003
2.437622e+003,1.843225e-003
2.439551e+003,1.907138e-003
2.441479e+003,1.853362e-003
2.443407e+003,1.950972e-003
2.445336e+003,1.911854e-003
2.447265e+003,2.044650e-003
2.449193e+003,1.996268e-003
2.451122e+003,1.980271e-003
2.453050e+003,2.123686e-003
2.454979e+003,2.278702e-003
2.456907e+003,2.259674e-003
2.458836e+003,2.135186e-003
2.460764e+003,1.934100e-003
2.462693e+003,1.693504e-003
2.464621e+003,1.539139e-003
2.466550e+003,1.693608e-003
2.468478e+003,1.797162e-003
2.470406e+003,1.716293e-003
2.472335e+003,1.612825e-003
2.474264e+003,1.522083e-003
2.476192e+003,1.543442e-003
2.478121e+003,1.729121e-003
2.480049e+003,1.859806e-003
2.481978e+003,1.857292e-003
2.483906e+003,1.801075e-003
2.485835e+003,1.803484e-003
2.487763e+003,1.627725e-003
2.489692e+003,1.718111e-003
2.491620e+003,1.970382e-003
2.493549e+003,2.073577e-003
2.495477e+003,1.929432e-003
2.497406e+003,1.886500e-003
2.499334e+003,1.910953e-003
2.501263e+003,1.861112e-003
2.503191e+003,1.807772e-003
2.505120e+003,1.806190e-003
2.507048e+003,1.745118e-003
2.508977e+003,1.856703e-003
2.510905e+003,2.042156e-003
2.512833e+003,2.077844e-003
2.514762e+003,2.125986e-003
2.516691e+003,2.251834e-003
2.518619e+003,2.350174e-003
2.520548e+003,2.275111e-003
2.522476e+003,2.275933e-003
2.524405e+003,2.399337e-003
2.526333e+003,2.438879e-003
2.528261e+003,2.368424e-003
2.530190e+003,2.425896e-003
2.532119e+003,2.566591e-003
2.534047e+003,2.723217e-003
2.535976e+003,2.829283e-003
2.537904e+003,2.845420e-003
2.539833e+003,3.052467e-003
2.541761e+003,3.079604e-003
2.543689e+003,3.190251e-003
2.545618e+003,3.313646e-003
2.547547e+003,3.336672e-003
2.549475e+003,3.333665e-003
2.551404e+003,3.381591e-003
2.553332e+003,3.614891e-003
2.555260e+003,3.748998e-003
2.557189e+003,3.762979e-003
2.559117e+003,3.889803e-003
2.561046e+003,4.063018e-003
2.562975e+003,4.164390e-003
2.564903e+003,4.101180e-003
2.566832e+003,4.148256e-003
2.568760e+003,4.368715e-003
2.570688e+003,4.590318e-003
2.572617e+003,4.827209e-003
2.574546e+003,5.233597e-003
2.576474e+003,5.658224e-003
2.578403e+003,6.037299e-003
2.580331e+003,6.184451e-003
2.582260e+003,6.152187e-003
2.584188e+003,5.957514e-003
2.586116e+003,5.817331e-003
2.588045e+003,5.636469e-003
2.589974e+003,5.472418e-003
2.591902e+003,5.378492e-003
2.593831e+003,5.476147e-003
2.595759e+003,5.573057e-003
2.597688e+003,5.594701e-003
2.599616e+003,5.544554e-003
2.601544e+003,5.651198e-003
2.603473e+003,5.956922e-003
2.605402e+003,6.219819e-003
2.607330e+003,6.494723e-003
2.609259e+003,6.795332e-003
2.611187e+003,7.084038e-003
2.613115e+003,7.183149e-003
2.615044e+003,7.187076e-003
2.616972e+003,7.256418e-003
2.618901e+003,7.377889e-003
2.620830e+003,7.588450e-003
2.622758e+003,7.619012e-003
2.624687e+003,7.537913e-003
2.626615e+003,7.564675e-003
2.628543e+003,7.563412e-003
2.630472e+003,7.548723e-003
2.632400e+003,7.577948e-003
2.634329e+003,7.687569e-003
2.636258e+003,7.843073e-003
2.638186e+003,7.917844e-003
2.640115e+003,8.097958e-003
2.642043e+003,8.297421e-003
2.643971e+003,8.431125e-003
2.645900e+003,8.523814e-003
2.647828e+003,8.581284e-003
2.649757e+003,8.674562e-003
2.651686e+003,8.865107e-003
2.653614e+003,9.017602e-003
2.655542e+003,9.168409e-003
2.657471e+003,9.227775e-003
2.659399e+003,9.125724e-003
2.661328e+003,8.879632e-003
2.663256e+003,8.549530e-003
2.665185e+003,8.231990e-003
2.667114e+003,8.070648e-003
2.669042e+003,8.044951e-003
2.670970e+003,8.174744e-003
2.672899e+003,8.274361e-003
2.674827e+003,8.286420e-003
2.676756e+003,8.277778e-003
2.678685e+003,8.282047e-003
2.680613e+003,8.222815e-003
2.682542e+003,8.196816e-003
2.684470e+003,8.197669e-003
2.686398e+003,8.241352e-003
2.688327e+003,8.332916e-003
2.690255e+003,8.398186e-003
2.692184e+003,8.345883e-003
2.694113e+003,8.317646e-003
2.696041e+003,8.347571e-003
2.697969e+003,8.519433e-003
2.699898e+003,8.703563e-003
2.701826e+003,8.904990e-003
2.703755e+003,9.142924e-003
2.705683e+003,9.386692e-003
2.707612e+003,9.671740e-003
2.709541e+003,9.990677e-003
2.711469e+003,1.041775e-002
2.713397e+003,1.095983e-002
2.715326e+003,1.152107e-002
2.717254e+003,1.222867e-002
2.719183e+003,1.297289e-002
2.721111e+003,1.353474e-002
2.723040e+003,1.360609e-002
2.724969e+003,1.308854e-002
2.726897e+003,1.242498e-002
2.728825e+003,1.185252e-002
2.730754e+003,1.133151e-002
2.732682e+003,1.098773e-002
2.734611e+003,1.070973e-002
2.736539e+003,1.048919e-002
2.738468e+003,1.023148e-002
2.740396e+003,9.976164e-003
2.742325e+003,9.706259e-003
2.744253e+003,9.528968e-003
2.746182e+003,9.453297e-003
2.748110e+003,9.445354e-003
2.750039e+003,9.408195e-003
2.751967e+003,9.413756e-003
2.753896e+003,9.542469e-003
2.755824e+003,9.734802e-003
2.757753e+003,9.917304e-003
2.759681e+003,1.014669e-002
2.761610e+003,1.029900e-002
2.763538e+003,1.045977e-002
2.765467e+003,1.075415e-002
2.767395e+003,1.102157e-002
2.769324e+003,1.117363e-002
2.771252e+003,1.136487e-002
2.773181e+003,1.157731e-002
2.775109e+003,1.190909e-002
2.777038e+003,1.232671e-002
2.778966e+003,1.277126e-002
2.780895e+003,1.328756e-002
2.782823e+003,1.389169e-002
2.784752e+003,1.461538e-002
2.786680e+003,1.540232e-002
2.788609e+003,1.623011e-002
2.790537e+003,1.707543e-002
2.792466e+003,1.788906e-002
2.794394e+003,1.856289e-002
2.796323e+003,1.908214e-002
2.798251e+003,1.968507e-002
2.800180e+003,2.051084e-002
2.802108e+003,2.171093e-002
2.804037e+003,2.316963e-002
2.805965e+003,2.463017e-002
2.807894e+003,2.604977e-002
2.809822e+003,2.740534e-002
2.811751e+003,2.866611e-002
2.813679e+003,3.003008e-002
2.815608e+003,3.169359e-002
2.817536e+003,3.374447e-002
2.819465e+003,3.620950e-002
2.821393e+003,3.932298e-002
2.823322e+003,4.344852e-002
2.825250e+003,4.898436e-002
2.827179e+003,5.685459e-002
2.829107e+003,6.844898e-002
2.831036e+003,8.542532e-002
2.832964e+003,1.076799e-001
2.834893e+003,1.306962e-001
2.836821e+003,1.458733e-001
2.838750e+003,1.472366e-001
2.840678e+003,1.359374e-001
2.842607e+003,1.177597e-001
2.844535e+003,9.926283e-002
2.846464e+003,8.457908e-002
2.848392e+003,7.454222e-002
2.850321e+003,6.790039e-002
2.852249e+003,6.372794e-002
2.854178e+003,6.249453e-002
2.856106e+003,6.546214e-002
2.858035e+003,7.417337e-002
2.859963e+003,9.015149e-002
2.861892e+003,1.126810e-001
2.863820e+003,1.347956e-001
2.865749e+003,1.461740e-001
2.867677e+003,1.449561e-001
2.869606e+003,1.386082e-001
2.871534e+003,1.333455e-001
2.873463e+003,1.317976e-001
2.875391e+003,1.339871e-001
2.877320e+003,1.358736e-001
2.879248e+003,1.342259e-001
2.881177e+003,1.302811e-001
2.883105e+003,1.265204e-001
2.885034e+003,1.239680e-001
2.886962e+003,1.225673e-001
2.888891e+003,1.223205e-001
2.890819e+003,1.238559e-001
2.892748e+003,1.280200e-001
2.894676e+003,1.353717e-001
2.896605e+003,1.459892e-001
2.898533e+003,1.593438e-001
2.900462e+003,1.742637e-001
2.902390e+003,1.898558e-001
2.904319e+003,2.049945e-001
2.906247e+003,2.181420e-001
2.908176e+003,2.297146e-001
2.910104e+003,2.437312e-001
2.912033e+003,2.642780e-001
2.913961e+003,2.894062e-001
2.915890e+003,3.079154e-001
2.917818e+003,3.078845e-001
2.919747e+003,2.906475e-001
2.921675e+003,2.674145e-001
2.923604e+003,2.449983e-001
2.925532e+003,2.224775e-001
2.927461e+003,1.976123e-001
2.929389e+003,1.716383e-001
2.931318e+003,1.477824e-001
2.933246e+003,1.288328e-001
2.935175e+003,1.163820e-001
2.937103e+003,1.112278e-001
2.939032e+003,1.144476e-001
2.940960e+003,1.279095e-001
2.942889e+003,1.528125e-001
2.944817e+003,1.866687e-001
2.946746e+003,2.207674e-001
2.948674e+003,2.418158e-001
2.950603e+003,2.402398e-001
2.952531e+003,2.207805e-001
2.954460e+003,1.993552e-001
2.956388e+003,1.879566e-001
2.958317e+003,1.859466e-001
2.960245e+003,1.832384e-001
2.962174e+003,1.695558e-001
2.964102e+003,1.461656e-001
2.966031e+003,1.214016e-001
2.967959e+003,9.886454e-002
2.969888e+003,7.883592e-002
2.971816e+003,6.182384e-002
2.973745e+003,4.811829e-002
2.975673e+003,3.757419e-002
2.977602e+003,2.936286e-002
2.979530e+003,2.302126e-002
2.981459e+003,1.830936e-002
2.983387e+003,1.473365e-002
2.985316e+003,1.191825e-002
2.987244e+003,9.662945e-003
2.989173e+003,7.889174e-003
2.991101e+003,6.540414e-003
2.993030e+003,5.372532e-003
2.994958e+003,4.475020e-003
2.996887e+003,3.813539e-003
2.998815e+003,3.285524e-003
3.000744e+003,2.730172e-003
3.002672e+003,2.250873e-003
3.004601e+003,1.927827e-003
3.006529e+003,1.627751e-003
3.008458e+003,1.319073e-003
3.010386e+003,1.106273e-003
3.012315e+003,8.975305e-004
3.014243e+003,7.082261e-004
3.016172e+003,5.869567e-004
3.018100e+003,5.536638e-004
3.020029e+003,4.244596e-004
3.021957e+003,2.754815e-004
3.023886e+003,1.886897e-004
3.025814e+003,1.769401e-004
3.027743e+003,2.365597e-004
3.029671e+003,1.894012e-004
3.031600e+003,1.508370e-005
3.033528e+003,-6.576627e-005
3.035457e+003,-7.114559e-005
3.037385e+003,-2.390891e-005
3.039314e+003,5.115941e-005
3.041242e+003,1.385175e-004
3.043171e+003,1.389235e-004
3.045099e+003,9.732693e-005
3.047028e+003,1.378655e-004
3.048956e+003,2.774857e-004
3.050885e+003,2.571307e-004
3.052813e+003,1.915209e-004
3.054742e+003,1.464747e-004
3.056670e+003,2.112389e-004
3.058599e+003,3.005117e-004
3.060527e+003,3.793985e-004
3.062456e+003,3.981292e-004
3.064384e+003,3.652200e-004
3.066313e+003,3.399849e-004
3.068241e+003,3.368072e-004
3.070170e+003,3.327951e-004
3.072098e+003,3.666580e-004
3.074027e+003,3.746562e-004
3.075955e+003,3.739931e-004
3.077884e+003,4.066750e-004
3.079812e+003,4.939288e-004
3.081741e+003,5.177222e-004
3.083669e+003,5.556867e-004
3.085598e+003,6.016567e-004
3.087526e+003,5.622730e-004
3.089455e+003,5.312376e-004
3.091383e+003,5.571954e-004
3.093312e+003,5.168617e-004
3.095240e+003,5.457811e-004
3.097169e+003,6.106347e-004
3.099097e+003,7.068478e-004
3.101026e+003,7.815734e-004
3.102954e+003,8.132458e-004
3.104883e+003,8.325055e-004
3.106811e+003,9.105057e-004
3.108740e+003,9.633377e-004
3.110668e+003,1.011372e-003
3.112597e+003,1.008138e-003
3.114525e+003,9.949394e-004
3.116454e+003,1.062345e-003
3.118382e+003,1.059126e-003
3.120311e+003,1.033932e-003
3.122239e+003,1.165915e-003
3.124168e+003,1.410890e-003
3.126096e+003,1.558710e-003
3.128025e+003,1.542132e-003
3.129953e+003,1.576953e-003
3.131882e+003,1.509767e-003
3.133810e+003,1.527857e-003
3.135739e+003,1.650803e-003
3.137667e+003,1.812436e-003
3.139596e+003,1.862779e-003
3.141524e+003,1.915738e-003
3.143453e+003,2.039880e-003
3.145381e+003,2.062086e-003
3.147310e+003,2.052184e-003
3.149238e+003,2.103556e-003
3.151167e+003,2.136976e-003
3.153095e+003,2.130203e-003
3.155024e+003,2.128020e-003
3.156952e+003,2.154198e-003
3.158881e+003,2.246179e-003
3.160809e+003,2.216090e-003
3.162738e+003,2.236530e-003
3.164666e+003,2.410665e-003
3.166594e+003,2.501301e-003
3.168523e+003,2.441827e-003
3.170452e+003,2.430063e-003
3.172380e+003,2.562098e-003
3.174309e+003,2.617586e-003
3.176237e+003,2.680484e-003
3.178166e+003,2.764881e-003
3.180094e+003,2.841052e-003
3.182022e+003,2.932247e-003
3.183951e+003,2.998728e-003
3.185880e+003,3.123328e-003
3.187808e+003,3.197283e-003
3.189737e+003,3.139246e-003
3.191665e+003,3.198612e-003
3.193594e+003,3.318187e-003
3.195522e+003,3.282081e-003
3.197450e+003,3.115941e-003
3.199379e+003,3.138695e-003
3.201308e+003,3.235485e-003
3.203236e+003,3.247101e-003
3.205165e+003,3.236018e-003
3.207093e+003,3.217492e-003
3.209021e+003,3.151957e-003
3.210950e+003,3.144283e-003
3.212878e+003,3.030811e-003
3.214807e+003,2.899263e-003
3.216736e+003,2.838846e-003
3.218664e+003,2.924725e-003
3.220593e+003,2.956763e-003
3.222521e+003,2.889339e-003
3.224449e+003,2.838738e-003
3.226378e+003,2.775103e-003
3.228307e+003,2.677109e-003
3.230235e+003,2.703454e-003
3.232164e+003,2.739284e-003
3.234092e+003,2.653625e-003
3.236021e+003,2.650354e-003
3.237949e+003,2.661955e-003
3.239877e+003,2.666287e-003
3.241806e+003,2.719827e-003
3.243735e+003,2.723295e-003
3.245663e+003,2.754387e-003
3.247592e+003,2.818890e-003
3.249520e+003,2.890099e-003
3.251448e+003,2.992056e-003
3.253377e+003,3.060907e-003
3.255305e+003,3.021896e-003
3.257234e+003,3.024518e-003
3.259163e+003,3.112469e-003
3.261091e+003,3.166873e-003
3.263020e+003,3.210902e-003
3.264948e+003,3.309675e-003
3.266876e+003,3.386416e-003
3.268805e+003,3.463361e-003
3.270733e+003,3.395829e-003
3.272662e+003,3.404994e-003
3.274591e+003,3.627814e-003
3.276519e+003,3.590029e-003
3.278448e+003,3.496923e-003
3.280376e+003,3.604334e-003
3.282304e+003,3.588576e-003
3.284233e+003,3.599863e-003
3.286161e+003,3.799066e-003
3.288090e+003,3.909927e-003
3.290019e+003,3.964216e-003
3.291947e+003,3.925707e-003
3.293875e+003,3.803339e-003
3.295804e+003,3.908373e-003
3.297732e+003,4.020389e-003
3.299661e+003,3.993936e-003
3.301589e+003,3.785715e-003
3.303518e+003,3.771123e-003
3.305447e+003,3.825184e-003
3.307375e+003,3.712695e-003
3.309303e+003,3.648881e-003
3.311232e+003,3.692001e-003
3.313160e+003,3.639374e-003
3.315089e+003,3.632057e-003
3.317018e+003,3.655791e-003
3.318946e+003,3.615916e-003
3.320875e+003,3.505647e-003
3.322803e+003,3.536347e-003
3.324731e+003,3.644519e-003
3.326660e+003,3.675550e-003
3.328588e+003,3.688138e-003
3.330517e+003,3.778655e-003
3.332446e+003,3.856000e-003
3.334374e+003,3.843024e-003
3.336302e+003,3.858324e-003
3.338231e+003,3.940154e-003
3.340159e+003,3.961891e-003
3.342088e+003,3.998213e-003
3.344016e+003,3.985368e-003
3.345945e+003,3.929753e-003
3.347874e+003,3.873505e-003
3.349802e+003,3.777601e-003
3.351730e+003,3.720053e-003
3.353659e+003,3.839124e-003
3.355587e+003,3.927711e-003
3.357516e+003,3.856860e-003
3.359444e+003,3.757540e-003
3.361373e+003,3.769502e-003
3.363302e+003,3.703468e-003
3.365230e+003,3.632993e-003
3.367158e+003,3.638919e-003
3.369087e+003,3.658738e-003
3.371015e+003,3.618635e-003
3.372944e+003,3.584228e-003
3.374872e+003,3.561158e-003
3.376801e+003,3.557600e-003
3.378729e+003,3.561284e-003
3.380658e+003,3.556557e-003
3.382586e+003,3.481671e-003
3.384515e+003,3.415003e-003
3.386443e+003,3.393676e-003
3.388372e+003,3.365524e-003
3.390300e+003,3.314473e-003
3.392229e+003,3.321681e-003
3.394157e+003,3.393032e-003
3.396086e+003,3.293671e-003
3.398014e+003,3.200330e-003
3.399943e+003,3.195435e-003
3.401871e+003,3.145706e-003
3.403800e+003,3.189776e-003
3.405728e+003,3.245372e-003
3.407657e+003,3.184423e-003
3.409585e+003,3.056899e-003
3.411514e+003,2.958626e-003
3.413442e+003,2.946209e-003
3.415371e+003,2.995033e-003
3.417299e+003,2.845481e-003
3.419228e+003,2.738129e-003
3.421156e+003,2.784107e-003
3.423085e+003,2.698135e-003
3.425013e+003,2.626870e-003
3.426942e+003,2.681356e-003
3.428870e+003,2.632279e-003
3.430799e+003,2.555009e-003
3.432727e+003,2.592940e-003
3.434656e+003,2.650548e-003
3.436584e+003,2.508592e-003
3.438513e+003,2.341911e-003
3.440441e+003,2.366319e-003
3.442370e+003,2.357256e-003
3.444298e+003,2.310436e-003
3.446227e+003,2.240472e-003
3.448155e+003,2.167258e-003
3.450084e+003,2.121892e-003
3.452012e+003,2.105355e-003
3.453941e+003,2.183504e-003
3.455869e+003,2.137348e-003
3.457798e+003,2.045151e-003
3.459726e+003,2.031580e-003
3.461655e+003,2.103481e-003
3.463583e+003,2.063643e-003
3.465512e+003,1.982376e-003
3.467440e+003,1.933698e-003
3.469369e+003,1.947023e-003
3.471297e+003,1.900025e-003
3.473226e+003,1.876954e-003
3.475154e+003,1.935530e-003
3.477083e+003,1.828242e-003
3.479011e+003,1.550112e-003
3.480940e+003,1.482986e-003
3.482868e+003,1.575429e-003
3.484797e+003,1.547460e-003
3.486725e+003,1.426142e-003
3.488654e+003,1.467567e-003
3.490582e+003,1.538232e-003
3.492511e+003,1.497693e-003
3.494439e+003,1.478728e-003
3.496368e+003,1.551881e-003
3.498296e+003,1.444176e-003
3.500225e+003,1.181766e-003
3.502153e+003,9.722076e-004
3.504082e+003,1.127746e-003
3.506010e+003,1.208380e-003
3.507939e+003,9.820126e-004
3.509867e+003,9.454750e-004
3.511796e+003,1.048557e-003
3.513724e+003,9.815432e-004
3.515653e+003,9.206757e-004
3.517581e+003,8.814968e-004
3.519510e+003,7.817410e-004
3.521438e+003,7.307082e-004
3.523367e+003,7.428415e-004
3.525295e+003,6.878972e-004
3.527224e+003,4.820898e-004
3.529152e+003,5.287528e-004
3.531081e+003,6.508268e-004
3.533009e+003,5.441941e-004
3.534938e+003,3.281310e-004
3.536866e+003,3.948621e-004
3.538795e+003,4.356951e-004
3.540723e+003,1.060329e-004
3.542652e+003,-1.599081e-004
3.544580e+003,-1.936257e-004
3.546509e+003,-1.632050e-005
3.548437e+003,-3.168359e-005
3.550366e+003,-2.491847e-004
3.552294e+003,-4.313104e-004
3.554223e+003,-2.582557e-004
3.556151e+003,-1.864694e-004
3.558080e+003,-3.258511e-004
3.560008e+003,-3.420599e-004
3.561937e+003,-3.829598e-004
3.563865e+003,-8.051172e-004
3.565794e+003,-1.371045e-003
3.567722e+003,-1.225948e-003
3.569651e+003,-9.876117e-004
3.571579e+003,-9.062663e-004
3.573508e+003,-6.817728e-004
3.575436e+003,-6.811395e-004
3.577365e+003,-9.000003e-004
3.579293e+003,-9.653568e-004
3.581222e+003,-7.041916e-004
3.583150e+003,-7.096641e-004
3.585079e+003,-1.320653e-003
3.587007e+003,-1.709815e-003
3.588936e+003,-1.281623e-003
3.590864e+003,-1.137622e-003
3.592793e+003,-1.004446e-003
3.594721e+003,-8.671992e-004
3.596650e+003,-8.660853e-004
3.598578e+003,-1.208756e-003
3.600507e+003,-1.391515e-003
3.602435e+003,-1.208495e-003
3.604364e+003,-1.049001e-003
3.606292e+003,-1.280718e-003
3.608221e+003,-1.295399e-003
3.610149e+003,-1.335330e-003
3.612078e+003,-1.529172e-003
3.614006e+003,-1.153197e-003
3.615935e+003,-1.077503e-003
3.617863e+003,-1.386125e-003
3.619792e+003,-1.488887e-003
3.621720e+003,-1.348983e-003
3.623649e+003,-1.156889e-003
3.625577e+003,-1.247045e-003
3.627506e+003,-1.355752e-003
3.629434e+003,-1.236919e-003
3.631363e+003,-1.474172e-003
3.633291e+003,-1.451354e-003
3.635220e+003,-9.721890e-004
3.637148e+003,-8.367002e-004
3.639077e+003,-1.103714e-003
3.641005e+003,-1.203641e-003
3.642934e+003,-1.082554e-003
3.644862e+003,-1.172192e-003
3.646791e+003,-1.918096e-003
3.648719e+003,-2.524611e-003
3.650648e+003,-1.452908e-003
3.652576e+003,-1.232486e-003
3.654505e+003,-1.223695e-003
3.656433e+003,-8.906648e-004
3.658362e+003,-9.480119e-004
3.660290e+003,-1.167584e-003
3.662219e+003,-1.099326e-003
3.664147e+003,-9.235106e-004
3.666076e+003,-1.291398e-003
3.668004e+003,-2.004597e-003
3.669933e+003,-1.320802e-003
3.671861e+003,-1.082197e-003
3.673790e+003,-1.597539e-003
3.675718e+003,-1.202416e-003
3.677647e+003,-1.226664e-003
3.679575e+003,-1.293782e-003
3.681504e+003,-9.334274e-004
3.683432e+003,-5.120747e-004
3.685361e+003,-5.372837e-004
3.687289e+003,-8.573867e-004
3.689218e+003,-1.104750e-003
3.691146e+003,-1.078818e-003
3.693075e+003,-8.601286e-004
3.695003e+003,-4.977696e-004
3.696932e+003,-1.500212e-004
3.698860e+003,-3.239103e-004
3.700789e+003,-6.977990e-004
3.702717e+003,-7.091686e-004
3.704646e+003,-4.537180e-004
3.706574e+003,-3.237277e-004
3.708503e+003,-5.839318e-004
3.710431e+003,-1.143299e-003
3.712360e+003,-9.666458e-004
3.714288e+003,-7.025190e-004
3.716217e+003,-6.587990e-004
3.718145e+003,-5.258992e-004
3.720074e+003,-4.662611e-004
3.722002e+003,-6.028600e-004
3.723931e+003,-1.012329e-003
3.725859e+003,-1.040157e-003
3.727788e+003,-5.389154e-004
3.729716e+003,-3.860369e-004
3.731645e+003,-3.327392e-004
3.733573e+003,-9.128340e-004
3.735502e+003,-1.492810e-003
3.737430e+003,-9.909160e-004
3.739359e+003,-5.289912e-004
3.741287e+003,-5.361252e-004
3.743216e+003,-2.592579e-004
3.745144e+003,3.579408e-004
3.747073e+003,-2.386719e-004
3.749001e+003,-9.767227e-004
3.750930e+003,-9.706244e-004
3.752858e+003,-1.517758e-004
3.754787e+003,-8.364394e-005
3.756715e+003,5.322695e-005
3.758644e+003,6.952658e-004
3.760572e+003,7.104091e-004
3.762501e+003,2.756342e-004
3.764429e+003,5.869642e-004
3.766358e+003,8.073896e-004
3.768286e+003,2.979524e-004
3.770215e+003,-2.884120e-005
3.772143e+003,-1.749769e-005
3.774072e+003,1.159161e-004
3.776000e+003,3.000125e-004
3.777929e+003,4.627556e-004
3.779857e+003,6.631874e-004
3.781786e+003,4.075766e-004
3.783714e+003,2.552308e-004
3.785643e+003,1.850612e-004
3.787571e+003,-1.892447e-006
3.789500e+003,-4.548952e-005
3.791428e+003,-4.353374e-005
3.793357e+003,-9.789318e-005
3.795285e+003,1.450107e-004
3.797214e+003,1.815036e-004
3.799142e+003,-3.533214e-004
3.801071e+003,-6.412342e-005
3.802999e+003,-1.650192e-004
3.804927e+003,-7.124953e-004
3.806856e+003,-4.381090e-004
3.808785e+003,1.762621e-004
3.810713e+003,2.979450e-004
3.812642e+003,1.894236e-004
3.814570e+003,5.164258e-004
3.816499e+003,7.390119e-004
3.818427e+003,-1.445711e-004
3.820355e+003,-9.443909e-004
3.822284e+003,-5.227774e-004
3.824213e+003,-3.879704e-004
3.826141e+003,-3.662109e-004
3.828070e+003,-1.453236e-005
3.829998e+003,2.889000e-004
3.831927e+003,5.488135e-004
3.833855e+003,3.976785e-004
3.835783e+003,-2.184287e-004
3.837712e+003,-7.899739e-004
3.839641e+003,-8.641928e-004
3.841569e+003,-7.618703e-004
3.843498e+003,-4.268289e-004
3.845426e+003,3.441796e-005
3.847354e+003,4.630424e-004
3.849283e+003,9.011030e-004
3.851211e+003,6.815977e-004
3.853140e+003,-4.470944e-004
3.855069e+003,-1.016315e-003
3.856997e+003,-5.659387e-004
3.858926e+003,1.247823e-004
3.860854e+003,6.406456e-004
3.862782e+003,6.361790e-004
3.864711e+003,5.946606e-004
3.866640e+003,3.101416e-004
3.868568e+003,2.513453e-005
3.870497e+003,-9.747967e-005
3.872425e+003,-3.113635e-004
3.874354e+003,1.293123e-004
3.876282e+003,4.048310e-004
3.878210e+003,5.741715e-004
3.880139e+003,8.724071e-004
3.882068e+003,4.494898e-004
3.883996e+003,-2.098829e-005
3.885925e+003,6.125718e-004
3.887853e+003,6.025918e-004
3.889781e+003,3.364682e-005
3.891710e+003,1.069419e-004
3.893638e+003,5.302578e-004
3.895567e+003,4.965179e-004
3.897496e+003,4.498884e-004
3.899424e+003,6.952919e-004
3.901353e+003,4.612282e-004
3.903281e+003,1.260377e-004
3.905209e+003,3.346950e-004
3.907138e+003,4.016422e-004
3.909066e+003,5.332194e-004
3.910995e+003,9.216256e-004
3.912924e+003,1.128521e-003
3.914852e+003,7.898510e-004
3.916781e+003,4.941709e-004
3.918709e+003,5.378127e-004
3.920637e+003,5.102120e-004
3.922566e+003,3.228895e-004
3.924494e+003,6.780587e-004
3.926423e+003,9.151176e-004
3.928352e+003,6.504990e-004
3.930280e+003,4.258491e-004
3.932208e+003,6.153807e-004
3.934137e+003,6.676577e-004
3.936065e+003,6.722212e-004
3.937994e+003,8.198768e-004
3.939922e+003,7.579587e-004
3.941851e+003,5.921572e-004
3.943780e+003,6.985404e-004
3.945708e+003,6.343275e-004
3.947636e+003,5.123578e-004
3.949565e+003,6.724149e-004
3.951493e+003,6.694533e-004
3.953422e+003,5.740486e-004
3.955351e+003,6.766953e-004
3.957279e+003,7.938407e-004
3.959208e+003,8.510724e-004
3.961136e+003,9.214245e-004
3.963064e+003,9.291992e-004
3.964993e+003,7.926337e-004
3.966921e+003,7.163547e-004
3.968850e+003,8.330308e-004
3.970779e+003,8.838214e-004
3.972707e+003,7.772073e-004
3.974635e+003,7.026456e-004
3.976564e+003,7.558726e-004
3.978492e+003,8.474141e-004
3.980421e+003,9.828880e-004
3.982349e+003,1.025490e-003
3.984278e+003,9.989217e-004
3.986207e+003,9.613521e-004
3.988135e+003,1.041282e-003
3.990063e+003,1.061603e-003
3.991992e+003,9.942763e-004
3.993920e+003,9.386949e-004
3.995849e+003,9.482615e-004
3.997777e+003,1.031626e-003
3.999706e+003,1.032528e-003
4.001635e+003,0.000000e+000
