3.991992e+002,0.000000e+000
4.011277e+002,0.000000e+000
4.030562e+002,0.000000e+000
4.049846e+002,0.000000e+000
4.069131e+002,0.000000e+000
4.088416e+002,0.000000e+000
4.107701e+002,0.000000e+000
4.126986e+002,0.000000e+000
4.146271e+002,0.000000e+000
4.165556e+002,0.000000e+000
4.184841e+002,0.000000e+000
4.204126e+002,0.000000e+000
4.223411e+002,0.000000e+000
4.242697e+002,0.000000e+000
4.261982e+002,0.000000e+000
4.281266e+002,0.000000e+000
4.300551e+002,0.000000e+000
4.319836e+002,0.000000e+000
4.339121e+002,0.000000e+000
4.358406e+002,0.000000e+000
4.377691e+002,0.000000e+000
4.396976e+002,0.000000e+000
4.416261e+002,0.000000e+000
4.435546e+002,0.000000e+000
4.454831e+002,0.000000e+000
4.474116e+002,0.000000e+000
4.493401e+002,0.000000e+000
4.512686e+002,0.000000e+000
4.531971e+002,0.000000e+000
4.551256e+002,0.000000e+000
4.570541e+002,0.000000e+000
4.589826e+002,0.000000e+000
4.609111e+002,0.000000e+000
4.628396e+002,0.000000e+000
4.647681e+002,0.000000e+000
4.666966e+002,0.000000e+000
4.686251e+002,0.000000e+000
4.705536e+002,0.000000e+000
4.724821e+002,0.000000e+000
4.744106e+002,0.000000e+000
4.763391e+002,0.000000e+000
4.782676e+002,0.000000e+000
4.801961e+002,0.000000e+000
4.821246e+002,0.000000e+000
4.840531e+002,0.000000e+000
4.859816e+002,0.000000e+000
4.879101e+002,0.000000e+000
4.898386e+002,0.000000e+000
4.917671e+002,0.000000e+000
4.936956e+002,0.000000e+000
4.956241e+002,0.000000e+000
4.975526e+002,0.000000e+000
4.994811e+002,0.000000e+000
5.014096e+002,0.000000e+000
5.033381e+002,0.000000e+000
5.052666e+002,0.000000e+000
5.071951e+002,0.000000e+000
5.091236e+002,0.000000e+000
5.110521e+002,0.000000e+000
5.129806e+002,0.000000e+000
5.149091e+002,0.000000e+000
5.168376e+002,0.000000e+000
5.187661e+002,0.000000e+000
5.206946e+002,0.000000e+000
5.226230e+002,0.000000e+000
5.245516e+002,3.519896e-004
5.264800e+002,3.467659e-004
5.284086e+002,1.351703e-004
5.303370e+002,1.572352e-005
5.322656e+002,-1.234841e-004
5.341940e+002,-2.470817e-004
5.361226e+002,-3.429609e-004
5.380510e+002,-3.284723e-004
5.399796e+002,-3.999886e-004
5.419081e+002,-4.615164e-004
5.438365e+002,-7.084636e-004
5.457650e+002,-7.611024e-004
5.476935e+002,-6.305818e-004
5.496221e+002,-3.924225e-004
5.515505e+002,-4.065391e-004
5.534790e+002,-4.314850e-004
5.554075e+002,-3.643529e-004
5.573361e+002,-3.623869e-004
5.592645e+002,-4.845127e-004
5.611931e+002,-4.425757e-004
5.631215e+002,-5.000592e-004
5.650500e+002,-5.037514e-004
5.669785e+002,-4.306976e-004
5.689070e+002,-3.560977e-004
5.708355e+002,-4.054867e-004
5.727640e+002,-3.597643e-004
5.746925e+002,-3.554798e-004
5.766210e+002,-3.748988e-004
5.785495e+002,-5.511371e-004
5.804780e+002,-5.831299e-004
5.824065e+002,-5.838550e-004
5.843350e+002,-3.825906e-004
5.862635e+002,-3.242102e-004
5.881920e+002,-4.497073e-004
5.901205e+002,-4.890766e-004
5.920490e+002,-4.147021e-004
5.939775e+002,-4.254221e-004
5.959060e+002,-3.925194e-004
5.978345e+002,-4.106155e-004
5.997630e+002,-3.569853e-004
6.016915e+002,-3.167130e-004
6.036200e+002,-1.973435e-004
6.055485e+002,-1.509171e-004
6.074770e+002,-7.279404e-005
6.094055e+002,-1.367303e-004
6.113340e+002,-2.291612e-004
6.132625e+002,-2.366053e-004
6.151910e+002,-2.544764e-004
6.171195e+002,-3.801715e-004
6.190480e+002,-2.542352e-004
6.209765e+002,-1.360066e-004
6.229050e+002,3.665686e-006
6.248335e+002,-2.804305e-005
6.267620e+002,-3.859308e-005
6.286905e+002,5.893875e-005
6.306190e+002,1.463844e-004
6.325475e+002,1.067007e-004
6.344760e+002,1.410302e-004
6.364045e+002,1.972513e-004
6.383330e+002,2.350090e-004
6.402615e+002,1.919288e-004
6.421899e+002,1.924941e-004
6.441185e+002,1.349123e-004
6.460470e+002,1.650322e-004
6.479755e+002,1.805238e-004
6.499039e+002,1.741014e-004
6.518325e+002,7.234607e-005
6.537610e+002,1.188852e-004
6.556895e+002,2.080100e-004
6.576179e+002,2.908949e-004
6.595464e+002,2.247365e-004
6.614750e+002,1.894711e-004
6.634034e+002,1.723655e-004
6.653319e+002,1.927456e-004
6.672604e+002,1.653424e-004
6.691890e+002,1.558056e-004
6.711174e+002,1.361435e-004
6.730460e+002,2.366435e-004
6.749745e+002,2.294825e-004
6.769030e+002,2.503339e-004
6.788314e+002,2.443092e-004
6.807599e+002,2.572369e-004
6.826885e+002,2.699727e-004
6.846169e+002,2.417890e-004
6.865454e+002,2.199113e-004
6.884739e+002,3.444329e-004
6.904025e+002,3.323453e-004
6.923309e+002,3.461288e-004
6.942594e+002,3.879154e-004
6.961879e+002,5.056672e-004
6.981165e+002,4.841024e-004
7.000449e+002,4.513208e-004
7.019734e+002,4.665824e-004
7.039019e+002,5.266555e-004
7.058304e+002,5.813939e-004
7.077589e+002,6.453292e-004
7.096874e+002,6.181272e-004
7.116159e+002,6.389245e-004
7.135444e+002,6.985599e-004
7.154729e+002,7.967735e-004
7.174014e+002,9.056460e-004
7.193299e+002,1.018553e-003
7.212584e+002,9.899698e-004
7.231869e+002,9.276802e-004
7.251154e+002,9.129914e-004
7.270439e+002,9.105522e-004
7.289724e+002,8.227946e-004
7.309009e+002,8.087121e-004
7.328294e+002,7.903036e-004
7.347579e+002,8.239271e-004
7.366864e+002,7.857271e-004
7.386149e+002,8.152490e-004
7.405434e+002,8.527283e-004
7.424719e+002,9.198179e-004
7.444004e+002,9.334441e-004
7.463289e+002,9.069405e-004
7.482574e+002,8.572694e-004
7.501859e+002,8.807760e-004
7.521144e+002,8.880282e-004
7.540428e+002,9.082891e-004
7.559714e+002,8.926969e-004
7.578999e+002,1.038376e-003
7.598284e+002,1.104885e-003
7.617568e+002,1.136431e-003
7.636854e+002,1.142629e-003
7.656139e+002,1.232086e-003
7.675424e+002,1.293615e-003
7.694709e+002,1.311612e-003
7.713994e+002,1.317539e-003
7.733279e+002,1.374713e-003
7.752563e+002,1.427570e-003
7.771849e+002,1.511121e-003
7.791134e+002,1.505121e-003
7.810419e+002,1.652397e-003
7.829703e+002,1.773052e-003
7.848989e+002,1.945561e-003
7.868274e+002,2.155856e-003
7.887559e+002,2.505832e-003
7.906843e+002,2.771482e-003
7.926129e+002,3.036750e-003
7.945414e+002,3.320946e-003
7.964698e+002,3.686017e-003
7.983983e+002,4.045617e-003
8.003268e+002,4.552459e-003
8.022554e+002,5.329678e-003
8.041838e+002,6.761410e-003
8.061123e+002,8.949897e-003
8.080408e+002,1.085357e-002
8.099694e+002,1.062044e-002
8.118978e+002,8.671314e-003
8.138263e+002,6.413925e-003
8.157548e+002,5.037439e-003
8.176833e+002,4.390203e-003
8.196118e+002,4.101973e-003
8.215403e+002,3.958456e-003
8.234689e+002,4.090687e-003
8.253973e+002,4.230937e-003
8.273258e+002,4.497791e-003
8.292543e+002,4.829955e-003
8.311829e+002,5.449872e-003
8.331113e+002,6.204892e-003
8.350398e+002,7.716073e-003
8.369683e+002,1.163439e-002
8.388969e+002,2.024905e-002
8.408253e+002,2.541008e-002
8.427538e+002,1.861518e-002
8.446823e+002,1.036385e-002
8.466108e+002,6.709876e-003
8.485393e+002,5.251092e-003
8.504678e+002,4.590676e-003
8.523963e+002,4.206046e-003
8.543248e+002,3.887847e-003
8.562533e+002,3.630015e-003
8.581818e+002,3.538197e-003
8.601103e+002,3.409140e-003
8.620388e+002,3.292085e-003
8.639673e+002,3.208423e-003
8.658958e+002,3.208572e-003
8.678243e+002,3.109124e-003
8.697528e+002,3.066326e-003
8.716813e+002,3.080133e-003
8.736098e+002,3.023634e-003
8.755383e+002,2.897063e-003
8.774668e+002,2.920081e-003
8.793953e+002,2.952624e-003
8.813238e+002,2.988262e-003
8.832523e+002,3.072656e-003
8.851808e+002,3.245377e-003
8.871093e+002,3.393069e-003
8.890378e+002,3.648537e-003
8.909663e+002,3.983262e-003
8.928948e+002,4.747096e-003
8.948232e+002,6.226358e-003
8.967518e+002,8.550741e-003
8.986803e+002,9.989733e-003
9.006088e+002,9.206722e-003
9.025372e+002,6.910758e-003
9.044658e+002,4.923048e-003
9.063943e+002,3.799056e-003
9.083228e+002,3.393141e-003
9.102512e+002,3.191393e-003
9.121797e+002,3.092521e-003
9.141083e+002,3.063965e-003
9.160367e+002,2.953738e-003
9.179653e+002,2.877478e-003
9.198937e+002,3.009099e-003
9.218223e+002,2.997579e-003
9.237507e+002,3.008353e-003
9.256793e+002,3.018219e-003
9.276077e+002,3.089686e-003
9.295363e+002,3.106759e-003
9.314647e+002,3.175103e-003
9.333932e+002,3.348617e-003
9.353217e+002,3.836235e-003
9.372502e+002,4.617439e-003
9.391787e+002,5.286826e-003
9.411072e+002,5.221745e-003
9.430358e+002,4.763399e-003
9.449642e+002,4.377853e-003
9.468928e+002,4.288567e-003
9.488212e+002,4.321837e-003
9.507498e+002,4.524142e-003
9.526782e+002,4.659537e-003
9.546068e+002,4.954433e-003
9.565352e+002,5.397117e-003
9.584637e+002,5.992514e-003
9.603922e+002,6.689601e-003
9.623207e+002,7.650325e-003
9.642492e+002,9.143334e-003
9.661777e+002,1.185678e-002
9.681062e+002,1.706586e-002
9.700347e+002,2.559048e-002
9.719632e+002,3.211178e-002
9.738917e+002,3.005937e-002
9.758202e+002,2.263269e-002
9.777487e+002,1.582873e-002
9.796772e+002,1.122386e-002
9.816057e+002,8.662365e-003
9.835342e+002,7.479729e-003
9.854627e+002,7.271092e-003
9.873912e+002,7.711011e-003
9.893197e+002,8.943498e-003
9.912482e+002,1.132226e-002
9.931767e+002,1.595671e-002
9.951052e+002,2.299491e-002
9.970337e+002,2.837022e-002
9.989622e+002,2.596352e-002
1.000891e+003,1.840104e-002
1.002819e+003,1.220950e-002
1.004748e+003,8.936101e-003
1.006676e+003,7.264771e-003
1.008605e+003,6.359570e-003
1.010533e+003,5.788872e-003
1.012462e+003,5.416532e-003
1.014390e+003,5.174562e-003
1.016319e+003,5.063590e-003
1.018247e+003,4.935436e-003
1.020176e+003,4.844876e-003
1.022104e+003,4.726191e-003
1.024033e+003,4.714685e-003
1.025961e+003,4.662914e-003
1.027890e+003,4.670387e-003
1.029818e+003,4.690448e-003
1.031747e+003,4.856818e-003
1.033675e+003,4.989043e-003
1.035604e+003,5.066782e-003
1.037532e+003,5.119767e-003
1.039461e+003,5.396889e-003
1.041389e+003,5.881066e-003
1.043318e+003,6.382083e-003
1.045246e+003,6.334132e-003
1.047175e+003,5.870444e-003
1.049103e+003,5.347218e-003
1.051032e+003,5.049447e-003
1.052960e+003,4.819041e-003
1.054889e+003,4.673275e-003
1.056817e+003,4.575151e-003
1.058746e+003,4.587073e-003
1.060674e+003,4.543133e-003
1.062603e+003,4.539387e-003
1.064531e+003,4.497243e-003
1.066460e+003,4.559122e-003
1.068388e+003,4.600652e-003
1.070317e+003,4.630523e-003
1.072245e+003,4.604168e-003
1.074174e+003,4.654522e-003
1.076102e+003,4.699196e-003
1.078031e+003,4.790546e-003
1.079959e+003,4.865831e-003
1.081888e+003,5.016295e-003
1.083816e+003,5.077383e-003
1.085745e+003,5.111163e-003
1.087673e+003,5.203404e-003
1.089602e+003,5.433379e-003
1.091530e+003,5.647359e-003
1.093459e+003,5.941929e-003
1.095387e+003,6.283127e-003
1.097316e+003,6.835382e-003
1.099244e+003,7.574152e-003
1.101173e+003,8.331221e-003
1.103101e+003,8.439429e-003
1.105030e+003,7.815479e-003
1.106958e+003,6.923605e-003
1.108887e+003,6.339654e-003
1.110815e+003,5.989939e-003
1.112744e+003,5.752146e-003
1.114672e+003,5.494732e-003
1.116601e+003,5.404436e-003
1.118529e+003,5.337023e-003
1.120458e+003,5.325936e-003
1.122386e+003,5.293761e-003
1.124315e+003,5.325437e-003
1.126243e+003,5.336136e-003
1.128172e+003,5.393818e-003
1.130100e+003,5.460646e-003
1.132029e+003,5.656346e-003
1.133957e+003,5.882447e-003
1.135885e+003,6.283546e-003
1.137814e+003,6.734208e-003
1.139743e+003,7.399025e-003
1.141671e+003,8.176317e-003
1.143600e+003,9.173909e-003
1.145528e+003,1.035453e-002
1.147457e+003,1.186472e-002
1.149385e+003,1.352012e-002
1.151314e+003,1.499770e-002
1.153242e+003,1.586750e-002
1.155171e+003,1.652187e-002
1.157099e+003,1.730797e-002
1.159028e+003,1.859409e-002
1.160956e+003,2.061772e-002
1.162885e+003,2.374999e-002
1.164813e+003,2.755629e-002
1.166742e+003,2.999463e-002
1.168670e+003,2.780665e-002
1.170599e+003,2.161729e-002
1.172527e+003,1.527935e-002
1.174456e+003,1.105203e-002
1.176384e+003,8.571398e-003
1.178313e+003,7.223904e-003
1.180241e+003,6.432403e-003
1.182170e+003,6.036604e-003
1.184098e+003,5.798183e-003
1.186027e+003,5.737384e-003
1.187955e+003,5.719878e-003
1.189884e+003,5.812310e-003
1.191812e+003,5.856807e-003
1.193740e+003,5.947338e-003
1.195669e+003,5.990736e-003
1.197598e+003,6.111329e-003
1.199526e+003,6.212084e-003
1.201455e+003,6.389970e-003
1.203383e+003,6.525669e-003
1.205312e+003,6.743178e-003
1.207240e+003,6.977640e-003
1.209168e+003,7.275572e-003
1.211097e+003,7.561214e-003
1.213026e+003,7.955018e-003
1.214954e+003,8.369839e-003
1.216883e+003,8.828409e-003
1.218811e+003,9.010177e-003
1.220740e+003,8.962724e-003
1.222668e+003,8.639889e-003
1.224596e+003,8.355698e-003
1.226525e+003,8.130422e-003
1.228453e+003,8.083252e-003
1.230382e+003,8.062197e-003
1.232311e+003,8.137550e-003
1.234239e+003,8.139348e-003
1.236167e+003,8.189470e-003
1.238096e+003,8.190548e-003
1.240025e+003,8.263120e-003
1.241953e+003,8.324232e-003
1.243882e+003,8.457400e-003
1.245810e+003,8.547653e-003
1.247739e+003,8.807378e-003
1.249667e+003,9.205364e-003
1.251595e+003,1.017876e-002
1.253524e+003,1.159688e-002
1.255453e+003,1.221135e-002
1.257381e+003,1.099643e-002
1.259310e+003,9.434231e-003
1.261238e+003,8.297803e-003
1.263167e+003,7.638710e-003
1.265095e+003,7.154102e-003
1.267023e+003,6.898100e-003
1.268952e+003,6.698174e-003
1.270880e+003,6.608667e-003
1.272809e+003,6.490760e-003
1.274738e+003,6.559035e-003
1.276666e+003,6.568128e-003
1.278594e+003,6.679868e-003
1.280523e+003,6.785318e-003
1.282451e+003,6.976375e-003
1.284380e+003,7.181771e-003
1.286308e+003,7.522149e-003
1.288237e+003,7.869309e-003
1.290166e+003,8.430071e-003
1.292094e+003,9.091148e-003
1.294022e+003,9.864228e-003
1.295951e+003,1.020973e-002
1.297879e+003,1.023990e-002
1.299808e+003,1.040411e-002
1.301736e+003,1.157750e-002
1.303665e+003,1.291901e-002
1.305594e+003,1.222842e-002
1.307522e+003,9.738492e-003
1.309450e+003,8.143602e-003
1.311379e+003,7.550897e-003
1.313307e+003,7.506402e-003
1.315236e+003,7.537939e-003
1.317164e+003,7.876851e-003
1.319093e+003,8.163650e-003
1.321021e+003,8.593796e-003
1.322950e+003,9.157915e-003
1.324878e+003,1.011261e-002
1.326807e+003,1.080385e-002
1.328735e+003,1.126322e-002
1.330664e+003,1.096901e-002
1.332592e+003,1.039470e-002
1.334521e+003,9.837827e-003
1.336449e+003,9.870889e-003
1.338378e+003,1.013124e-002
1.340306e+003,1.059636e-002
1.342235e+003,1.080761e-002
1.344163e+003,1.166431e-002
1.346092e+003,1.272823e-002
1.348021e+003,1.444396e-002
1.349949e+003,1.651918e-002
1.351877e+003,1.979453e-002
1.353806e+003,2.460297e-002
1.355734e+003,3.143290e-002
1.357663e+003,3.630975e-002
1.359591e+003,3.673781e-002
1.361520e+003,3.286982e-002
1.363448e+003,2.950930e-002
1.365377e+003,2.920315e-002
1.367305e+003,3.451896e-002
1.369234e+003,4.914325e-002
1.371162e+003,7.619630e-002
1.373091e+003,1.158457e-001
1.375019e+003,1.515878e-001
1.376948e+003,1.344735e-001
1.378876e+003,9.097511e-002
1.380805e+003,5.572605e-002
1.382733e+003,3.389600e-002
1.384662e+003,2.161181e-002
1.386590e+003,1.503486e-002
1.388519e+003,1.145410e-002
1.390447e+003,9.807508e-003
1.392376e+003,9.331906e-003
1.394304e+003,8.860607e-003
1.396233e+003,8.654494e-003
1.398161e+003,8.400921e-003
1.400090e+003,8.237088e-003
1.402018e+003,8.035423e-003
1.403947e+003,8.251108e-003
1.405875e+003,8.165289e-003
1.407804e+003,8.256303e-003
1.409732e+003,8.412905e-003
1.411661e+003,8.665690e-003
1.413589e+003,8.821523e-003
1.415518e+003,9.287147e-003
1.417446e+003,9.813448e-003
1.419375e+003,1.017895e-002
1.421303e+003,1.048951e-002
1.423232e+003,1.125462e-002
1.425160e+003,1.210819e-002
1.427089e+003,1.328228e-002
1.429017e+003,1.569672e-002
1.430946e+003,2.053762e-002
1.432874e+003,2.758861e-002
1.434803e+003,3.358585e-002
1.436731e+003,3.468948e-002
1.438660e+003,3.409342e-002
1.440588e+003,3.675482e-002
1.442517e+003,4.323129e-002
1.444445e+003,5.396714e-002
1.446374e+003,6.738770e-002
1.448302e+003,8.222367e-002
1.450231e+003,8.909064e-002
1.452159e+003,9.121446e-002
1.454088e+003,9.116769e-002
1.456016e+003,9.145293e-002
1.457945e+003,8.814718e-002
1.459873e+003,8.449043e-002
1.461802e+003,7.973983e-002
1.463730e+003,7.268234e-002
1.465659e+003,5.845875e-002
1.467587e+003,4.695159e-002
1.469516e+003,3.767967e-002
1.471444e+003,2.984238e-002
1.473373e+003,2.020019e-002
1.475301e+003,1.566197e-002
1.477230e+003,1.221683e-002
1.479158e+003,1.030901e-002
1.481087e+003,8.855350e-003
1.483015e+003,7.710952e-003
1.484944e+003,7.022556e-003
1.486872e+003,6.789137e-003
1.488801e+003,6.528448e-003
1.490729e+003,5.773818e-003
1.492658e+003,5.189365e-003
1.494586e+003,5.209880e-003
1.496515e+003,5.092962e-003
1.498443e+003,4.848549e-003
1.500372e+003,4.587952e-003
1.502300e+003,4.451202e-003
1.504229e+003,4.562173e-003
1.506157e+003,4.987573e-003
1.508086e+003,4.706137e-003
1.510014e+003,4.492875e-003
1.511943e+003,4.248628e-003
1.513871e+003,4.242867e-003
1.515800e+003,4.442761e-003
1.517728e+003,4.366474e-003
1.519657e+003,4.520375e-003
1.521585e+003,4.580198e-003
1.523514e+003,4.280046e-003
1.525442e+003,4.403917e-003
1.527371e+003,4.202005e-003
1.529299e+003,3.973130e-003
1.531228e+003,4.102688e-003
1.533156e+003,4.286747e-003
1.535085e+003,4.029738e-003
1.537013e+003,4.333641e-003
1.538942e+003,4.889218e-003
1.540870e+003,4.928786e-003
1.542799e+003,4.757561e-003
1.544727e+003,4.520297e-003
1.546656e+003,4.065480e-003
1.548584e+003,4.121592e-003
1.550513e+003,4.130600e-003
1.552441e+003,4.134892e-003
1.554370e+003,4.278539e-003
1.556298e+003,4.487270e-003
1.558227e+003,4.898412e-003
1.560155e+003,3.958561e-003
1.562084e+003,3.822746e-003
1.564012e+003,3.854729e-003
1.565941e+003,3.743136e-003
1.567869e+003,3.998395e-003
1.569798e+003,4.027218e-003
1.571726e+003,3.682936e-003
1.573655e+003,3.839292e-003
1.575583e+003,4.130334e-003
1.577512e+003,3.795385e-003
1.579440e+003,3.641913e-003
1.581369e+003,3.597440e-003
1.583297e+003,3.539842e-003
1.585226e+003,3.524579e-003
1.587154e+003,3.596043e-003
1.589083e+003,3.666041e-003
1.591011e+003,3.617192e-003
1.592940e+003,3.637074e-003
1.594868e+003,3.731379e-003
1.596797e+003,3.732031e-003
1.598725e+003,3.714416e-003
1.600654e+003,3.774071e-003
1.602582e+003,3.852963e-003
1.604511e+003,3.861431e-003
1.606439e+003,3.962208e-003
1.608368e+003,4.024347e-003
1.610296e+003,3.925730e-003
1.612225e+003,3.896261e-003
1.614153e+003,4.179547e-003
1.616082e+003,4.493520e-003
1.618010e+003,4.191907e-003
1.619939e+003,4.173771e-003
1.621867e+003,4.428646e-003
1.623796e+003,4.452173e-003
1.625724e+003,4.426600e-003
1.627653e+003,4.530177e-003
1.629581e+003,4.366264e-003
1.631510e+003,4.427606e-003
1.633438e+003,4.788907e-003
1.635367e+003,5.103091e-003
1.637295e+003,4.793471e-003
1.639224e+003,4.678424e-003
1.641152e+003,4.614208e-003
1.643081e+003,4.685897e-003
1.645009e+003,5.123287e-003
1.646938e+003,5.322527e-003
1.648866e+003,4.927346e-003
1.650795e+003,5.171958e-003
1.652723e+003,5.489826e-003
1.654652e+003,4.865520e-003
1.656580e+003,4.668470e-003
1.658509e+003,4.585410e-003
1.660437e+003,4.656114e-003
1.662366e+003,4.695037e-003
1.664294e+003,4.390478e-003
1.666223e+003,4.459010e-003
1.668151e+003,4.730903e-003
1.670080e+003,4.608052e-003
1.672008e+003,4.389314e-003
1.673937e+003,4.472556e-003
1.675865e+003,4.244423e-003
1.677794e+003,4.125295e-003
1.679722e+003,4.312856e-003
1.681651e+003,4.499776e-003
1.683579e+003,4.655633e-003
1.685508e+003,4.040284e-003
1.687436e+003,4.098231e-003
1.689365e+003,4.016574e-003
1.691293e+003,3.768567e-003
1.693222e+003,3.879093e-003
1.695150e+003,4.131492e-003
1.697079e+003,4.142053e-003
1.699007e+003,4.326506e-003
1.700936e+003,3.847051e-003
1.702864e+003,3.748620e-003
1.704793e+003,3.835352e-003
1.706721e+003,3.534336e-003
1.708650e+003,3.392678e-003
1.710578e+003,3.404191e-003
1.712507e+003,3.469875e-003
1.714435e+003,3.804943e-003
1.716364e+003,3.974579e-003
1.718292e+003,3.421932e-003
1.720221e+003,3.082698e-003
1.722149e+003,3.183767e-003
1.724078e+003,3.157683e-003
1.726006e+003,3.100626e-003
1.727935e+003,3.157606e-003
1.729863e+003,3.305478e-003
1.731792e+003,3.467951e-003
1.733720e+003,3.490737e-003
1.735649e+003,3.003567e-003
1.737577e+003,3.185930e-003
1.739506e+003,3.304131e-003
1.741434e+003,3.243130e-003
1.743363e+003,3.372306e-003
1.745291e+003,3.324443e-003
1.747220e+003,3.366843e-003
1.749148e+003,3.287818e-003
1.751077e+003,2.905980e-003
1.753005e+003,2.559833e-003
1.754934e+003,2.493652e-003
1.756862e+003,2.452102e-003
1.758791e+003,2.394181e-003
1.760719e+003,2.509564e-003
1.762648e+003,2.225572e-003
1.764576e+003,2.022034e-003
1.766505e+003,2.144849e-003
1.768433e+003,2.236443e-003
1.770362e+003,2.379194e-003
1.772290e+003,2.267459e-003
1.774219e+003,1.780057e-003
1.776147e+003,1.742095e-003
1.778076e+003,1.909835e-003
1.780004e+003,2.073912e-003
1.781933e+003,1.930032e-003
1.783861e+003,2.012338e-003
1.785790e+003,1.903184e-003
1.787718e+003,1.815345e-003
1.789646e+003,2.046676e-003
1.791575e+003,2.193822e-003
1.793504e+003,1.866197e-003
1.795432e+003,1.898495e-003
1.797361e+003,1.821764e-003
1.799289e+003,1.855459e-003
1.801218e+003,1.703078e-003
1.803146e+003,1.437876e-003
1.805074e+003,1.275707e-003
1.807003e+003,1.245286e-003
1.808932e+003,1.188582e-003
1.810860e+003,1.132485e-003
1.812789e+003,8.296017e-004
1.814717e+003,4.965831e-004
1.816646e+003,3.245510e-004
1.818574e+003,6.516539e-004
1.820502e+003,8.802693e-004
1.822431e+003,1.050560e-003
1.824360e+003,1.007805e-003
1.826288e+003,8.870754e-004
1.828217e+003,1.026431e-003
1.830145e+003,1.029180e-003
1.832073e+003,7.756334e-004
1.834002e+003,8.473247e-004
1.835931e+003,8.603744e-004
1.837859e+003,7.509552e-004
1.839788e+003,5.501769e-004
1.841716e+003,5.151480e-004
1.843645e+003,4.121009e-004
1.845573e+003,5.279351e-004
1.847501e+003,6.653164e-004
1.849430e+003,6.205533e-004
1.851359e+003,3.632363e-004
1.853287e+003,2.786778e-004
1.855216e+003,2.711508e-004
1.857144e+003,2.173968e-004
1.859073e+003,3.527291e-005
1.861001e+003,8.034706e-005
1.862929e+003,2.006907e-004
1.864858e+003,4.570745e-004
1.866787e+003,7.048789e-004
1.868715e+003,5.479362e-004
1.870644e+003,5.418435e-005
1.872572e+003,-7.992610e-005
1.874500e+003,-1.986735e-004
1.876429e+003,-1.615696e-004
1.878357e+003,-1.411326e-004
1.880286e+003,-2.502725e-004
1.882215e+003,-3.261622e-004
1.884143e+003,-1.184307e-004
1.886072e+003,-6.582588e-005
1.888000e+003,-1.580827e-005
1.889928e+003,-4.703123e-004
1.891857e+003,-7.624794e-004
1.893785e+003,-6.712247e-004
1.895714e+003,-7.578041e-004
1.897643e+003,-9.470526e-004
1.899571e+003,-8.683540e-004
1.901500e+003,-8.565094e-004
1.903428e+003,-8.446667e-004
1.905356e+003,-8.328352e-004
1.907285e+003,-8.210111e-004
1.909213e+003,-8.091945e-004
1.911142e+003,-7.973816e-004
1.913071e+003,-7.855818e-004
1.914999e+003,-7.737856e-004
1.916927e+003,-7.619970e-004
1.918856e+003,-7.502176e-004
1.920784e+003,-7.384438e-004
1.922713e+003,-7.266793e-004
1.924641e+003,-7.149205e-004
1.926570e+003,-7.031690e-004
1.928499e+003,-6.914251e-004
1.930427e+003,-6.796885e-004
1.932355e+003,-6.679613e-004
1.934284e+003,-6.562378e-004
1.936212e+003,-6.445255e-004
1.938141e+003,-6.328207e-004
1.940070e+003,-6.211177e-004
1.941998e+003,-6.094277e-004
1.943927e+003,-5.977415e-004
1.945855e+003,-5.860664e-004
1.947783e+003,-5.743932e-004
1.949712e+003,-5.627312e-004
1.951640e+003,-5.510785e-004
1.953569e+003,-5.394313e-004
1.955498e+003,-5.277880e-004
1.957426e+003,-5.161557e-004
1.959354e+003,-5.045328e-004
1.961283e+003,-4.929136e-004
1.963211e+003,-4.813019e-004
1.965140e+003,-4.696995e-004
1.967068e+003,-4.581045e-004
1.968997e+003,-4.465170e-004
1.970926e+003,-4.349332e-004
1.972854e+003,-4.233606e-004
1.974782e+003,-4.117936e-004
1.976711e+003,-4.002359e-004
1.978639e+003,-3.886838e-004
1.980568e+003,-3.771372e-004
1.982496e+003,-3.656019e-004
1.984425e+003,-3.540721e-004
1.986354e+003,-3.425498e-004
1.988282e+003,-3.310349e-004
1.990210e+003,-3.195293e-004
1.992139e+003,-3.080256e-004
1.994067e+003,-2.965368e-004
1.995996e+003,-2.850518e-004
1.997924e+003,-2.735723e-004
1.999853e+003,-2.621021e-004
2.001781e+003,-2.506394e-004
2.003710e+003,-2.391841e-004
2.005638e+003,-2.277363e-004
2.007567e+003,-2.162941e-004
2.009495e+003,-2.048593e-004
2.011424e+003,-1.934357e-004
2.013352e+003,-1.820158e-004
2.015281e+003,-1.706034e-004
2.017209e+003,-1.592003e-004
2.019138e+003,-1.478065e-004
2.021066e+003,-1.364127e-004
2.022995e+003,-1.250319e-004
2.024923e+003,-1.136605e-004
2.026852e+003,-1.022909e-004
2.028781e+003,-9.093061e-005
2.030709e+003,-7.957965e-005
2.032637e+003,-6.823428e-005
2.034566e+003,-5.689636e-005
2.036494e+003,-4.556589e-005
2.038423e+003,-3.424473e-005
2.040351e+003,-2.292730e-005
2.042280e+003,-1.161918e-005
2.044208e+003,-3.203750e-007
2.046137e+003,1.097471e-005
2.048065e+003,2.225861e-005
2.049994e+003,3.353693e-005
2.051922e+003,4.480779e-005
2.053851e+003,5.607493e-005
2.055779e+003,6.733090e-005
2.057708e+003,7.857755e-005
2.059636e+003,8.982047e-005
2.061565e+003,1.010541e-004
2.063493e+003,1.122802e-004
2.065422e+003,1.234990e-004
2.067350e+003,1.347084e-004
2.069279e+003,1.459178e-004
2.071207e+003,1.571160e-004
2.073136e+003,1.683030e-004
2.075064e+003,1.794863e-004
2.076993e+003,1.906622e-004
2.078921e+003,2.018269e-004
2.080850e+003,2.129879e-004
2.082778e+003,2.241395e-004
2.084707e+003,2.352875e-004
2.086635e+003,2.464280e-004
2.088564e+003,2.575573e-004
2.090492e+003,2.686791e-004
2.092421e+003,2.797972e-004
2.094349e+003,2.909042e-004
2.096278e+003,3.020037e-004
2.098206e+003,3.131032e-004
2.100135e+003,3.241859e-004
2.102063e+003,3.352668e-004
2.103992e+003,3.463402e-004
2.105920e+003,3.574025e-004
2.107849e+003,3.684592e-004
2.109777e+003,3.795102e-004
2.111706e+003,3.905501e-004
2.113634e+003,4.015882e-004
2.115563e+003,4.126169e-004
2.117491e+003,4.236344e-004
2.119420e+003,4.346464e-004
2.121348e+003,4.456528e-004
2.123277e+003,4.566479e-004
2.125205e+003,4.676394e-004
2.127134e+003,4.786234e-004
2.129062e+003,4.896000e-004
2.130991e+003,5.005691e-004
2.132919e+003,5.115289e-004
2.134848e+003,5.224813e-004
2.136776e+003,5.334280e-004
2.138705e+003,5.443674e-004
2.140633e+003,5.552974e-004
2.142562e+003,5.662255e-004
2.144490e+003,5.771406e-004
2.146419e+003,5.880501e-004
2.148347e+003,5.989522e-004
2.150276e+003,6.098449e-004
2.152204e+003,6.207321e-004
2.154133e+003,6.316118e-004
2.156061e+003,6.424878e-004
2.157990e+003,6.533507e-004
2.159918e+003,6.642081e-004
2.161847e+003,6.750580e-004
2.163775e+003,6.859004e-004
2.165704e+003,6.967336e-004
2.167632e+003,7.075630e-004
2.169561e+003,7.183850e-004
2.171489e+003,7.291958e-004
2.173418e+003,7.400066e-004
2.175346e+003,7.508043e-004
2.177275e+003,7.615946e-004
2.179203e+003,7.723775e-004
2.181132e+003,7.831547e-004
2.183060e+003,7.939227e-004
2.184989e+003,8.046832e-004
2.186917e+003,8.154400e-004
2.188846e+003,8.261874e-004
2.190774e+003,8.369256e-004
2.192703e+003,8.476581e-004
2.194631e+003,8.583814e-004
2.196560e+003,8.690991e-004
2.198488e+003,8.798093e-004
2.200417e+003,8.905139e-004
2.202345e+003,9.012092e-004
2.204274e+003,9.118970e-004
2.206202e+003,9.225756e-004
2.208131e+003,9.332504e-004
2.210059e+003,9.439141e-004
2.211988e+003,9.545721e-004
2.213916e+003,9.652209e-004
2.215845e+003,9.758640e-004
2.217773e+003,9.865053e-004
2.219702e+003,9.971336e-004
2.221630e+003,1.007754e-003
2.223559e+003,1.018368e-003
2.225487e+003,1.028974e-003
2.227416e+003,1.039574e-003
2.229344e+003,1.050165e-003
2.231273e+003,1.060754e-003
2.233201e+003,1.071330e-003
2.235130e+003,1.081899e-003
2.237058e+003,1.092460e-003
2.238987e+003,1.103014e-003
2.240915e+003,1.113560e-003
2.242844e+003,1.124099e-003
2.244772e+003,1.134638e-003
2.246701e+003,1.145160e-003
2.248629e+003,1.155680e-003
2.250558e+003,1.166189e-003
2.252486e+003,1.176693e-003
2.254415e+003,1.187190e-003
2.256343e+003,1.197675e-003
2.258272e+003,1.208158e-003
2.260200e+003,1.218630e-003
2.262129e+003,1.229100e-003
2.264057e+003,1.239557e-003
2.265986e+003,1.250008e-003
2.267914e+003,1.260454e-003
2.269843e+003,1.270887e-003
2.271771e+003,1.281319e-003
2.273700e+003,1.291741e-003
2.275628e+003,1.302157e-003
2.277557e+003,1.312563e-003
2.279485e+003,1.322964e-003
2.281414e+003,1.333358e-003
2.283342e+003,1.343740e-003
2.285271e+003,1.354119e-003
2.287199e+003,1.364488e-003
2.289128e+003,1.374856e-003
2.291056e+003,1.385210e-003
2.292985e+003,1.395557e-003
2.294913e+003,1.405898e-003
2.296842e+003,1.416231e-003
2.298770e+003,1.426557e-003
2.300699e+003,1.436872e-003
2.302627e+003,1.447190e-003
2.304556e+003,1.457490e-003
2.306484e+003,1.467787e-003
2.308413e+003,1.478078e-003
2.310341e+003,1.488358e-003
2.312270e+003,1.498632e-003
2.314198e+003,1.508899e-003
2.316127e+003,1.519157e-003
2.318055e+003,1.529407e-003
2.319984e+003,1.539659e-003
2.321912e+003,1.549894e-003
2.323841e+003,1.560122e-003
2.325769e+003,1.570348e-003
2.327698e+003,1.580561e-003
2.329626e+003,1.590768e-003
2.331555e+003,1.600968e-003
2.333483e+003,1.611166e-003
2.335412e+003,1.621349e-003
2.337340e+003,1.631528e-003
2.339269e+003,1.641700e-003
2.341197e+003,1.651861e-003
2.343126e+003,1.662016e-003
2.345054e+003,1.672167e-003
2.346983e+003,1.682309e-003
2.348911e+003,1.692442e-003
2.350840e+003,1.702569e-003
2.352768e+003,1.712689e-003
2.354697e+003,1.722800e-003
2.356625e+003,1.732906e-003
2.358554e+003,1.743002e-003
2.360482e+003,1.753090e-003
2.362411e+003,1.763174e-003
2.364339e+003,1.773249e-003
2.366268e+003,1.783317e-003
2.368196e+003,1.793379e-003
2.370125e+003,1.803432e-003
2.372053e+003,1.813475e-003
2.373982e+003,1.823513e-003
2.375910e+003,1.833545e-003
2.377839e+003,1.843568e-003
2.379767e+003,1.853589e-003
2.381696e+003,1.863593e-003
2.383624e+003,1.873594e-003
2.385553e+003,1.883589e-003
2.387481e+003,1.893573e-003
2.389410e+003,1.903553e-003
2.391338e+003,1.913529e-003
2.393267e+003,1.923492e-003
2.395195e+003,1.933446e-003
2.397124e+003,1.943398e-003
2.399052e+003,1.953339e-003
2.400981e+003,1.860538e-003
2.402909e+003,1.765881e-003
2.404838e+003,1.714073e-003
2.406766e+003,2.004100e-003
2.408695e+003,2.268091e-003
2.410623e+003,2.214469e-003
2.412552e+003,2.260434e-003
2.414480e+003,2.376234e-003
2.416409e+003,2.379645e-003
2.418337e+003,2.249369e-003
2.420266e+003,2.281925e-003
2.422194e+003,2.399070e-003
2.424123e+003,2.420744e-003
2.426051e+003,2.399772e-003
2.427979e+003,2.480753e-003
2.429908e+003,2.525624e-003
2.431837e+003,2.688425e-003
2.433765e+003,2.853571e-003
2.435694e+003,2.861351e-003
2.437622e+003,2.656173e-003
2.439551e+003,2.512831e-003
2.441479e+003,2.604406e-003
2.443407e+003,2.689326e-003
2.445336e+003,2.709001e-003
2.447265e+003,2.870193e-003
2.449193e+003,2.957761e-003
2.451122e+003,3.036302e-003
2.453050e+003,3.094798e-003
2.454979e+003,3.014905e-003
2.456907e+003,2.831301e-003
2.458836e+003,2.725769e-003
2.460764e+003,2.795013e-003
2.462693e+003,2.692534e-003
2.464621e+003,2.441837e-003
2.466550e+003,2.433334e-003
2.468478e+003,2.496973e-003
2.470406e+003,2.551399e-003
2.472335e+003,2.487181e-003
2.474264e+003,2.566706e-003
2.476192e+003,2.572007e-003
2.478121e+003,2.588341e-003
2.480049e+003,2.663648e-003
2.481978e+003,2.717484e-003
2.483906e+003,2.776640e-003
2.485835e+003,2.772374e-003
2.487763e+003,2.665000e-003
2.489692e+003,2.624946e-003
2.491620e+003,2.600554e-003
2.493549e+003,2.832234e-003
2.495477e+003,2.951555e-003
2.497406e+003,2.950488e-003
2.499334e+003,2.898891e-003
2.501263e+003,2.899216e-003
2.503191e+003,2.898164e-003
2.505120e+003,2.906207e-003
2.507048e+003,2.758242e-003
2.508977e+003,2.747849e-003
2.510905e+003,2.847971e-003
2.512833e+003,2.941595e-003
2.514762e+003,2.905149e-003
2.516691e+003,2.999622e-003
2.518619e+003,3.174342e-003
2.520548e+003,3.372820e-003
2.522476e+003,3.429729e-003
2.524405e+003,3.449827e-003
2.526333e+003,3.479742e-003
2.528261e+003,3.634037e-003
2.530190e+003,3.704375e-003
2.532119e+003,3.612207e-003
2.534047e+003,3.580188e-003
2.535976e+003,3.765620e-003
2.537904e+003,3.758842e-003
2.539833e+003,3.780104e-003
2.541761e+003,4.015727e-003
2.543689e+003,4.120424e-003
2.545618e+003,4.073685e-003
2.547547e+003,4.171895e-003
2.549475e+003,4.395390e-003
2.551404e+003,4.540090e-003
2.553332e+003,4.446125e-003
2.555260e+003,4.597677e-003
2.557189e+003,4.708050e-003
2.559117e+003,4.587142e-003
2.561046e+003,4.790891e-003
2.562975e+003,5.130451e-003
2.564903e+003,5.161241e-003
2.566832e+003,5.190138e-003
2.568760e+003,5.416799e-003
2.570688e+003,5.621606e-003
2.572617e+003,5.874753e-003
2.574546e+003,6.387815e-003
2.576474e+003,6.816225e-003
2.578403e+003,7.074498e-003
2.580331e+003,7.076005e-003
2.582260e+003,7.018069e-003
2.584188e+003,6.923825e-003
2.586116e+003,6.771257e-003
2.588045e+003,6.485902e-003
2.589974e+003,6.363964e-003
2.591902e+003,6.395606e-003
2.593831e+003,6.389191e-003
2.595759e+003,6.449005e-003
2.597688e+003,6.475523e-003
2.599616e+003,6.472750e-003
2.601544e+003,6.643906e-003
2.603473e+003,6.926719e-003
2.605402e+003,7.185312e-003
2.607330e+003,7.385015e-003
2.609259e+003,7.655434e-003
2.611187e+003,7.973978e-003
2.613115e+003,8.207174e-003
2.615044e+003,8.274537e-003
2.616972e+003,8.241246e-003
2.618901e+003,8.233989e-003
2.620830e+003,8.310521e-003
2.622758e+003,8.429326e-003
2.624687e+003,8.575179e-003
2.626615e+003,8.564409e-003
2.628543e+003,8.528033e-003
2.630472e+003,8.533709e-003
2.632400e+003,8.536324e-003
2.634329e+003,8.550350e-003
2.636258e+003,8.643767e-003
2.638186e+003,8.845313e-003
2.640115e+003,9.080630e-003
2.642043e+003,9.230310e-003
2.643971e+003,9.420225e-003
2.645900e+003,9.565961e-003
2.647828e+003,9.630026e-003
2.649757e+003,9.702053e-003
2.651686e+003,9.820744e-003
2.653614e+003,9.979878e-003
2.655542e+003,1.011991e-002
2.657471e+003,1.018819e-002
2.659399e+003,1.012493e-002
2.661328e+003,9.889189e-003
2.663256e+003,9.574614e-003
2.665185e+003,9.218331e-003
2.667114e+003,9.044511e-003
2.669042e+003,9.039603e-003
2.670970e+003,9.064961e-003
2.672899e+003,9.065421e-003
2.674827e+003,9.120399e-003
2.676756e+003,9.200953e-003
2.678685e+003,9.276135e-003
2.680613e+003,9.281818e-003
2.682542e+003,9.286853e-003
2.684470e+003,9.243472e-003
2.686398e+003,9.200744e-003
2.688327e+003,9.238923e-003
2.690255e+003,9.334587e-003
2.692184e+003,9.348346e-003
2.694113e+003,9.390172e-003
2.696041e+003,9.432422e-003
2.697969e+003,9.512503e-003
2.699898e+003,9.658823e-003
2.701826e+003,9.848565e-003
2.703755e+003,1.003906e-002
2.705683e+003,1.027709e-002
2.707612e+003,1.064354e-002
2.709541e+003,1.101505e-002
2.711469e+003,1.137735e-002
2.713397e+003,1.189035e-002
2.715326e+003,1.257324e-002
2.717254e+003,1.334091e-002
2.719183e+003,1.411480e-002
2.721111e+003,1.463594e-002
2.723040e+003,1.455954e-002
2.724969e+003,1.403320e-002
2.726897e+003,1.338334e-002
2.728825e+003,1.278684e-002
2.730754e+003,1.230835e-002
2.732682e+003,1.197350e-002
2.734611e+003,1.169608e-002
2.736539e+003,1.137966e-002
2.738468e+003,1.108863e-002
2.740396e+003,1.084503e-002
2.742325e+003,1.056288e-002
2.744253e+003,1.040890e-002
2.746182e+003,1.036190e-002
2.748110e+003,1.036339e-002
2.750039e+003,1.029653e-002
2.751967e+003,1.023822e-002
2.753896e+003,1.038200e-002
2.755824e+003,1.060004e-002
2.757753e+003,1.079408e-002
2.759681e+003,1.103984e-002
2.761610e+003,1.126982e-002
2.763538e+003,1.148673e-002
2.765467e+003,1.173415e-002
2.767395e+003,1.188315e-002
2.769324e+003,1.203995e-002
2.771252e+003,1.225722e-002
2.773181e+003,1.249825e-002
2.775109e+003,1.276988e-002
2.777038e+003,1.319406e-002
2.778966e+003,1.372228e-002
2.780895e+003,1.420989e-002
2.782823e+003,1.483103e-002
2.784752e+003,1.553782e-002
2.786680e+003,1.632227e-002
2.788609e+003,1.727046e-002
2.790537e+003,1.818381e-002
2.792466e+003,1.902082e-002
2.794394e+003,1.969850e-002
2.796323e+003,2.015363e-002
2.798251e+003,2.073645e-002
2.800180e+003,2.160245e-002
2.802108e+003,2.284693e-002
2.804037e+003,2.437673e-002
2.805965e+003,2.592633e-002
2.807894e+003,2.735705e-002
2.809822e+003,2.861402e-002
2.811751e+003,2.990852e-002
2.813679e+003,3.134444e-002
2.815608e+003,3.296418e-002
2.817536e+003,3.502823e-002
2.819465e+003,3.761084e-002
2.821393e+003,4.089551e-002
2.823322e+003,4.510994e-002
2.825250e+003,5.081195e-002
2.827179e+003,5.885515e-002
2.829107e+003,7.069147e-002
2.831036e+003,8.820301e-002
2.832964e+003,1.113742e-001
2.834893e+003,1.351327e-001
2.836821e+003,1.504367e-001
2.838750e+003,1.514048e-001
2.840678e+003,1.393275e-001
2.842607e+003,1.203245e-001
2.844535e+003,1.012725e-001
2.846464e+003,8.647023e-002
2.848392e+003,7.668895e-002
2.850321e+003,7.037786e-002
2.852249e+003,6.634988e-002
2.854178e+003,6.509233e-002
2.856106e+003,6.796920e-002
2.858035e+003,7.658295e-002
2.859963e+003,9.279254e-002
2.861892e+003,1.158269e-001
2.863820e+003,1.383570e-001
2.865749e+003,1.497467e-001
2.867677e+003,1.482301e-001
2.869606e+003,1.414604e-001
2.871534e+003,1.360319e-001
2.873463e+003,1.346930e-001
2.875391e+003,1.370966e-001
2.877320e+003,1.389207e-001
2.879248e+003,1.369955e-001
2.881177e+003,1.328506e-001
2.883105e+003,1.289410e-001
2.885034e+003,1.263255e-001
2.886962e+003,1.248849e-001
2.888891e+003,1.246410e-001
2.890819e+003,1.262007e-001
2.892748e+003,1.304212e-001
2.894676e+003,1.380300e-001
2.896605e+003,1.490004e-001
2.898533e+003,1.627705e-001
2.900462e+003,1.782148e-001
2.902390e+003,1.942502e-001
2.904319e+003,2.097318e-001
2.906247e+003,2.230873e-001
2.908176e+003,2.349187e-001
2.910104e+003,2.493829e-001
2.912033e+003,2.709941e-001
2.913961e+003,2.977431e-001
2.915890e+003,3.175807e-001
2.917818e+003,3.176017e-001
2.919747e+003,2.991973e-001
2.921675e+003,2.745579e-001
2.923604e+003,2.509772e-001
2.925532e+003,2.274232e-001
2.927461e+003,2.016430e-001
2.929389e+003,1.747705e-001
2.931318e+003,1.501742e-001
2.933246e+003,1.308286e-001
2.935175e+003,1.181309e-001
2.937103e+003,1.128713e-001
2.939032e+003,1.162021e-001
2.940960e+003,1.299576e-001
2.942889e+003,1.555963e-001
2.944817e+003,1.904976e-001
2.946746e+003,2.257937e-001
2.948674e+003,2.476813e-001
2.950603e+003,2.457841e-001
2.952531e+003,2.252835e-001
2.954460e+003,2.032848e-001
2.956388e+003,1.920333e-001
2.958317e+003,1.905274e-001
2.960245e+003,1.879314e-001
2.962174e+003,1.735416e-001
2.964102e+003,1.491099e-001
2.966031e+003,1.233929e-001
2.967959e+003,1.001215e-001
2.969888e+003,7.957107e-002
2.971816e+003,6.213252e-002
2.973745e+003,4.802903e-002
2.975673e+003,3.723192e-002
2.977602e+003,2.904270e-002
2.979530e+003,2.279439e-002
2.981459e+003,1.800668e-002
2.983387e+003,1.436261e-002
2.985316e+003,1.157569e-002
2.987244e+003,9.394890e-003
2.989173e+003,7.610012e-003
2.991101e+003,6.235957e-003
2.993030e+003,5.158143e-003
2.994958e+003,4.240122e-003
2.996887e+003,3.514659e-003
2.998815e+003,2.967352e-003
3.000744e+003,2.561919e-003
3.002672e+003,2.118168e-003
3.004601e+003,1.665525e-003
3.006529e+003,1.383929e-003
3.008458e+003,1.124479e-003
3.010386e+003,8.908845e-004
3.012315e+003,6.779674e-004
3.014243e+003,5.328804e-004
3.016172e+003,4.153326e-004
3.018100e+003,1.737364e-004
3.020029e+003,3.597140e-005
3.021957e+003,5.025417e-005
3.023886e+003,-2.513640e-005
3.025814e+003,-1.055431e-004
3.027743e+003,-2.130419e-004
3.029671e+003,-2.449974e-004
3.031600e+003,-2.719704e-004
3.033528e+003,-2.670027e-004
3.035457e+003,-2.744794e-004
3.037385e+003,-3.264379e-004
3.039314e+003,-3.549829e-004
3.041242e+003,-2.865791e-004
3.043171e+003,-3.081337e-004
3.045099e+003,-3.218707e-004
3.047028e+003,-2.527051e-004
3.048956e+003,-1.475941e-004
3.050885e+003,-1.418293e-004
3.052813e+003,-1.644082e-004
3.054742e+003,-1.053326e-004
3.056670e+003,-1.215022e-004
3.058599e+003,-1.720116e-004
3.060527e+003,-1.424029e-004
3.062456e+003,-1.084991e-004
3.064384e+003,-1.220256e-004
3.066313e+003,-1.881626e-004
3.068241e+003,-9.183958e-005
3.070170e+003,-5.554035e-005
3.072098e+003,-1.489576e-004
3.074027e+003,-2.395641e-004
3.075955e+003,-2.088305e-004
3.077884e+003,-5.704537e-005
3.079812e+003,3.647432e-005
3.081741e+003,7.469207e-006
3.083669e+003,-2.408586e-005
3.085598e+003,5.811453e-005
3.087526e+003,1.734048e-004
3.089455e+003,1.707859e-004
3.091383e+003,1.748670e-004
3.093312e+003,1.277775e-004
3.095240e+003,1.001414e-004
3.097169e+003,1.124702e-004
3.099097e+003,2.373513e-004
3.101026e+003,2.773236e-004
3.102954e+003,2.812520e-004
3.104883e+003,2.992935e-004
3.106811e+003,2.292935e-004
3.108740e+003,2.193823e-004
3.110668e+003,3.324375e-004
3.112597e+003,3.583524e-004
3.114525e+003,4.200991e-004
3.116454e+003,5.105603e-004
3.118382e+003,6.129816e-004
3.120311e+003,7.469691e-004
3.122239e+003,7.942915e-004
3.124168e+003,7.561445e-004
3.126096e+003,7.701162e-004
3.128025e+003,7.647872e-004
3.129953e+003,9.210464e-004
3.131882e+003,1.090901e-003
3.133810e+003,1.090532e-003
3.135739e+003,1.079952e-003
3.137667e+003,1.185916e-003
3.139596e+003,1.295645e-003
3.141524e+003,1.344955e-003
3.143453e+003,1.286265e-003
3.145381e+003,1.211498e-003
3.147310e+003,1.183514e-003
3.149238e+003,1.195345e-003
3.151167e+003,1.189873e-003
3.153095e+003,1.156032e-003
3.155024e+003,1.155548e-003
3.156952e+003,1.174562e-003
3.158881e+003,1.184259e-003
3.160809e+003,1.272049e-003
3.162738e+003,1.363594e-003
3.164666e+003,1.333356e-003
3.166594e+003,1.276221e-003
3.168523e+003,1.286637e-003
3.170452e+003,1.356773e-003
3.172380e+003,1.360673e-003
3.174309e+003,1.373522e-003
3.176237e+003,1.537398e-003
3.178166e+003,1.578510e-003
3.180094e+003,1.600362e-003
3.182022e+003,1.609478e-003
3.183951e+003,1.676422e-003
3.185880e+003,1.679428e-003
3.187808e+003,1.740213e-003
3.189737e+003,1.878709e-003
3.191665e+003,1.874894e-003
3.193594e+003,1.854915e-003
3.195522e+003,1.897611e-003
3.197450e+003,1.869690e-003
3.199379e+003,1.756895e-003
3.201308e+003,1.747970e-003
3.203236e+003,1.803301e-003
3.205165e+003,1.752384e-003
3.207093e+003,1.667548e-003
3.209021e+003,1.551021e-003
3.210950e+003,1.526449e-003
3.212878e+003,1.539569e-003
3.214807e+003,1.476765e-003
3.216736e+003,1.439866e-003
3.218664e+003,1.487356e-003
3.220593e+003,1.369853e-003
3.222521e+003,1.237672e-003
3.224449e+003,1.210045e-003
3.226378e+003,1.153812e-003
3.228307e+003,1.069680e-003
3.230235e+003,1.063704e-003
3.232164e+003,1.071755e-003
3.234092e+003,9.981729e-004
3.236021e+003,9.012260e-004
3.237949e+003,8.702949e-004
3.239877e+003,9.743087e-004
3.241806e+003,1.029495e-003
3.243735e+003,1.093443e-003
3.245663e+003,1.047891e-003
3.247592e+003,9.714216e-004
3.249520e+003,9.117313e-004
3.251448e+003,8.616745e-004
3.253377e+003,9.528436e-004
3.255305e+003,1.097254e-003
3.257234e+003,1.139268e-003
3.259163e+003,1.087103e-003
3.261091e+003,1.166999e-003
3.263020e+003,1.225840e-003
3.264948e+003,1.166973e-003
3.266876e+003,1.112469e-003
3.268805e+003,1.147967e-003
3.270733e+003,1.233000e-003
3.272662e+003,1.301706e-003
3.274591e+003,1.275130e-003
3.276519e+003,1.309682e-003
3.278448e+003,1.288641e-003
3.280376e+003,1.303636e-003
3.282304e+003,1.364544e-003
3.284233e+003,1.335017e-003
3.286161e+003,1.282580e-003
3.288090e+003,1.403943e-003
3.290019e+003,1.432993e-003
3.291947e+003,1.403857e-003
3.293875e+003,1.389667e-003
3.295804e+003,1.479492e-003
3.297732e+003,1.541775e-003
3.299661e+003,1.456615e-003
3.301589e+003,1.377635e-003
3.303518e+003,1.410011e-003
3.305447e+003,1.495156e-003
3.307375e+003,1.556151e-003
3.309303e+003,1.439616e-003
3.311232e+003,1.369815e-003
3.313160e+003,1.458604e-003
3.315089e+003,1.460850e-003
3.317018e+003,1.380343e-003
3.318946e+003,1.338150e-003
3.320875e+003,1.297940e-003
3.322803e+003,1.329739e-003
3.324731e+003,1.422506e-003
3.326660e+003,1.541253e-003
3.328588e+003,1.549173e-003
3.330517e+003,1.511995e-003
3.332446e+003,1.603611e-003
3.334374e+003,1.666360e-003
3.336302e+003,1.724537e-003
3.338231e+003,1.723502e-003
3.340159e+003,1.685500e-003
3.342088e+003,1.730721e-003
3.344016e+003,1.823463e-003
3.345945e+003,1.766235e-003
3.347874e+003,1.711093e-003
3.349802e+003,1.673404e-003
3.351730e+003,1.685970e-003
3.353659e+003,1.690902e-003
3.355587e+003,1.670670e-003
3.357516e+003,1.706492e-003
3.359444e+003,1.822535e-003
3.361373e+003,1.791824e-003
3.363302e+003,1.651574e-003
3.365230e+003,1.667570e-003
3.367158e+003,1.641963e-003
3.369087e+003,1.508713e-003
3.371015e+003,1.448773e-003
3.372944e+003,1.523629e-003
3.374872e+003,1.572002e-003
3.376801e+003,1.619503e-003
3.378729e+003,1.705486e-003
3.380658e+003,1.581192e-003
3.382586e+003,1.435395e-003
3.384515e+003,1.466822e-003
3.386443e+003,1.397934e-003
3.388372e+003,1.390956e-003
3.390300e+003,1.422971e-003
3.392229e+003,1.377188e-003
3.394157e+003,1.277778e-003
3.396086e+003,1.373634e-003
3.398014e+003,1.324043e-003
3.399943e+003,1.348708e-003
3.401871e+003,1.373168e-003
3.403800e+003,1.327295e-003
3.405728e+003,1.319282e-003
3.407657e+003,1.247752e-003
3.409585e+003,1.175914e-003
3.411514e+003,1.119852e-003
3.413442e+003,1.110759e-003
3.415371e+003,1.202501e-003
3.417299e+003,1.290057e-003
3.419228e+003,1.362626e-003
3.421156e+003,1.277689e-003
3.423085e+003,1.116209e-003
3.425013e+003,9.776875e-004
3.426942e+003,8.825175e-004
3.428870e+003,8.286573e-004
3.430799e+003,8.678697e-004
3.432727e+003,9.303093e-004
3.434656e+003,9.260252e-004
3.436584e+003,7.719994e-004
3.438513e+003,7.026345e-004
3.440441e+003,8.054823e-004
3.442370e+003,8.169934e-004
3.444298e+003,8.584335e-004
3.446227e+003,1.010329e-003
3.448155e+003,7.176138e-004
3.450084e+003,5.515106e-004
3.452012e+003,5.024560e-004
3.453941e+003,5.053766e-004
3.455869e+003,5.043074e-004
3.457798e+003,5.047582e-004
3.459726e+003,4.913621e-004
3.461655e+003,5.369000e-004
3.463583e+003,4.479438e-004
3.465512e+003,4.902110e-004
3.467440e+003,4.055947e-004
3.469369e+003,2.982803e-004
3.471297e+003,3.982186e-004
3.473226e+003,5.035847e-004
3.475154e+003,4.560240e-004
3.477083e+003,3.388152e-004
3.479011e+003,4.295558e-004
3.480940e+003,5.173199e-004
3.482868e+003,3.673248e-004
3.484797e+003,3.307797e-004
3.486725e+003,3.600717e-004
3.488654e+003,2.003908e-004
3.490582e+003,1.037121e-005
3.492511e+003,-3.248453e-006
3.494439e+003,6.490573e-005
3.496368e+003,1.216307e-004
3.498296e+003,6.994978e-005
3.500225e+003,2.462938e-004
3.502153e+003,5.417950e-004
3.504082e+003,2.527200e-004
3.506010e+003,8.217990e-006
3.507939e+003,2.072714e-004
3.509867e+003,1.215227e-004
3.511796e+003,-1.503676e-004
3.513724e+003,-2.436638e-004
3.515653e+003,-1.902953e-004
3.517581e+003,-1.732558e-004
3.519510e+003,-1.449771e-004
3.521438e+003,1.673624e-004
3.523367e+003,2.614781e-004
3.525295e+003,9.464100e-005
3.527224e+003,1.243167e-004
3.529152e+003,-5.989522e-005
3.531081e+003,-1.783036e-004
3.533009e+003,-2.859272e-004
3.534938e+003,-1.848452e-004
3.536866e+003,-3.964715e-004
3.538795e+003,-5.175881e-004
3.540723e+003,-4.503466e-004
3.542652e+003,-3.044531e-004
3.544580e+003,3.179908e-005
3.546509e+003,-2.678931e-004
3.548437e+003,-6.673560e-004
3.550366e+003,-4.476160e-004
3.552294e+003,-4.546866e-004
3.554223e+003,-8.205250e-004
3.556151e+003,-9.817593e-004
3.558080e+003,-9.531975e-004
3.560008e+003,-9.571910e-004
3.561937e+003,-9.078234e-004
3.563865e+003,-2.524815e-004
3.565794e+003,5.151592e-004
3.567722e+003,-4.244074e-004
3.569651e+003,-1.109503e-003
3.571579e+003,-1.056589e-003
3.573508e+003,-1.102094e-003
3.575436e+003,-1.315251e-003
3.577365e+003,-1.387492e-003
3.579293e+003,-1.365315e-003
3.581222e+003,-1.446404e-003
3.583150e+003,-1.257624e-003
3.585079e+003,-5.133860e-004
3.587007e+003,-1.779199e-004
3.588936e+003,-1.136832e-003
3.590864e+003,-1.024868e-003
3.592793e+003,-6.860867e-004
3.594721e+003,-8.616149e-004
3.596650e+003,-9.873286e-004
3.598578e+003,-8.913912e-004
3.600507e+003,-1.046304e-003
3.602435e+003,-1.584750e-003
3.604364e+003,-1.475953e-003
3.606292e+003,-9.057894e-004
3.608221e+003,-9.187944e-004
3.610149e+003,-9.636357e-004
3.612078e+003,-4.631467e-004
3.614006e+003,-8.215271e-004
3.615935e+003,-6.379895e-004
3.617863e+003,-1.497976e-004
3.619792e+003,-8.554086e-004
3.621720e+003,-1.360651e-003
3.623649e+003,-1.160618e-003
3.625577e+003,-4.519969e-004
3.627506e+003,5.137175e-004
3.629434e+003,-4.102774e-004
3.631363e+003,-9.332784e-004
3.633291e+003,-7.920600e-004
3.635220e+003,-1.147758e-003
3.637148e+003,-1.195170e-003
3.639077e+003,-1.236845e-003
3.641005e+003,-1.152921e-003
3.642934e+003,-1.169056e-003
3.644862e+003,-6.818883e-004
3.646791e+003,5.535260e-004
3.648719e+003,8.729845e-004
3.650648e+003,-5.667657e-004
3.652576e+003,-9.358823e-004
3.654505e+003,7.342920e-005
3.656433e+003,-3.730357e-004
3.658362e+003,-1.204219e-003
3.660290e+003,-1.178905e-003
3.662219e+003,-1.341656e-003
3.664147e+003,-1.573607e-003
3.666076e+003,-1.179766e-003
3.668004e+003,-1.468435e-004
3.669933e+003,-4.728138e-004
3.671861e+003,-8.057877e-004
3.673790e+003,4.352666e-004
3.675718e+003,-1.748540e-004
3.677647e+003,-6.821267e-004
3.679575e+003,-6.052479e-004
3.681504e+003,-9.055771e-004
3.683432e+003,-8.468702e-004
3.685361e+003,-3.541447e-004
3.687289e+003,2.734922e-004
3.689218e+003,-4.632771e-005
3.691146e+003,-4.778467e-004
3.693075e+003,-5.919822e-004
3.695003e+003,-6.015971e-004
3.696932e+003,-9.116009e-004
3.698860e+003,-5.908832e-004
3.700789e+003,-9.513274e-005
3.702717e+003,-5.413517e-004
3.704646e+003,-5.787462e-004
3.706574e+003,-3.693961e-004
3.708503e+003,6.088242e-005
3.710431e+003,8.268394e-004
3.712360e+003,5.554408e-005
3.714288e+003,-5.972721e-004
3.716217e+003,-4.364327e-004
3.718145e+003,5.911291e-005
3.720074e+003,1.826547e-004
3.722002e+003,2.353527e-004
3.723931e+003,4.718490e-004
3.725859e+003,3.803521e-004
3.727788e+003,-1.941510e-004
3.729716e+003,2.900995e-004
3.731645e+003,8.176826e-004
3.733573e+003,1.229472e-003
3.735502e+003,1.594219e-003
3.737430e+003,6.747134e-004
3.739359e+003,5.852357e-004
3.741287e+003,1.121033e-003
3.743216e+003,1.716428e-003
3.745144e+003,8.125342e-004
3.747073e+003,1.582216e-003
3.749001e+003,2.398029e-003
3.750930e+003,2.077878e-003
3.752858e+003,8.997992e-004
3.754787e+003,9.886250e-004
3.756715e+003,1.483329e-003
3.758644e+003,1.389142e-003
3.760572e+003,7.582270e-004
3.762501e+003,8.555725e-004
3.764429e+003,1.253255e-003
3.766358e+003,8.837022e-004
3.768286e+003,1.315214e-003
3.770215e+003,1.178514e-003
3.772143e+003,4.810840e-004
3.774072e+003,2.943166e-004
3.776000e+003,4.129969e-004
3.777929e+003,7.232726e-004
3.779857e+003,4.269965e-004
3.781786e+003,3.150180e-004
3.783714e+003,5.780458e-004
3.785643e+003,2.165101e-004
3.787571e+003,2.969392e-004
3.789500e+003,1.688488e-004
3.791428e+003,-2.292618e-004
3.793357e+003,1.282804e-004
3.795285e+003,6.649569e-004
3.797214e+003,3.323480e-004
3.799142e+003,1.085144e-003
3.801071e+003,1.236025e-003
3.802999e+003,-5.158782e-005
3.804927e+003,9.666644e-004
3.806856e+003,1.057077e-003
3.808785e+003,-1.152605e-004
3.810713e+003,-1.270697e-005
3.812642e+003,4.064627e-004
3.814570e+003,9.374022e-004
3.816499e+003,3.995039e-004
3.818427e+003,1.381427e-003
3.820355e+003,2.412438e-003
3.822284e+003,6.245114e-004
3.824213e+003,9.035096e-004
3.826141e+003,8.393340e-004
3.828070e+003,-3.457069e-006
3.829998e+003,5.164184e-004
3.831927e+003,6.498061e-004
3.833855e+003,6.447211e-004
3.835783e+003,1.404554e-003
3.837712e+003,1.482468e-003
3.839641e+003,9.856820e-004
3.841569e+003,8.925721e-004
3.843498e+003,7.042401e-004
3.845426e+003,1.647696e-004
3.847354e+003,4.741177e-004
3.849283e+003,1.289133e-003
3.851211e+003,2.422731e-003
3.853140e+003,1.932476e-003
3.855069e+003,5.191565e-004
3.856997e+003,5.386882e-004
3.858926e+003,4.816055e-004
3.860854e+003,1.035158e-003
3.862782e+003,1.455877e-003
3.864711e+003,1.168258e-003
3.866640e+003,8.883998e-004
3.868568e+003,1.596738e-003
3.870497e+003,6.605312e-004
3.872425e+003,1.123689e-003
3.874354e+003,7.864162e-004
3.876282e+003,2.352037e-004
3.878210e+003,1.232851e-003
3.880139e+003,1.331773e-003
3.882068e+003,8.914582e-004
3.883996e+003,1.839854e-003
3.885925e+003,8.165911e-004
3.887853e+003,1.977272e-004
3.889781e+003,1.274940e-003
3.891710e+003,1.097266e-003
3.893638e+003,3.297441e-004
3.895567e+003,5.975403e-004
3.897496e+003,1.206718e-003
3.899424e+003,1.276430e-003
3.901353e+003,1.567241e-003
3.903281e+003,1.879204e-003
3.905209e+003,8.120947e-004
3.907138e+003,4.321523e-004
3.909066e+003,6.081685e-004
3.910995e+003,5.178787e-004
3.912924e+003,4.135482e-004
3.914852e+003,1.003340e-003
3.916781e+003,1.157958e-003
3.918709e+003,5.535781e-004
3.920637e+003,4.119165e-004
3.922566e+003,9.237453e-004
3.924494e+003,9.846538e-004
3.926423e+003,3.486499e-004
3.928352e+003,7.870197e-004
3.930280e+003,1.138095e-003
3.932208e+003,8.282587e-004
3.934137e+003,3.394708e-004
3.936065e+003,2.886653e-004
3.937994e+003,3.180131e-004
3.939922e+003,6.183833e-004
3.941851e+003,1.095261e-003
3.943780e+003,6.939545e-004
3.945708e+003,7.052049e-004
3.947636e+003,1.047965e-003
3.949565e+003,6.731451e-004
3.951493e+003,2.962835e-004
3.953422e+003,2.571493e-004
3.955351e+003,3.919974e-004
3.957279e+003,4.172251e-004
3.959208e+003,4.240461e-004
3.961136e+003,4.615486e-004
3.963064e+003,2.191029e-004
3.964993e+003,7.886067e-005
3.966921e+003,1.756176e-004
3.968850e+003,2.889037e-004
3.970779e+003,3.871955e-004
3.972707e+003,4.170872e-004
3.974635e+003,2.883151e-004
3.976564e+003,1.461953e-004
3.978492e+003,1.880154e-004
3.980421e+003,3.523044e-004
3.982349e+003,3.012456e-004
3.984278e+003,2.141595e-004
3.986207e+003,3.117174e-004
3.988135e+003,4.915446e-004
3.990063e+003,4.786476e-004
3.991992e+003,4.059672e-004
3.993920e+003,5.183034e-004
3.995849e+003,4.716143e-004
3.997777e+003,3.537573e-004
3.999706e+003,3.016405e-004
4.001635e+003,0.000000e+000
