3.991992e+002,0.000000e+000
4.011277e+002,0.000000e+000
4.030562e+002,0.000000e+000
4.049846e+002,0.000000e+000
4.069131e+002,0.000000e+000
4.088416e+002,0.000000e+000
4.107701e+002,0.000000e+000
4.126986e+002,0.000000e+000
4.146271e+002,0.000000e+000
4.165556e+002,0.000000e+000
4.184841e+002,0.000000e+000
4.204126e+002,0.000000e+000
4.223411e+002,0.000000e+000
4.242697e+002,0.000000e+000
4.261982e+002,0.000000e+000
4.281266e+002,0.000000e+000
4.300551e+002,0.000000e+000
4.319836e+002,0.000000e+000
4.339121e+002,0.000000e+000
4.358406e+002,0.000000e+000
4.377691e+002,0.000000e+000
4.396976e+002,0.000000e+000
4.416261e+002,0.000000e+000
4.435546e+002,0.000000e+000
4.454831e+002,0.000000e+000
4.474116e+002,0.000000e+000
4.493401e+002,0.000000e+000
4.512686e+002,0.000000e+000
4.531971e+002,0.000000e+000
4.551256e+002,0.000000e+000
4.570541e+002,0.000000e+000
4.589826e+002,0.000000e+000
4.609111e+002,0.000000e+000
4.628396e+002,0.000000e+000
4.647681e+002,0.000000e+000
4.666966e+002,0.000000e+000
4.686251e+002,0.000000e+000
4.705536e+002,0.000000e+000
4.724821e+002,0.000000e+000
4.744106e+002,0.000000e+000
4.763391e+002,0.000000e+000
4.782676e+002,0.000000e+000
4.801961e+002,0.000000e+000
4.821246e+002,0.000000e+000
4.840531e+002,0.000000e+000
4.859816e+002,0.000000e+000
4.879101e+002,0.000000e+000
4.898386e+002,0.000000e+000
4.917671e+002,0.000000e+000
4.936956e+002,0.000000e+000
4.956241e+002,0.000000e+000
4.975526e+002,0.000000e+000
4.994811e+002,0.000000e+000
5.014096e+002,0.000000e+000
5.033381e+002,0.000000e+000
5.052666e+002,0.000000e+000
5.071951e+002,0.000000e+000
5.091236e+002,0.000000e+000
5.110521e+002,0.000000e+000
5.129806e+002,0.000000e+000
5.149091e+002,0.000000e+000
5.168376e+002,0.000000e+000
5.187661e+002,0.000000e+000
5.206946e+002,0.000000e+000
5.226230e+002,0.000000e+000
5.245516e+002,1.695640e-004
5.264800e+002,3.670156e-004
5.284086e+002,4.948489e-004
5.303370e+002,4.052510e-004
5.322656e+002,1.986725e-004
5.341940e+002,-7.302687e-005
5.361226e+002,-3.810115e-004
5.380510e+002,-3.088405e-004
5.399796e+002,-2.272315e-004
5.419081e+002,-9.986851e-005
5.438365e+002,-2.042241e-004
5.457650e+002,-3.201179e-004
5.476935e+002,-3.636144e-004
5.496221e+002,-2.717031e-004
5.515505e+002,-2.351431e-004
5.534790e+002,-1.432179e-004
5.554075e+002,-2.999147e-004
5.573361e+002,-3.908053e-004
5.592645e+002,-3.826916e-004
5.611931e+002,-2.444442e-004
5.631215e+002,-2.875784e-004
5.650500e+002,-3.036149e-004
5.669785e+002,-1.503183e-004
5.689070e+002,1.127180e-005
5.708355e+002,-2.467288e-004
5.727640e+002,-2.701823e-004
5.746925e+002,-2.478659e-004
5.766210e+002,-1.978306e-004
5.785495e+002,-1.066104e-004
5.804780e+002,-7.799082e-005
5.824065e+002,-1.937412e-004
5.843350e+002,-2.201525e-004
5.862635e+002,-2.866713e-004
5.881920e+002,-2.305191e-004
5.901205e+002,-2.435381e-004
5.920490e+002,-2.256520e-004
5.939775e+002,-2.637543e-004
5.959060e+002,-2.537062e-004
5.978345e+002,-2.462445e-004
5.997630e+002,-1.187036e-004
6.016915e+002,-5.106907e-005
6.036200e+002,3.583636e-005
6.055485e+002,6.926898e-005
6.074770e+002,3.547780e-005
6.094055e+002,-1.179427e-005
6.113340e+002,9.236112e-005
6.132625e+002,-2.288073e-005
6.151910e+002,-1.458395e-004
6.171195e+002,-2.089413e-004
6.190480e+002,-1.478018e-004
6.209765e+002,-4.584156e-005
6.229050e+002,7.102545e-005
6.248335e+002,9.927806e-005
6.267620e+002,1.699273e-004
6.286905e+002,5.156547e-005
6.306190e+002,3.232528e-005
6.325475e+002,1.508063e-004
6.344760e+002,2.492322e-004
6.364045e+002,2.415832e-004
6.383330e+002,3.536707e-004
6.402615e+002,4.682848e-004
6.421899e+002,4.527885e-004
6.441185e+002,3.436981e-004
6.460470e+002,3.884565e-004
6.479755e+002,3.309920e-004
6.499039e+002,3.246441e-004
6.518325e+002,3.410075e-004
6.537610e+002,3.522839e-004
6.556895e+002,3.768485e-004
6.576179e+002,4.265774e-004
6.595464e+002,3.722021e-004
6.614750e+002,3.468953e-004
6.634034e+002,3.025634e-004
6.653319e+002,2.498440e-004
6.672604e+002,1.671622e-004
6.691890e+002,2.867375e-004
6.711174e+002,3.096927e-004
6.730460e+002,3.654435e-004
6.749745e+002,3.640670e-004
6.769030e+002,4.257206e-004
6.788314e+002,4.932350e-004
6.807599e+002,6.376607e-004
6.826885e+002,6.458135e-004
6.846169e+002,6.159162e-004
6.865454e+002,6.737523e-004
6.884739e+002,7.993467e-004
6.904025e+002,7.995022e-004
6.923309e+002,9.348793e-004
6.942594e+002,1.008375e-003
6.961879e+002,1.019389e-003
6.981165e+002,1.017941e-003
7.000449e+002,1.096614e-003
7.019734e+002,1.158953e-003
7.039019e+002,1.255772e-003
7.058304e+002,1.268263e-003
7.077589e+002,1.410097e-003
7.096874e+002,1.553728e-003
7.116159e+002,1.619339e-003
7.135444e+002,1.602959e-003
7.154729e+002,1.711534e-003
7.174014e+002,1.899080e-003
7.193299e+002,2.119400e-003
7.212584e+002,2.276122e-003
7.231869e+002,2.347327e-003
7.251154e+002,2.173503e-003
7.270439e+002,2.028325e-003
7.289724e+002,1.895383e-003
7.309009e+002,1.801314e-003
7.328294e+002,1.665698e-003
7.347579e+002,1.594589e-003
7.366864e+002,1.488440e-003
7.386149e+002,1.434973e-003
7.405434e+002,1.392916e-003
7.424719e+002,1.383785e-003
7.444004e+002,1.342028e-003
7.463289e+002,1.300414e-003
7.482574e+002,1.195291e-003
7.501859e+002,1.192679e-003
7.521144e+002,1.137390e-003
7.540428e+002,1.162982e-003
7.559714e+002,1.202343e-003
7.578999e+002,1.232449e-003
7.598284e+002,1.166591e-003
7.617568e+002,1.187619e-003
7.636854e+002,1.225116e-003
7.656139e+002,1.281797e-003
7.675424e+002,1.330194e-003
7.694709e+002,1.357005e-003
7.713994e+002,1.349091e-003
7.733279e+002,1.361176e-003
7.752563e+002,1.327831e-003
7.771849e+002,1.381471e-003
7.791134e+002,1.473044e-003
7.810419e+002,1.643966e-003
7.829703e+002,1.733992e-003
7.848989e+002,1.909137e-003
7.868274e+002,2.146697e-003
7.887559e+002,2.482657e-003
7.906843e+002,2.790529e-003
7.926129e+002,3.096297e-003
7.945414e+002,3.355900e-003
7.964698e+002,3.649113e-003
7.983983e+002,4.023252e-003
8.003268e+002,4.601954e-003
8.022554e+002,5.360143e-003
8.041838e+002,6.827204e-003
8.061123e+002,9.002280e-003
8.080408e+002,1.084554e-002
8.099694e+002,1.069485e-002
8.118978e+002,8.645399e-003
8.138263e+002,6.312130e-003
8.157548e+002,4.978200e-003
8.176833e+002,4.319734e-003
8.196118e+002,4.068792e-003
8.215403e+002,3.952430e-003
8.234689e+002,4.067455e-003
8.253973e+002,4.246564e-003
8.273258e+002,4.538702e-003
8.292543e+002,4.908091e-003
8.311829e+002,5.428908e-003
8.331113e+002,6.165671e-003
8.350398e+002,7.772190e-003
8.369683e+002,1.184136e-002
8.388969e+002,2.060574e-002
8.408253e+002,2.574278e-002
8.427538e+002,1.877072e-002
8.446823e+002,1.038456e-002
8.466108e+002,6.699819e-003
8.485393e+002,5.245330e-003
8.504678e+002,4.534747e-003
8.523963e+002,4.183910e-003
8.543248e+002,3.948819e-003
8.562533e+002,3.662555e-003
8.581818e+002,3.534039e-003
8.601103e+002,3.344890e-003
8.620388e+002,3.218178e-003
8.639673e+002,3.161001e-003
8.658958e+002,3.240754e-003
8.678243e+002,3.172080e-003
8.697528e+002,3.070112e-003
8.716813e+002,2.961482e-003
8.736098e+002,2.996425e-003
8.755383e+002,2.997286e-003
8.774668e+002,3.006283e-003
8.793953e+002,2.926847e-003
8.813238e+002,2.963741e-003
8.832523e+002,3.071458e-003
8.851808e+002,3.256742e-003
8.871093e+002,3.397685e-003
8.890378e+002,3.651738e-003
8.909663e+002,3.930716e-003
8.928948e+002,4.682900e-003
8.948232e+002,6.214681e-003
8.967518e+002,8.505763e-003
8.986803e+002,9.977022e-003
9.006088e+002,9.182438e-003
9.025372e+002,6.843378e-003
9.044658e+002,4.911033e-003
9.063943e+002,3.798303e-003
9.083228e+002,3.251204e-003
9.102512e+002,2.994403e-003
9.121797e+002,2.926842e-003
9.141083e+002,2.824900e-003
9.160367e+002,2.791444e-003
9.179653e+002,2.750049e-003
9.198937e+002,2.760587e-003
9.218223e+002,2.757316e-003
9.237507e+002,2.859676e-003
9.256793e+002,2.904299e-003
9.276077e+002,2.932187e-003
9.295363e+002,2.969791e-003
9.314647e+002,3.136682e-003
9.333932e+002,3.308834e-003
9.353217e+002,3.759540e-003
9.372502e+002,4.512182e-003
9.391787e+002,5.197207e-003
9.411072e+002,5.196549e-003
9.430358e+002,4.764075e-003
9.449642e+002,4.408857e-003
9.468928e+002,4.376423e-003
9.488212e+002,4.381665e-003
9.507498e+002,4.527679e-003
9.526782e+002,4.791612e-003
9.546068e+002,5.167211e-003
9.565352e+002,5.569745e-003
9.584637e+002,6.193799e-003
9.603922e+002,6.957566e-003
9.623207e+002,7.997273e-003
9.642492e+002,9.553788e-003
9.661777e+002,1.235322e-002
9.681062e+002,1.770206e-002
9.700347e+002,2.642313e-002
9.719632e+002,3.304300e-002
9.738917e+002,3.078885e-002
9.758202e+002,2.309207e-002
9.777487e+002,1.612340e-002
9.796772e+002,1.141513e-002
9.816057e+002,8.851685e-003
9.835342e+002,7.661574e-003
9.854627e+002,7.459354e-003
9.873912e+002,7.913124e-003
9.893197e+002,9.211987e-003
9.912482e+002,1.172781e-002
9.931767e+002,1.650360e-002
9.951052e+002,2.372669e-002
9.970337e+002,2.920051e-002
9.989622e+002,2.668755e-002
1.000891e+003,1.883399e-002
1.002819e+003,1.242889e-002
1.004748e+003,9.085238e-003
1.006676e+003,7.368624e-003
1.008605e+003,6.416078e-003
1.010533e+003,5.783113e-003
1.012462e+003,5.470649e-003
1.014390e+003,5.267123e-003
1.016319e+003,5.198752e-003
1.018247e+003,5.091681e-003
1.020176e+003,5.003361e-003
1.022104e+003,4.865926e-003
1.024033e+003,4.823456e-003
1.025961e+003,4.812202e-003
1.027890e+003,4.867164e-003
1.029818e+003,4.854592e-003
1.031747e+003,4.993299e-003
1.033675e+003,5.172871e-003
1.035604e+003,5.314381e-003
1.037532e+003,5.362903e-003
1.039461e+003,5.583925e-003
1.041389e+003,6.077238e-003
1.043318e+003,6.669989e-003
1.045246e+003,6.684531e-003
1.047175e+003,6.213021e-003
1.049103e+003,5.668894e-003
1.051032e+003,5.391558e-003
1.052960e+003,5.207503e-003
1.054889e+003,5.152934e-003
1.056817e+003,5.091580e-003
1.058746e+003,5.109816e-003
1.060674e+003,5.080999e-003
1.062603e+003,5.110909e-003
1.064531e+003,5.129188e-003
1.066460e+003,5.224231e-003
1.068388e+003,5.240757e-003
1.070317e+003,5.301181e-003
1.072245e+003,5.405574e-003
1.074174e+003,5.621426e-003
1.076102e+003,5.880115e-003
1.078031e+003,6.180805e-003
1.079959e+003,6.484358e-003
1.081888e+003,6.853460e-003
1.083816e+003,7.025118e-003
1.085745e+003,7.154716e-003
1.087673e+003,7.348558e-003
1.089602e+003,7.732823e-003
1.091530e+003,8.101683e-003
1.093459e+003,8.456582e-003
1.095387e+003,8.847255e-003
1.097316e+003,9.544971e-003
1.099244e+003,1.034859e-002
1.101173e+003,1.102120e-002
1.103101e+003,1.094799e-002
1.105030e+003,1.019754e-002
1.106958e+003,9.241891e-003
1.108887e+003,8.630844e-003
1.110815e+003,8.320436e-003
1.112744e+003,8.315718e-003
1.114672e+003,8.339416e-003
1.116601e+003,8.428098e-003
1.118529e+003,8.409018e-003
1.120458e+003,8.351965e-003
1.122386e+003,8.168257e-003
1.124315e+003,7.992620e-003
1.126243e+003,7.803826e-003
1.128172e+003,7.840032e-003
1.130100e+003,8.073726e-003
1.132029e+003,8.556103e-003
1.133957e+003,9.184256e-003
1.135885e+003,1.005961e-002
1.137814e+003,1.101734e-002
1.139743e+003,1.217077e-002
1.141671e+003,1.337846e-002
1.143600e+003,1.470486e-002
1.145528e+003,1.607679e-002
1.147457e+003,1.783016e-002
1.149385e+003,1.982411e-002
1.151314e+003,2.163199e-002
1.153242e+003,2.276747e-002
1.155171e+003,2.360759e-002
1.157099e+003,2.460218e-002
1.159028e+003,2.612948e-002
1.160956e+003,2.823265e-002
1.162885e+003,3.143571e-002
1.164813e+003,3.527598e-002
1.166742e+003,3.760649e-002
1.168670e+003,3.506450e-002
1.170599e+003,2.826519e-002
1.172527e+003,2.131916e-002
1.174456e+003,1.657916e-002
1.176384e+003,1.370776e-002
1.178313e+003,1.201589e-002
1.180241e+003,1.090829e-002
1.182170e+003,1.027199e-002
1.184098e+003,9.788475e-003
1.186027e+003,9.506902e-003
1.187955e+003,9.302035e-003
1.189884e+003,9.199429e-003
1.191812e+003,9.042980e-003
1.193740e+003,8.975599e-003
1.195669e+003,8.855760e-003
1.197598e+003,8.817355e-003
1.199526e+003,8.807713e-003
1.201455e+003,8.890580e-003
1.203383e+003,8.979525e-003
1.205312e+003,9.199304e-003
1.207240e+003,9.418407e-003
1.209168e+003,9.664979e-003
1.211097e+003,9.900961e-003
1.213026e+003,1.033148e-002
1.214954e+003,1.080674e-002
1.216883e+003,1.129357e-002
1.218811e+003,1.151450e-002
1.220740e+003,1.144813e-002
1.222668e+003,1.110914e-002
1.224596e+003,1.086843e-002
1.226525e+003,1.073799e-002
1.228453e+003,1.079687e-002
1.230382e+003,1.085335e-002
1.232311e+003,1.095952e-002
1.234239e+003,1.103177e-002
1.236167e+003,1.114300e-002
1.238096e+003,1.113845e-002
1.240025e+003,1.117275e-002
1.241953e+003,1.115097e-002
1.243882e+003,1.119767e-002
1.245810e+003,1.114072e-002
1.247739e+003,1.120684e-002
1.249667e+003,1.146007e-002
1.251595e+003,1.238924e-002
1.253524e+003,1.384610e-002
1.255453e+003,1.441340e-002
1.257381e+003,1.302443e-002
1.259310e+003,1.124871e-002
1.261238e+003,9.991430e-003
1.263167e+003,9.290796e-003
1.265095e+003,8.762199e-003
1.267023e+003,8.414968e-003
1.268952e+003,8.089708e-003
1.270880e+003,7.938512e-003
1.272809e+003,7.817037e-003
1.274738e+003,7.878037e-003
1.276666e+003,7.944759e-003
1.278594e+003,8.074848e-003
1.280523e+003,8.132287e-003
1.282451e+003,8.275926e-003
1.284380e+003,8.354066e-003
1.286308e+003,8.589885e-003
1.288237e+003,8.864908e-003
1.290166e+003,9.448034e-003
1.292094e+003,1.016451e-002
1.294022e+003,1.095624e-002
1.295951e+003,1.132147e-002
1.297879e+003,1.139517e-002
1.299808e+003,1.156890e-002
1.301736e+003,1.285129e-002
1.303665e+003,1.432141e-002
1.305594e+003,1.355146e-002
1.307522e+003,1.083993e-002
1.309450e+003,9.094616e-003
1.311379e+003,8.390712e-003
1.313307e+003,8.340850e-003
1.315236e+003,8.398157e-003
1.317164e+003,8.684266e-003
1.319093e+003,8.897889e-003
1.321021e+003,9.399779e-003
1.322950e+003,9.993481e-003
1.324878e+003,1.097005e-002
1.326807e+003,1.164697e-002
1.328735e+003,1.209659e-002
1.330664e+003,1.176220e-002
1.332592e+003,1.118910e-002
1.334521e+003,1.063164e-002
1.336449e+003,1.061037e-002
1.338378e+003,1.075164e-002
1.340306e+003,1.137251e-002
1.342235e+003,1.184913e-002
1.344163e+003,1.285689e-002
1.346092e+003,1.404275e-002
1.348021e+003,1.588670e-002
1.349949e+003,1.817963e-002
1.351877e+003,2.175407e-002
1.353806e+003,2.681214e-002
1.355734e+003,3.406915e-002
1.357663e+003,3.934478e-002
1.359591e+003,3.975288e-002
1.361520e+003,3.552318e-002
1.363448e+003,3.211459e-002
1.365377e+003,3.196317e-002
1.367305e+003,3.759063e-002
1.369234e+003,5.305148e-002
1.371162e+003,8.137340e-002
1.373091e+003,1.228738e-001
1.375019e+003,1.608891e-001
1.376948e+003,1.430358e-001
1.378876e+003,9.706063e-002
1.380805e+003,5.976321e-002
1.382733e+003,3.651181e-002
1.384662e+003,2.314367e-002
1.386590e+003,1.576438e-002
1.388519e+003,1.189233e-002
1.390447e+003,1.009206e-002
1.392376e+003,9.400157e-003
1.394304e+003,8.762440e-003
1.396233e+003,8.567709e-003
1.398161e+003,8.267423e-003
1.400090e+003,8.301485e-003
1.402018e+003,8.183051e-003
1.403947e+003,8.255945e-003
1.405875e+003,8.198139e-003
1.407804e+003,8.341111e-003
1.409732e+003,8.494874e-003
1.411661e+003,8.908186e-003
1.413589e+003,9.271793e-003
1.415518e+003,9.732584e-003
1.417446e+003,1.007946e-002
1.419375e+003,1.060705e-002
1.421303e+003,1.098330e-002
1.423232e+003,1.157387e-002
1.425160e+003,1.265318e-002
1.427089e+003,1.400325e-002
1.429017e+003,1.670282e-002
1.430946e+003,2.230444e-002
1.432874e+003,3.015279e-002
1.434803e+003,3.650295e-002
1.436731e+003,3.788010e-002
1.438660e+003,3.765330e-002
1.440588e+003,4.063415e-002
1.442517e+003,4.778754e-002
1.444445e+003,5.944953e-002
1.446374e+003,7.381299e-002
1.448302e+003,8.971197e-002
1.450231e+003,9.715958e-002
1.452159e+003,9.972899e-002
1.454088e+003,9.996647e-002
1.456016e+003,1.000470e-001
1.457945e+003,9.648244e-002
1.459873e+003,9.292357e-002
1.461802e+003,8.771910e-002
1.463730e+003,7.989150e-002
1.465659e+003,6.471504e-002
1.467587e+003,5.201181e-002
1.469516e+003,4.107334e-002
1.471444e+003,3.137530e-002
1.473373e+003,2.018591e-002
1.475301e+003,1.535422e-002
1.477230e+003,1.185497e-002
1.479158e+003,9.892454e-003
1.481087e+003,8.311533e-003
1.483015e+003,7.180808e-003
1.484944e+003,6.331688e-003
1.486872e+003,5.738972e-003
1.488801e+003,5.074333e-003
1.490729e+003,4.699518e-003
1.492658e+003,4.317331e-003
1.494586e+003,4.136603e-003
1.496515e+003,3.880774e-003
1.498443e+003,3.679086e-003
1.500372e+003,3.412155e-003
1.502300e+003,3.293828e-003
1.504229e+003,3.172741e-003
1.506157e+003,3.143477e-003
1.508086e+003,2.868360e-003
1.510014e+003,2.793544e-003
1.511943e+003,2.666406e-003
1.513871e+003,2.657951e-003
1.515800e+003,2.766465e-003
1.517728e+003,2.790923e-003
1.519657e+003,2.603432e-003
1.521585e+003,2.492248e-003
1.523514e+003,2.436043e-003
1.525442e+003,2.452940e-003
1.527371e+003,2.436476e-003
1.529299e+003,2.377261e-003
1.531228e+003,2.349925e-003
1.533156e+003,2.514631e-003
1.535085e+003,2.534498e-003
1.537013e+003,2.513563e-003
1.538942e+003,2.583465e-003
1.540870e+003,2.429695e-003
1.542799e+003,2.375651e-003
1.544727e+003,2.404314e-003
1.546656e+003,2.353349e-003
1.548584e+003,2.414984e-003
1.550513e+003,2.483473e-003
1.552441e+003,2.506567e-003
1.554370e+003,2.568020e-003
1.556298e+003,2.447681e-003
1.558227e+003,2.063115e-003
1.560155e+003,2.141396e-003
1.562084e+003,2.216409e-003
1.564012e+003,2.240011e-003
1.565941e+003,2.254951e-003
1.567869e+003,2.248508e-003
1.569798e+003,2.221508e-003
1.571726e+003,2.197499e-003
1.573655e+003,2.218206e-003
1.575583e+003,2.277288e-003
1.577512e+003,2.248903e-003
1.579440e+003,2.182147e-003
1.581369e+003,2.183932e-003
1.583297e+003,2.175617e-003
1.585226e+003,2.175840e-003
1.587154e+003,2.206122e-003
1.589083e+003,2.251836e-003
1.591011e+003,2.303774e-003
1.592940e+003,2.325453e-003
1.594868e+003,2.347915e-003
1.596797e+003,2.329157e-003
1.598725e+003,2.352924e-003
1.600654e+003,2.388964e-003
1.602582e+003,2.421049e-003
1.604511e+003,2.441238e-003
1.606439e+003,2.428432e-003
1.608368e+003,2.466431e-003
1.610296e+003,2.567250e-003
1.612225e+003,2.611022e-003
1.614153e+003,2.588244e-003
1.616082e+003,2.565276e-003
1.618010e+003,2.561348e-003
1.619939e+003,2.617006e-003
1.621867e+003,2.748733e-003
1.623796e+003,2.828245e-003
1.625724e+003,2.804400e-003
1.627653e+003,2.869561e-003
1.629581e+003,2.918513e-003
1.631510e+003,2.927152e-003
1.633438e+003,2.961462e-003
1.635367e+003,3.061753e-003
1.637295e+003,3.067517e-003
1.639224e+003,2.979418e-003
1.641152e+003,3.010225e-003
1.643081e+003,3.102088e-003
1.645009e+003,3.226535e-003
1.646938e+003,3.375100e-003
1.648866e+003,3.300185e-003
1.650795e+003,3.210762e-003
1.652723e+003,3.217148e-003
1.654652e+003,3.141502e-003
1.656580e+003,3.034070e-003
1.658509e+003,3.034232e-003
1.660437e+003,3.045846e-003
1.662366e+003,3.008017e-003
1.664294e+003,2.907850e-003
1.666223e+003,2.861719e-003
1.668151e+003,2.966858e-003
1.670080e+003,3.024140e-003
1.672008e+003,2.860347e-003
1.673937e+003,2.849953e-003
1.675865e+003,2.949040e-003
1.677794e+003,2.946397e-003
1.679722e+003,3.046177e-003
1.681651e+003,3.021146e-003
1.683579e+003,3.100041e-003
1.685508e+003,3.006458e-003
1.687436e+003,2.988821e-003
1.689365e+003,3.070209e-003
1.691293e+003,3.076496e-003
1.693222e+003,3.140461e-003
1.695150e+003,3.355926e-003
1.697079e+003,3.484157e-003
1.699007e+003,3.263744e-003
1.700936e+003,3.302535e-003
1.702864e+003,3.405545e-003
1.704793e+003,3.464585e-003
1.706721e+003,3.553691e-003
1.708650e+003,3.620628e-003
1.710578e+003,3.741961e-003
1.712507e+003,3.833782e-003
1.714435e+003,3.978739e-003
1.716364e+003,4.138456e-003
1.718292e+003,4.343646e-003
1.720221e+003,4.362395e-003
1.722149e+003,4.570514e-003
1.724078e+003,5.057001e-003
1.726006e+003,5.569423e-003
1.727935e+003,6.233111e-003
1.729863e+003,7.295908e-003
1.731792e+003,8.259476e-003
1.733720e+003,1.018312e-002
1.735649e+003,1.294211e-002
1.737577e+003,1.424355e-002
1.739506e+003,1.705423e-002
1.741434e+003,1.967825e-002
1.743363e+003,2.154917e-002
1.745291e+003,2.255357e-002
1.747220e+003,2.248483e-002
1.749148e+003,2.120661e-002
1.751077e+003,1.863834e-002
1.753005e+003,1.550065e-002
1.754934e+003,1.287123e-002
1.756862e+003,9.929361e-003
1.758791e+003,7.608492e-003
1.760719e+003,6.036676e-003
1.762648e+003,4.398428e-003
1.764576e+003,3.461184e-003
1.766505e+003,3.009584e-003
1.768433e+003,2.559396e-003
1.770362e+003,2.177618e-003
1.772290e+003,1.903430e-003
1.774219e+003,1.610977e-003
1.776147e+003,1.460293e-003
1.778076e+003,1.449053e-003
1.780004e+003,1.504035e-003
1.781933e+003,1.420005e-003
1.783861e+003,1.408988e-003
1.785790e+003,1.312161e-003
1.787718e+003,1.163623e-003
1.789646e+003,1.215271e-003
1.791575e+003,1.292975e-003
1.793504e+003,1.093864e-003
1.795432e+003,1.025883e-003
1.797361e+003,9.059906e-004
1.799289e+003,8.565281e-004
1.801218e+003,8.022077e-004
1.803146e+003,7.089339e-004
1.805074e+003,6.379262e-004
1.807003e+003,5.864520e-004
1.808932e+003,6.022351e-004
1.810860e+003,5.334141e-004
1.812789e+003,2.287868e-004
1.814717e+003,-1.644120e-004
1.816646e+003,-3.696103e-004
1.818574e+003,8.362718e-005
1.820502e+003,3.875438e-004
1.822431e+003,4.013265e-004
1.824360e+003,3.810320e-004
1.826288e+003,4.273290e-004
1.828217e+003,4.145084e-004
1.830145e+003,3.394866e-004
1.832073e+003,2.431646e-004
1.834002e+003,3.178306e-004
1.835931e+003,2.015056e-004
1.837859e+003,1.478354e-004
1.839788e+003,1.947237e-004
1.841716e+003,1.659915e-004
1.843645e+003,1.144344e-004
1.845573e+003,5.703419e-006
1.847501e+003,-1.243046e-004
1.849430e+003,-6.832276e-005
1.851359e+003,-9.311456e-005
1.853287e+003,-1.067296e-004
1.855216e+003,-1.398325e-004
1.857144e+003,-1.949891e-004
1.859073e+003,-2.706908e-004
1.861001e+003,-2.845367e-004
1.862929e+003,-3.601350e-004
1.864858e+003,-2.972158e-004
1.866787e+003,-2.212171e-004
1.868715e+003,-1.463918e-004
1.870644e+003,-3.235918e-004
1.872572e+003,-3.588656e-004
1.874500e+003,-3.697164e-004
1.876429e+003,-2.743816e-004
1.878357e+003,-3.238721e-004
1.880286e+003,-3.784792e-004
1.882215e+003,-3.909720e-004
1.884143e+003,-3.061863e-004
1.886072e+003,-3.440818e-004
1.888000e+003,-3.470145e-004
1.889928e+003,-4.931679e-004
1.891857e+003,-3.909934e-004
1.893785e+003,-2.922518e-004
1.895714e+003,-5.391734e-004
1.897643e+003,-6.215191e-004
1.899571e+003,-5.403748e-004
1.901500e+003,-5.294336e-004
1.903428e+003,-5.184980e-004
1.905356e+003,-5.075699e-004
1.907285e+003,-4.966501e-004
1.909213e+003,-4.857359e-004
1.911142e+003,-4.748283e-004
1.913071e+003,-4.639281e-004
1.914999e+003,-4.530363e-004
1.916927e+003,-4.421500e-004
1.918856e+003,-4.312694e-004
1.920784e+003,-4.203971e-004
1.922713e+003,-4.095333e-004
1.924641e+003,-3.986759e-004
1.926570e+003,-3.878241e-004
1.928499e+003,-3.769789e-004
1.930427e+003,-3.661411e-004
1.932355e+003,-3.553126e-004
1.934284e+003,-3.444878e-004
1.936212e+003,-3.336715e-004
1.938141e+003,-3.228607e-004
1.940070e+003,-3.120573e-004
1.941998e+003,-3.012614e-004
1.943927e+003,-2.904739e-004
1.945855e+003,-2.796929e-004
1.947783e+003,-2.689166e-004
1.949712e+003,-2.581477e-004
1.951640e+003,-2.473872e-004
1.953569e+003,-2.366351e-004
1.955498e+003,-2.258867e-004
1.957426e+003,-2.151467e-004
1.959354e+003,-2.044141e-004
1.961283e+003,-1.936872e-004
1.963211e+003,-1.829667e-004
1.965140e+003,-1.722565e-004
1.967068e+003,-1.615500e-004
1.968997e+003,-1.508528e-004
1.970926e+003,-1.401594e-004
1.972854e+003,-1.294762e-004
1.974782e+003,-1.187976e-004
1.976711e+003,-1.081266e-004
1.978639e+003,-9.746198e-005
1.980568e+003,-8.680578e-005
1.982496e+003,-7.615704e-005
1.984425e+003,-6.551296e-005
1.986354e+003,-5.487725e-005
1.988282e+003,-4.424900e-005
1.990210e+003,-3.362633e-005
1.992139e+003,-2.301019e-005
1.994067e+003,-1.240242e-005
1.995996e+003,-1.802109e-006
1.997924e+003,8.792616e-006
1.999853e+003,1.937989e-005
2.001781e+003,2.995972e-005
2.003710e+003,4.053302e-005
2.005638e+003,5.109981e-005
2.007567e+003,6.166007e-005
2.009495e+003,7.221289e-005
2.011424e+003,8.275546e-005
2.013352e+003,9.329803e-005
2.015281e+003,1.038294e-004
2.017209e+003,1.143534e-004
2.019138e+003,1.248689e-004
2.021066e+003,1.353826e-004
2.022995e+003,1.458842e-004
2.024923e+003,1.563830e-004
2.026852e+003,1.668716e-004
2.028781e+003,1.773555e-004
2.030709e+003,1.878310e-004
2.032637e+003,1.983009e-004
2.034566e+003,2.087634e-004
2.036494e+003,2.192194e-004
2.038423e+003,2.296669e-004
2.040351e+003,2.401080e-004
2.042280e+003,2.505425e-004
2.044208e+003,2.609696e-004
2.046137e+003,2.713911e-004
2.048065e+003,2.818042e-004
2.049994e+003,2.922108e-004
2.051922e+003,3.026109e-004
2.053851e+003,3.130045e-004
2.055779e+003,3.233906e-004
2.057708e+003,3.337692e-004
2.059636e+003,3.441395e-004
2.061565e+003,3.545033e-004
2.063493e+003,3.648642e-004
2.065422e+003,3.752112e-004
2.067350e+003,3.855564e-004
2.069279e+003,3.958978e-004
2.071207e+003,4.062252e-004
2.073136e+003,4.165489e-004
2.075064e+003,4.268661e-004
2.076993e+003,4.371731e-004
2.078921e+003,4.474754e-004
2.080850e+003,4.577711e-004
2.082778e+003,4.680585e-004
2.084707e+003,4.783440e-004
2.086635e+003,4.886184e-004
2.088564e+003,4.988853e-004
2.090492e+003,5.091447e-004
2.092421e+003,5.194005e-004
2.094349e+003,5.296450e-004
2.096278e+003,5.398840e-004
2.098206e+003,5.501192e-004
2.100135e+003,5.603451e-004
2.102063e+003,5.705655e-004
2.103992e+003,5.807765e-004
2.105920e+003,5.909801e-004
2.107849e+003,6.011799e-004
2.109777e+003,6.113704e-004
2.111706e+003,6.215535e-004
2.113634e+003,6.317329e-004
2.115563e+003,6.419010e-004
2.117491e+003,6.520674e-004
2.119420e+003,6.622206e-004
2.121348e+003,6.723721e-004
2.123277e+003,6.825142e-004
2.125205e+003,6.926488e-004
2.127134e+003,7.027779e-004
2.129062e+003,7.129032e-004
2.130991e+003,7.230174e-004
2.132919e+003,7.331241e-004
2.134848e+003,7.432234e-004
2.136776e+003,7.533170e-004
2.138705e+003,7.634051e-004
2.140633e+003,7.734839e-004
2.142562e+003,7.835589e-004
2.144490e+003,7.936247e-004
2.146419e+003,8.036848e-004
2.148347e+003,8.137356e-004
2.150276e+003,8.237809e-004
2.152204e+003,8.338187e-004
2.154133e+003,8.438490e-004
2.156061e+003,8.538775e-004
2.157990e+003,8.638948e-004
2.159918e+003,8.739047e-004
2.161847e+003,8.839089e-004
2.163775e+003,8.939039e-004
2.165704e+003,9.038933e-004
2.167632e+003,9.138752e-004
2.169561e+003,9.238496e-004
2.171489e+003,9.338204e-004
2.173418e+003,9.437837e-004
2.175346e+003,9.537376e-004
2.177275e+003,9.636860e-004
2.179203e+003,9.736270e-004
2.181132e+003,9.835605e-004
2.183060e+003,9.934884e-004
2.184989e+003,1.003409e-003
2.186917e+003,1.013324e-003
2.188846e+003,1.023229e-003
2.190774e+003,1.033127e-003
2.192703e+003,1.043018e-003
2.194631e+003,1.052905e-003
2.196560e+003,1.062784e-003
2.198488e+003,1.072655e-003
2.200417e+003,1.082521e-003
2.202345e+003,1.092380e-003
2.204274e+003,1.102230e-003
2.206202e+003,1.112074e-003
2.208131e+003,1.121910e-003
2.210059e+003,1.131739e-003
2.211988e+003,1.141561e-003
2.213916e+003,1.151375e-003
2.215845e+003,1.161186e-003
2.217773e+003,1.170991e-003
2.219702e+003,1.180785e-003
2.221630e+003,1.190575e-003
2.223559e+003,1.200354e-003
2.225487e+003,1.210129e-003
2.227416e+003,1.219895e-003
2.229344e+003,1.229655e-003
2.231273e+003,1.239410e-003
2.233201e+003,1.249157e-003
2.235130e+003,1.258897e-003
2.237058e+003,1.268629e-003
2.238987e+003,1.278356e-003
2.240915e+003,1.288071e-003
2.242844e+003,1.297783e-003
2.244772e+003,1.307489e-003
2.246701e+003,1.317188e-003
2.248629e+003,1.326879e-003
2.250558e+003,1.336563e-003
2.252486e+003,1.346240e-003
2.254415e+003,1.355911e-003
2.256343e+003,1.365572e-003
2.258272e+003,1.375230e-003
2.260200e+003,1.384877e-003
2.262129e+003,1.394521e-003
2.264057e+003,1.404157e-003
2.265986e+003,1.413783e-003
2.267914e+003,1.423405e-003
2.269843e+003,1.433019e-003
2.271771e+003,1.442626e-003
2.273700e+003,1.452226e-003
2.275628e+003,1.461823e-003
2.277557e+003,1.471410e-003
2.279485e+003,1.480989e-003
2.281414e+003,1.490561e-003
2.283342e+003,1.500126e-003
2.285271e+003,1.509685e-003
2.287199e+003,1.519237e-003
2.289128e+003,1.528785e-003
2.291056e+003,1.538321e-003
2.292985e+003,1.547851e-003
2.294913e+003,1.557374e-003
2.296842e+003,1.566892e-003
2.298770e+003,1.576405e-003
2.300699e+003,1.585908e-003
2.302627e+003,1.595406e-003
2.304556e+003,1.604894e-003
2.306484e+003,1.614377e-003
2.308413e+003,1.623852e-003
2.310341e+003,1.633318e-003
2.312270e+003,1.642780e-003
2.314198e+003,1.652235e-003
2.316127e+003,1.661683e-003
2.318055e+003,1.671122e-003
2.319984e+003,1.680560e-003
2.321912e+003,1.689985e-003
2.323841e+003,1.699407e-003
2.325769e+003,1.708819e-003
2.327698e+003,1.718223e-003
2.329626e+003,1.727624e-003
2.331555e+003,1.737013e-003
2.333483e+003,1.746399e-003
2.335412e+003,1.755780e-003
2.337340e+003,1.765152e-003
2.339269e+003,1.774514e-003
2.341197e+003,1.783872e-003
2.343126e+003,1.793221e-003
2.345054e+003,1.802564e-003
2.346983e+003,1.811901e-003
2.348911e+003,1.821233e-003
2.350840e+003,1.830554e-003
2.352768e+003,1.839871e-003
2.354697e+003,1.849178e-003
2.356625e+003,1.858478e-003
2.358554e+003,1.867775e-003
2.360482e+003,1.877062e-003
2.362411e+003,1.886342e-003
2.364339e+003,1.895620e-003
2.366268e+003,1.904884e-003
2.368196e+003,1.914144e-003
2.370125e+003,1.923397e-003
2.372053e+003,1.932645e-003
2.373982e+003,1.941884e-003
2.375910e+003,1.951115e-003
2.377839e+003,1.960345e-003
2.379767e+003,1.969561e-003
2.381696e+003,1.978772e-003
2.383624e+003,1.987975e-003
2.385553e+003,1.997173e-003
2.387481e+003,2.006363e-003
2.389410e+003,2.015548e-003
2.391338e+003,2.024727e-003
2.393267e+003,2.033897e-003
2.395195e+003,2.043057e-003
2.397124e+003,2.052214e-003
2.399052e+003,2.061361e-003
2.400981e+003,1.936909e-003
2.402909e+003,1.691539e-003
2.404838e+003,1.697965e-003
2.406766e+003,1.905868e-003
2.408695e+003,2.183324e-003
2.410623e+003,2.231138e-003
2.412552e+003,2.240578e-003
2.414480e+003,2.209760e-003
2.416409e+003,2.252290e-003
2.418337e+003,2.175370e-003
2.420266e+003,2.236217e-003
2.422194e+003,2.410898e-003
2.424123e+003,2.579898e-003
2.426051e+003,2.548380e-003
2.427979e+003,2.592478e-003
2.429908e+003,2.718603e-003
2.431837e+003,2.718700e-003
2.433765e+003,2.737366e-003
2.435694e+003,2.743291e-003
2.437622e+003,2.667312e-003
2.439551e+003,2.765853e-003
2.441479e+003,2.765266e-003
2.443407e+003,2.625141e-003
2.445336e+003,2.615750e-003
2.447265e+003,2.869060e-003
2.449193e+003,3.014021e-003
2.451122e+003,3.039731e-003
2.453050e+003,2.903240e-003
2.454979e+003,2.846288e-003
2.456907e+003,2.904331e-003
2.458836e+003,2.912544e-003
2.460764e+003,2.698869e-003
2.462693e+003,2.577934e-003
2.464621e+003,2.510898e-003
2.466550e+003,2.444504e-003
2.468478e+003,2.416156e-003
2.470406e+003,2.466487e-003
2.472335e+003,2.400450e-003
2.474264e+003,2.494592e-003
2.476192e+003,2.632687e-003
2.478121e+003,2.620634e-003
2.480049e+003,2.513262e-003
2.481978e+003,2.552187e-003
2.483906e+003,2.663298e-003
2.485835e+003,2.758373e-003
2.487763e+003,2.838720e-003
2.489692e+003,2.821485e-003
2.491620e+003,2.745735e-003
2.493549e+003,2.649903e-003
2.495477e+003,2.606161e-003
2.497406e+003,2.746424e-003
2.499334e+003,2.792289e-003
2.501263e+003,2.630113e-003
2.503191e+003,2.429411e-003
2.505120e+003,2.511034e-003
2.507048e+003,2.689447e-003
2.508977e+003,2.813756e-003
2.510905e+003,2.862792e-003
2.512833e+003,2.882699e-003
2.514762e+003,2.833407e-003
2.516691e+003,2.875309e-003
2.518619e+003,3.030907e-003
2.520548e+003,3.111321e-003
2.522476e+003,3.149588e-003
2.524405e+003,3.337739e-003
2.526333e+003,3.398331e-003
2.528261e+003,3.383059e-003
2.530190e+003,3.528900e-003
2.532119e+003,3.730511e-003
2.534047e+003,3.762355e-003
2.535976e+003,3.871972e-003
2.537904e+003,3.976524e-003
2.539833e+003,3.996914e-003
2.541761e+003,4.004005e-003
2.543689e+003,4.189106e-003
2.545618e+003,4.359527e-003
2.547547e+003,4.345078e-003
2.549475e+003,4.328182e-003
2.551404e+003,4.443679e-003
2.553332e+003,4.624549e-003
2.555260e+003,4.672686e-003
2.557189e+003,4.752459e-003
2.559117e+003,4.981775e-003
2.561046e+003,5.128963e-003
2.562975e+003,5.158257e-003
2.564903e+003,5.228106e-003
2.566832e+003,5.514374e-003
2.568760e+003,5.695205e-003
2.570688e+003,5.748725e-003
2.572617e+003,5.889414e-003
2.574546e+003,6.240370e-003
2.576474e+003,6.650949e-003
2.578403e+003,6.997954e-003
2.580331e+003,7.224677e-003
2.582260e+003,7.394068e-003
2.584188e+003,7.267406e-003
2.586116e+003,6.840535e-003
2.588045e+003,6.563887e-003
2.589974e+003,6.496385e-003
2.591902e+003,6.419640e-003
2.593831e+003,6.431954e-003
2.595759e+003,6.513473e-003
2.597688e+003,6.587885e-003
2.599616e+003,6.576791e-003
2.601544e+003,6.720793e-003
2.603473e+003,6.837837e-003
2.605402e+003,7.138543e-003
2.607330e+003,7.483158e-003
2.609259e+003,7.741207e-003
2.611187e+003,7.944766e-003
2.613115e+003,8.124622e-003
2.615044e+003,8.286117e-003
2.616972e+003,8.376822e-003
2.618901e+003,8.390164e-003
2.620830e+003,8.480871e-003
2.622758e+003,8.499524e-003
2.624687e+003,8.438740e-003
2.626615e+003,8.384541e-003
2.628543e+003,8.395886e-003
2.630472e+003,8.417677e-003
2.632400e+003,8.481644e-003
2.634329e+003,8.527094e-003
2.636258e+003,8.652044e-003
2.638186e+003,8.857934e-003
2.640115e+003,9.082071e-003
2.642043e+003,9.221159e-003
2.643971e+003,9.350926e-003
2.645900e+003,9.519700e-003
2.647828e+003,9.716338e-003
2.649757e+003,9.843154e-003
2.651686e+003,1.001078e-002
2.653614e+003,1.023311e-002
2.655542e+003,1.042104e-002
2.657471e+003,1.050475e-002
2.659399e+003,1.050558e-002
2.661328e+003,1.027594e-002
2.663256e+003,9.963030e-003
2.665185e+003,9.699250e-003
2.667114e+003,9.536121e-003
2.669042e+003,9.456592e-003
2.670970e+003,9.529851e-003
2.672899e+003,9.628987e-003
2.674827e+003,9.739153e-003
2.676756e+003,9.840017e-003
2.678685e+003,9.812087e-003
2.680613e+003,9.748770e-003
2.682542e+003,9.721518e-003
2.684470e+003,9.767883e-003
2.686398e+003,9.804985e-003
2.688327e+003,9.843038e-003
2.690255e+003,9.893656e-003
2.692184e+003,9.871077e-003
2.694113e+003,9.847255e-003
2.696041e+003,9.908462e-003
2.697969e+003,1.000255e-002
2.699898e+003,1.013739e-002
2.701826e+003,1.041224e-002
2.703755e+003,1.071106e-002
2.705683e+003,1.100943e-002
2.707612e+003,1.132615e-002
2.709541e+003,1.171067e-002
2.711469e+003,1.220480e-002
2.713397e+003,1.286676e-002
2.715326e+003,1.367425e-002
2.717254e+003,1.458744e-002
2.719183e+003,1.548228e-002
2.721111e+003,1.613457e-002
2.723040e+003,1.617058e-002
2.724969e+003,1.560533e-002
2.726897e+003,1.477828e-002
2.728825e+003,1.407060e-002
2.730754e+003,1.349954e-002
2.732682e+003,1.310809e-002
2.734611e+003,1.279422e-002
2.736539e+003,1.246172e-002
2.738468e+003,1.208634e-002
2.740396e+003,1.171249e-002
2.742325e+003,1.143259e-002
2.744253e+003,1.123231e-002
2.746182e+003,1.115173e-002
2.748110e+003,1.118603e-002
2.750039e+003,1.113163e-002
2.751967e+003,1.110719e-002
2.753896e+003,1.119325e-002
2.755824e+003,1.140873e-002
2.757753e+003,1.162669e-002
2.759681e+003,1.185557e-002
2.761610e+003,1.214719e-002
2.763538e+003,1.238528e-002
2.765467e+003,1.257827e-002
2.767395e+003,1.279339e-002
2.769324e+003,1.304023e-002
2.771252e+003,1.332151e-002
2.773181e+003,1.364204e-002
2.775109e+003,1.404516e-002
2.777038e+003,1.448587e-002
2.778966e+003,1.500740e-002
2.780895e+003,1.564988e-002
2.782823e+003,1.639872e-002
2.784752e+003,1.724808e-002
2.786680e+003,1.817605e-002
2.788609e+003,1.928557e-002
2.790537e+003,2.041145e-002
2.792466e+003,2.140222e-002
2.794394e+003,2.227711e-002
2.796323e+003,2.296221e-002
2.798251e+003,2.361255e-002
2.800180e+003,2.457211e-002
2.802108e+003,2.604789e-002
2.804037e+003,2.791988e-002
2.805965e+003,2.983521e-002
2.807894e+003,3.151083e-002
2.809822e+003,3.306758e-002
2.811751e+003,3.464160e-002
2.813679e+003,3.634196e-002
2.815608e+003,3.842615e-002
2.817536e+003,4.101112e-002
2.819465e+003,4.413587e-002
2.821393e+003,4.809411e-002
2.823322e+003,5.322192e-002
2.825250e+003,6.016000e-002
2.827179e+003,6.998019e-002
2.829107e+003,8.447278e-002
2.831036e+003,1.057124e-001
2.832964e+003,1.337875e-001
2.834893e+003,1.629032e-001
2.836821e+003,1.821848e-001
2.838750e+003,1.843769e-001
2.840678e+003,1.710432e-001
2.842607e+003,1.496889e-001
2.844535e+003,1.284624e-001
2.846464e+003,1.122352e-001
2.848392e+003,1.019570e-001
2.850321e+003,9.644710e-002
2.852249e+003,9.418637e-002
2.854178e+003,9.438415e-002
2.856106e+003,9.780661e-002
2.858035e+003,1.066186e-001
2.859963e+003,1.235901e-001
2.861892e+003,1.487284e-001
2.863820e+003,1.737349e-001
2.865749e+003,1.861966e-001
2.867677e+003,1.839004e-001
2.869606e+003,1.755977e-001
2.871534e+003,1.688033e-001
2.873463e+003,1.665937e-001
2.875391e+003,1.686885e-001
2.877320e+003,1.703862e-001
2.879248e+003,1.678428e-001
2.881177e+003,1.627850e-001
2.883105e+003,1.582201e-001
2.885034e+003,1.553536e-001
2.886962e+003,1.540492e-001
2.888891e+003,1.542540e-001
2.890819e+003,1.566247e-001
2.892748e+003,1.624065e-001
2.894676e+003,1.722527e-001
2.896605e+003,1.861658e-001
2.898533e+003,2.033522e-001
2.900462e+003,2.224458e-001
2.902390e+003,2.423690e-001
2.904319e+003,2.617655e-001
2.906247e+003,2.789665e-001
2.908176e+003,2.944828e-001
2.910104e+003,3.129000e-001
2.912033e+003,3.397412e-001
2.913961e+003,3.729657e-001
2.915890e+003,3.987409e-001
2.917818e+003,4.013567e-001
2.919747e+003,3.817213e-001
2.921675e+003,3.538660e-001
2.923604e+003,3.264399e-001
2.925532e+003,2.982921e-001
2.927461e+003,2.666718e-001
2.929389e+003,2.332257e-001
2.931318e+003,2.022707e-001
2.933246e+003,1.773872e-001
2.935175e+003,1.603553e-001
2.937103e+003,1.522417e-001
2.939032e+003,1.544114e-001
2.940960e+003,1.691703e-001
2.942889e+003,1.980233e-001
2.944817e+003,2.379474e-001
2.946746e+003,2.789707e-001
2.948674e+003,3.049017e-001
2.950603e+003,3.030566e-001
2.952531e+003,2.790072e-001
2.954460e+003,2.525442e-001
2.956388e+003,2.385071e-001
2.958317e+003,2.360277e-001
2.960245e+003,2.322759e-001
2.962174e+003,2.144451e-001
2.964102e+003,1.845364e-001
2.966031e+003,1.531730e-001
2.967959e+003,1.248497e-001
2.969888e+003,9.980355e-002
2.971816e+003,7.862095e-002
2.973745e+003,6.151508e-002
2.975673e+003,4.813053e-002
2.977602e+003,3.790272e-002
2.979530e+003,3.010052e-002
2.981459e+003,2.410228e-002
2.983387e+003,1.958438e-002
2.985316e+003,1.616598e-002
2.987244e+003,1.354603e-002
2.989173e+003,1.140438e-002
2.991101e+003,9.746188e-003
2.993030e+003,8.522313e-003
2.994958e+003,7.657483e-003
2.996887e+003,7.044388e-003
2.998815e+003,6.708542e-003
3.000744e+003,6.436229e-003
3.002672e+003,6.215846e-003
3.004601e+003,5.986158e-003
3.006529e+003,5.501224e-003
3.008458e+003,4.862456e-003
3.010386e+003,4.270779e-003
3.012315e+003,3.624173e-003
3.014243e+003,2.934210e-003
3.016172e+003,2.295215e-003
3.018100e+003,1.784174e-003
3.020029e+003,1.350665e-003
3.021957e+003,9.440389e-004
3.023886e+003,6.073192e-004
3.025814e+003,4.302058e-004
3.027743e+003,2.556350e-004
3.029671e+003,3.738701e-005
3.031600e+003,-8.503161e-005
3.033528e+003,-1.871660e-004
3.035457e+003,-2.812520e-004
3.037385e+003,-2.367571e-004
3.039314e+003,-1.708157e-004
3.041242e+003,-1.715757e-004
3.043171e+003,-2.703220e-004
3.045099e+003,-2.790540e-004
3.047028e+003,-2.460387e-004
3.048956e+003,-2.432782e-004
3.050885e+003,-2.620909e-004
3.052813e+003,-1.933463e-004
3.054742e+003,-1.706034e-004
3.056670e+003,-2.052803e-004
3.058599e+003,-1.591444e-004
3.060527e+003,-1.554247e-004
3.062456e+003,-2.108999e-004
3.064384e+003,-2.976209e-004
3.066313e+003,-3.282763e-004
3.068241e+003,-3.338717e-004
3.070170e+003,-2.997722e-004
3.072098e+003,-2.836417e-004
3.074027e+003,-3.099367e-004
3.075955e+003,-3.061239e-004
3.077884e+003,-2.970304e-004
3.079812e+003,-3.285855e-004
3.081741e+003,-3.315415e-004
3.083669e+003,-2.537128e-004
3.085598e+003,-2.393853e-004
3.087526e+003,-2.549943e-004
3.089455e+003,-2.366006e-004
3.091383e+003,-1.774859e-004
3.093312e+003,-1.136027e-004
3.095240e+003,-1.126193e-004
3.097169e+003,-9.911880e-005
3.099097e+003,-3.153272e-005
3.101026e+003,-2.111122e-005
3.102954e+003,-2.228282e-005
3.104883e+003,-1.164339e-005
3.106811e+003,7.582642e-005
3.108740e+003,1.515634e-004
3.110668e+003,1.906119e-004
3.112597e+003,1.999270e-004
3.114525e+003,1.983307e-004
3.116454e+003,2.780966e-004
3.118382e+003,3.022775e-004
3.120311e+003,2.600439e-004
3.122239e+003,3.729146e-004
3.124168e+003,5.110893e-004
3.126096e+003,5.465169e-004
3.128025e+003,5.672276e-004
3.129953e+003,6.651692e-004
3.131882e+003,6.976854e-004
3.133810e+003,7.898062e-004
3.135739e+003,9.710379e-004
3.137667e+003,1.026532e-003
3.139596e+003,1.036897e-003
3.141524e+003,1.068236e-003
3.143453e+003,9.932201e-004
3.145381e+003,9.398423e-004
3.147310e+003,9.514298e-004
3.149238e+003,1.076194e-003
3.151167e+003,1.081070e-003
3.153095e+003,9.983573e-004
3.155024e+003,1.014559e-003
3.156952e+003,1.013003e-003
3.158881e+003,9.346623e-004
3.160809e+003,9.967573e-004
3.162738e+003,1.071824e-003
3.164666e+003,1.035707e-003
3.166594e+003,1.031356e-003
3.168523e+003,1.085311e-003
3.170452e+003,1.062371e-003
3.172380e+003,1.133086e-003
3.174309e+003,1.102962e-003
3.176237e+003,1.143256e-003
3.178166e+003,1.186060e-003
3.180094e+003,1.148716e-003
3.182022e+003,1.265801e-003
3.183951e+003,1.347179e-003
3.185880e+003,1.325523e-003
3.187808e+003,1.401223e-003
3.189737e+003,1.450336e-003
3.191665e+003,1.451500e-003
3.193594e+003,1.541290e-003
3.195522e+003,1.589919e-003
3.197450e+003,1.584899e-003
3.199379e+003,1.555478e-003
3.201308e+003,1.458870e-003
3.203236e+003,1.392933e-003
3.205165e+003,1.369277e-003
3.207093e+003,1.403008e-003
3.209021e+003,1.357781e-003
3.210950e+003,1.256960e-003
3.212878e+003,1.164140e-003
3.214807e+003,1.086816e-003
3.216736e+003,9.382647e-004
3.218664e+003,8.457415e-004
3.220593e+003,8.640457e-004
3.222521e+003,8.758549e-004
3.224449e+003,7.828958e-004
3.226378e+003,6.429628e-004
3.228307e+003,5.183201e-004
3.230235e+003,5.376488e-004
3.232164e+003,5.378257e-004
3.234092e+003,4.379526e-004
3.236021e+003,3.579147e-004
3.237949e+003,3.755372e-004
3.239877e+003,4.030019e-004
3.241806e+003,3.651679e-004
3.243735e+003,3.726427e-004
3.245663e+003,4.225615e-004
3.247592e+003,4.226305e-004
3.249520e+003,3.341101e-004
3.251448e+003,2.809800e-004
3.253377e+003,3.621802e-004
3.255305e+003,4.178062e-004
3.257234e+003,4.396848e-004
3.259163e+003,4.236996e-004
3.261091e+003,4.773587e-004
3.263020e+003,6.067362e-004
3.264948e+003,7.112939e-004
3.266876e+003,7.104911e-004
3.268805e+003,6.584506e-004
3.270733e+003,7.101875e-004
3.272662e+003,7.570181e-004
3.274591e+003,7.108562e-004
3.276519e+003,7.009674e-004
3.278448e+003,7.145982e-004
3.280376e+003,7.520095e-004
3.282304e+003,7.278398e-004
3.284233e+003,7.079598e-004
3.286161e+003,7.037725e-004
3.288090e+003,8.207094e-004
3.290019e+003,8.401945e-004
3.291947e+003,7.683747e-004
3.293875e+003,7.899497e-004
3.295804e+003,8.181017e-004
3.297732e+003,7.413495e-004
3.299661e+003,7.397961e-004
3.301589e+003,7.456932e-004
3.303518e+003,8.139517e-004
3.305447e+003,8.312520e-004
3.307375e+003,8.212551e-004
3.309303e+003,8.351132e-004
3.311232e+003,8.227527e-004
3.313160e+003,7.661507e-004
3.315089e+003,6.549526e-004
3.317018e+003,6.506089e-004
3.318946e+003,7.497333e-004
3.320875e+003,6.538760e-004
3.322803e+003,7.046107e-004
3.324731e+003,9.316895e-004
3.326660e+003,9.899344e-004
3.328588e+003,9.786729e-004
3.330517e+003,1.002198e-003
3.332446e+003,9.653065e-004
3.334374e+003,9.709653e-004
3.336302e+003,1.068970e-003
3.338231e+003,1.073787e-003
3.340159e+003,1.034353e-003
3.342088e+003,1.149228e-003
3.344016e+003,1.179341e-003
3.345945e+003,1.248969e-003
3.347874e+003,1.191903e-003
3.349802e+003,1.070285e-003
3.351730e+003,1.066158e-003
3.353659e+003,1.156883e-003
3.355587e+003,1.094641e-003
3.357516e+003,1.028929e-003
3.359444e+003,9.828415e-004
3.361373e+003,1.003897e-003
3.363302e+003,1.058647e-003
3.365230e+003,1.130817e-003
3.367158e+003,9.923670e-004
3.369087e+003,8.511599e-004
3.371015e+003,8.176249e-004
3.372944e+003,8.888766e-004
3.374872e+003,9.327978e-004
3.376801e+003,9.151716e-004
3.378729e+003,8.832868e-004
3.380658e+003,8.603614e-004
3.382586e+003,8.675084e-004
3.384515e+003,9.401478e-004
3.386443e+003,9.322725e-004
3.388372e+003,9.185541e-004
3.390300e+003,9.131581e-004
3.392229e+003,8.472595e-004
3.394157e+003,8.252189e-004
3.396086e+003,8.757245e-004
3.398014e+003,9.603109e-004
3.399943e+003,9.885989e-004
3.401871e+003,9.806715e-004
3.403800e+003,9.667650e-004
3.405728e+003,9.869356e-004
3.407657e+003,1.036303e-003
3.409585e+003,1.013881e-003
3.411514e+003,9.786636e-004
3.413442e+003,9.984039e-004
3.415371e+003,1.009295e-003
3.417299e+003,1.053037e-003
3.419228e+003,1.031803e-003
3.421156e+003,9.336062e-004
3.423085e+003,9.031575e-004
3.425013e+003,9.094961e-004
3.426942e+003,9.014010e-004
3.428870e+003,8.048657e-004
3.430799e+003,7.710196e-004
3.432727e+003,8.057449e-004
3.434656e+003,8.068159e-004
3.436584e+003,8.303579e-004
3.438513e+003,8.258689e-004
3.440441e+003,7.795002e-004
3.442370e+003,8.400697e-004
3.444298e+003,8.280147e-004
3.446227e+003,8.754265e-004
3.448155e+003,8.553490e-004
3.450084e+003,6.785933e-004
3.452012e+003,6.546509e-004
3.453941e+003,7.673632e-004
3.455869e+003,7.334147e-004
3.457798e+003,6.086342e-004
3.459726e+003,6.806720e-004
3.461655e+003,7.784627e-004
3.463583e+003,6.641019e-004
3.465512e+003,6.744880e-004
3.467440e+003,7.276591e-004
3.469369e+003,7.053353e-004
3.471297e+003,6.754920e-004
3.473226e+003,6.918591e-004
3.475154e+003,7.171407e-004
3.477083e+003,6.279387e-004
3.479011e+003,6.617662e-004
3.480940e+003,7.363372e-004
3.482868e+003,5.997848e-004
3.484797e+003,6.393939e-004
3.486725e+003,7.222909e-004
3.488654e+003,5.765595e-004
3.490582e+003,4.245583e-004
3.492511e+003,4.807282e-004
3.494439e+003,5.384907e-004
3.496368e+003,5.323235e-004
3.498296e+003,4.894752e-004
3.500225e+003,4.444513e-004
3.502153e+003,5.658083e-004
3.504082e+003,5.119089e-004
3.506010e+003,3.230125e-004
3.507939e+003,4.239064e-004
3.509867e+003,4.961696e-004
3.511796e+003,4.615095e-004
3.513724e+003,3.633313e-004
3.515653e+003,2.870876e-004
3.517581e+003,4.544854e-004
3.519510e+003,5.010813e-004
3.521438e+003,4.145633e-004
3.523367e+003,3.725886e-004
3.525295e+003,2.698656e-004
3.527224e+003,1.758225e-004
3.529152e+003,2.840348e-005
3.531081e+003,-8.371472e-005
3.533009e+003,-1.208857e-006
3.534938e+003,1.635756e-004
3.536866e+003,1.957733e-004
3.538795e+003,1.806580e-004
3.540723e+003,2.446286e-004
3.542652e+003,1.917910e-004
3.544580e+003,2.352875e-004
3.546509e+003,9.071641e-005
3.548437e+003,-1.667459e-004
3.550366e+003,-1.394227e-004
3.552294e+003,-8.786097e-006
3.554223e+003,-1.021884e-004
3.556151e+003,-2.462491e-004
3.558080e+003,-2.391916e-004
3.560008e+003,-1.337770e-004
3.561937e+003,-5.164929e-005
3.563865e+003,6.864220e-005
3.565794e+003,1.085568e-004
3.567722e+003,-4.199333e-004
3.569651e+003,-9.071082e-004
3.571579e+003,-8.476079e-004
3.573508e+003,-6.300192e-004
3.575436e+003,-5.322453e-004
3.577365e+003,-5.507674e-004
3.579293e+003,-4.718937e-004
3.581222e+003,-5.048886e-004
3.583150e+003,-5.808845e-004
3.585079e+003,-4.542153e-004
3.587007e+003,-1.841933e-004
3.588936e+003,-4.563965e-004
3.590864e+003,-6.160084e-004
3.592793e+003,-4.754234e-004
3.594721e+003,-3.882013e-004
3.596650e+003,-5.022585e-004
3.598578e+003,-5.250387e-004
3.600507e+003,-4.969053e-004
3.602435e+003,-4.863422e-004
3.604364e+003,-3.128238e-004
3.606292e+003,-6.850250e-005
3.608221e+003,-1.578797e-004
3.610149e+003,-5.701203e-004
3.612078e+003,-5.190708e-004
3.614006e+003,-3.588833e-004
3.615935e+003,-3.818516e-004
3.617863e+003,-3.479347e-004
3.619792e+003,-6.539412e-004
3.621720e+003,-7.598139e-004
3.623649e+003,-4.249364e-004
3.625577e+003,1.017936e-005
3.627506e+003,3.042910e-004
3.629434e+003,-9.858236e-005
3.631363e+003,-6.097946e-004
3.633291e+003,-7.262900e-004
3.635220e+003,-5.879849e-004
3.637148e+003,-3.610551e-004
3.639077e+003,-1.886617e-004
3.641005e+003,-1.386367e-005
3.642934e+003,1.254138e-004
3.644862e+003,5.380698e-004
3.646791e+003,1.047183e-003
3.648719e+003,6.520469e-004
3.650648e+003,-2.208576e-004
3.652576e+003,-7.281248e-004
3.654505e+003,-6.397106e-004
3.656433e+003,-3.945213e-004
3.658362e+003,-3.996193e-004
3.660290e+003,-2.817810e-004
3.662219e+003,-1.340732e-004
3.664147e+003,4.590489e-005
3.666076e+003,2.288073e-004
3.668004e+003,7.224083e-004
3.669933e+003,5.930178e-004
3.671861e+003,6.686151e-005
3.673790e+003,2.013650e-004
3.675718e+003,-1.482069e-004
3.677647e+003,-3.469139e-004
3.679575e+003,-1.255460e-004
3.681504e+003,8.453615e-005
3.683432e+003,3.955569e-004
3.685361e+003,5.855728e-004
3.687289e+003,9.668972e-004
3.689218e+003,7.289294e-004
3.691146e+003,5.170144e-005
3.693075e+003,-1.561306e-004
3.695003e+003,1.980122e-004
3.696932e+003,5.177073e-004
3.698860e+003,5.362686e-004
3.700789e+003,7.190332e-004
3.702717e+003,6.428361e-004
3.704646e+003,5.795471e-004
3.706574e+003,7.913578e-004
3.708503e+003,9.590182e-004
3.710431e+003,9.560753e-004
3.712360e+003,6.224364e-004
3.714288e+003,4.383791e-004
3.716217e+003,5.515330e-004
3.718145e+003,7.564388e-004
3.720074e+003,1.073353e-003
3.722002e+003,1.200724e-003
3.723931e+003,1.120379e-003
3.725859e+003,1.148384e-003
3.727788e+003,1.115570e-003
3.729716e+003,1.285104e-003
3.731645e+003,1.444880e-003
3.733573e+003,1.431666e-003
3.735502e+003,1.076389e-003
3.737430e+003,7.187966e-004
3.739359e+003,1.019642e-003
3.741287e+003,1.608197e-003
3.743216e+003,2.121275e-003
3.745144e+003,1.969453e-003
3.747073e+003,1.592601e-003
3.749001e+003,1.593914e-003
3.750930e+003,1.235021e-003
3.752858e+003,1.045922e-003
3.754787e+003,1.269687e-003
3.756715e+003,1.591163e-003
3.758644e+003,1.699222e-003
3.760572e+003,1.650585e-003
3.762501e+003,1.716891e-003
3.764429e+003,1.837878e-003
3.766358e+003,1.631023e-003
3.768286e+003,1.537742e-003
3.770215e+003,1.479466e-003
3.772143e+003,1.542015e-003
3.774072e+003,1.638230e-003
3.776000e+003,1.652634e-003
3.777929e+003,1.768636e-003
3.779857e+003,1.643097e-003
3.781786e+003,1.462322e-003
3.783714e+003,1.456866e-003
3.785643e+003,1.346946e-003
3.787571e+003,1.289293e-003
3.789500e+003,1.457693e-003
3.791428e+003,1.601592e-003
3.793357e+003,1.626624e-003
3.795285e+003,2.011510e-003
3.797214e+003,2.056764e-003
3.799142e+003,1.982069e-003
3.801071e+003,1.947826e-003
3.802999e+003,1.099166e-003
3.804927e+003,1.014657e-003
3.806856e+003,1.184393e-003
3.808785e+003,1.395043e-003
3.810713e+003,1.715463e-003
3.812642e+003,1.910832e-003
3.814570e+003,2.336083e-003
3.816499e+003,2.099747e-003
3.818427e+003,1.795948e-003
3.820355e+003,1.876630e-003
3.822284e+003,1.273701e-003
3.824213e+003,1.206085e-003
3.826141e+003,1.453167e-003
3.828070e+003,1.639443e-003
3.829998e+003,1.958257e-003
3.831927e+003,2.342636e-003
3.833855e+003,2.168968e-003
3.835783e+003,1.994103e-003
3.837712e+003,2.018498e-003
3.839641e+003,1.845200e-003
3.841569e+003,1.502872e-003
3.843498e+003,1.528852e-003
3.845426e+003,1.709236e-003
3.847354e+003,2.130780e-003
3.849283e+003,2.459167e-003
3.851211e+003,2.702920e-003
3.853140e+003,2.136894e-003
3.855069e+003,1.205845e-003
3.856997e+003,1.306668e-003
3.858926e+003,1.605211e-003
3.860854e+003,1.956863e-003
3.862782e+003,2.258619e-003
3.864711e+003,2.153605e-003
3.866640e+003,1.834776e-003
3.868568e+003,2.054635e-003
3.870497e+003,1.903392e-003
3.872425e+003,1.684068e-003
3.874354e+003,1.857216e-003
3.876282e+003,1.821663e-003
3.878210e+003,1.988383e-003
3.880139e+003,2.196269e-003
3.882068e+003,2.020238e-003
3.883996e+003,1.983099e-003
3.885925e+003,1.938839e-003
3.887853e+003,1.833923e-003
3.889781e+003,1.998894e-003
3.891710e+003,2.052013e-003
3.893638e+003,1.969181e-003
3.895567e+003,2.031131e-003
3.897496e+003,2.338205e-003
3.899424e+003,2.342099e-003
3.901353e+003,2.018528e-003
3.903281e+003,1.759622e-003
3.905209e+003,1.353607e-003
3.907138e+003,1.343949e-003
3.909066e+003,1.655402e-003
3.910995e+003,1.946496e-003
3.912924e+003,2.061890e-003
3.914852e+003,2.197484e-003
3.916781e+003,2.261827e-003
3.918709e+003,2.139485e-003
3.920637e+003,2.037000e-003
3.922566e+003,1.982996e-003
3.924494e+003,2.004035e-003
3.926423e+003,1.958963e-003
3.928352e+003,2.024807e-003
3.930280e+003,2.101189e-003
3.932208e+003,2.051575e-003
3.934137e+003,1.864895e-003
3.936065e+003,2.042776e-003
3.937994e+003,2.151201e-003
3.939922e+003,2.077427e-003
3.941851e+003,2.161087e-003
3.943780e+003,1.948552e-003
3.945708e+003,1.797739e-003
3.947636e+003,1.858316e-003
3.949565e+003,1.863644e-003
3.951493e+003,1.747759e-003
3.953422e+003,1.760492e-003
3.955351e+003,1.971982e-003
3.957279e+003,2.083661e-003
3.959208e+003,2.108194e-003
3.961136e+003,2.120312e-003
3.963064e+003,1.933692e-003
3.964993e+003,1.826113e-003
3.966921e+003,1.865810e-003
3.968850e+003,1.991529e-003
3.970779e+003,2.073551e-003
3.972707e+003,2.066493e-003
3.974635e+003,2.101272e-003
3.976564e+003,2.082802e-003
3.978492e+003,2.031278e-003
3.980421e+003,2.124388e-003
3.982349e+003,2.205621e-003
3.984278e+003,2.256939e-003
3.986207e+003,2.257859e-003
3.988135e+003,2.180826e-003
3.990063e+003,2.320413e-003
3.991992e+003,2.469033e-003
3.993920e+003,2.439968e-003
3.995849e+003,2.399003e-003
3.997777e+003,2.386332e-003
3.999706e+003,2.305597e-003
4.001635e+003,0.000000e+000
