3.991992e+002,0.000000e+000
4.011277e+002,0.000000e+000
4.030562e+002,0.000000e+000
4.049846e+002,0.000000e+000
4.069131e+002,0.000000e+000
4.088416e+002,0.000000e+000
4.107701e+002,0.000000e+000
4.126986e+002,0.000000e+000
4.146271e+002,0.000000e+000
4.165556e+002,0.000000e+000
4.184841e+002,0.000000e+000
4.204126e+002,0.000000e+000
4.223411e+002,0.000000e+000
4.242697e+002,0.000000e+000
4.261982e+002,0.000000e+000
4.281266e+002,0.000000e+000
4.300551e+002,0.000000e+000
4.319836e+002,0.000000e+000
4.339121e+002,0.000000e+000
4.358406e+002,0.000000e+000
4.377691e+002,0.000000e+000
4.396976e+002,0.000000e+000
4.416261e+002,0.000000e+000
4.435546e+002,0.000000e+000
4.454831e+002,0.000000e+000
4.474116e+002,0.000000e+000
4.493401e+002,0.000000e+000
4.512686e+002,0.000000e+000
4.531971e+002,0.000000e+000
4.551256e+002,0.000000e+000
4.570541e+002,0.000000e+000
4.589826e+002,0.000000e+000
4.609111e+002,0.000000e+000
4.628396e+002,0.000000e+000
4.647681e+002,0.000000e+000
4.666966e+002,0.000000e+000
4.686251e+002,0.000000e+000
4.705536e+002,0.000000e+000
4.724821e+002,0.000000e+000
4.744106e+002,0.000000e+000
4.763391e+002,0.000000e+000
4.782676e+002,0.000000e+000
4.801961e+002,0.000000e+000
4.821246e+002,0.000000e+000
4.840531e+002,0.000000e+000
4.859816e+002,0.000000e+000
4.879101e+002,0.000000e+000
4.898386e+002,0.000000e+000
4.917671e+002,0.000000e+000
4.936956e+002,0.000000e+000
4.956241e+002,0.000000e+000
4.975526e+002,0.000000e+000
4.994811e+002,0.000000e+000
5.014096e+002,0.000000e+000
5.033381e+002,0.000000e+000
5.052666e+002,0.000000e+000
5.071951e+002,0.000000e+000
5.091236e+002,0.000000e+000
5.110521e+002,0.000000e+000
5.129806e+002,0.000000e+000
5.149091e+002,0.000000e+000
5.168376e+002,0.000000e+000
5.187661e+002,0.000000e+000
5.206946e+002,0.000000e+000
5.226230e+002,0.000000e+000
5.245516e+002,-6.934628e-006
5.264800e+002,3.252104e-004
5.284086e+002,2.006311e-004
5.303370e+002,-5.256385e-006
5.322656e+002,-1.935214e-004
5.341940e+002,-1.819581e-004
5.361226e+002,-1.949500e-004
5.380510e+002,-2.669953e-004
5.399796e+002,-4.302040e-004
5.419081e+002,-4.239120e-004
5.438365e+002,-3.479272e-004
5.457650e+002,-3.671814e-004
5.476935e+002,-4.968122e-004
5.496221e+002,-4.617162e-004
5.515505e+002,-3.220011e-004
5.534790e+002,-1.630895e-004
5.554075e+002,-1.808833e-004
5.573361e+002,-3.023483e-004
5.592645e+002,-4.398357e-004
5.611931e+002,-5.198009e-004
5.631215e+002,-5.693026e-004
5.650500e+002,-5.694237e-004
5.669785e+002,-5.738530e-004
5.689070e+002,-4.647728e-004
5.708355e+002,-4.468281e-004
5.727640e+002,-3.534611e-004
5.746925e+002,-3.085881e-004
5.766210e+002,-2.864301e-004
5.785495e+002,-3.821906e-004
5.804780e+002,-4.800819e-004
5.824065e+002,-5.736556e-004
5.843350e+002,-4.997626e-004
5.862635e+002,-3.952906e-004
5.881920e+002,-3.964081e-004
5.901205e+002,-5.114209e-004
5.920490e+002,-4.064627e-004
5.939775e+002,-2.981517e-004
5.959060e+002,-2.779476e-004
5.978345e+002,-3.395192e-004
5.997630e+002,-3.539417e-004
6.016915e+002,-2.410468e-004
6.036200e+002,-3.806688e-005
6.055485e+002,-4.686974e-005
6.074770e+002,-1.061726e-004
6.094055e+002,-2.354216e-004
6.113340e+002,-2.444834e-004
6.132625e+002,-2.796464e-004
6.151910e+002,-2.699494e-004
6.171195e+002,-3.175270e-004
6.190480e+002,-2.931077e-004
6.209765e+002,-2.969541e-004
6.229050e+002,-2.442971e-004
6.248335e+002,-1.421012e-004
6.267620e+002,-5.110353e-005
6.286905e+002,-6.804615e-005
6.306190e+002,-1.154393e-004
6.325475e+002,-1.818016e-004
6.344760e+002,-1.079589e-004
6.364045e+002,4.750490e-005
6.383330e+002,1.334921e-004
6.402615e+002,4.351884e-005
6.421899e+002,3.516302e-005
6.441185e+002,6.348267e-005
6.460470e+002,1.475960e-005
6.479755e+002,-4.285946e-005
6.499039e+002,-5.240738e-005
6.518325e+002,-7.439405e-005
6.537610e+002,8.182600e-005
6.556895e+002,4.518405e-005
6.576179e+002,3.499910e-005
6.595464e+002,3.800914e-005
6.614750e+002,-1.203492e-004
6.634034e+002,-1.629330e-004
6.653319e+002,-7.010624e-005
6.672604e+002,-7.718801e-005
6.691890e+002,-5.435571e-005
6.711174e+002,-7.322803e-005
6.730460e+002,3.404915e-006
6.749745e+002,-3.892928e-006
6.769030e+002,-5.844608e-005
6.788314e+002,-1.309402e-004
6.807599e+002,-8.431077e-005
6.826885e+002,-6.994605e-005
6.846169e+002,5.744770e-005
6.865454e+002,8.343533e-005
6.884739e+002,5.607679e-005
6.904025e+002,4.733354e-005
6.923309e+002,3.008917e-005
6.942594e+002,-1.054257e-006
6.961879e+002,8.351356e-005
6.981165e+002,1.146905e-004
7.000449e+002,1.254044e-004
7.019734e+002,1.870506e-004
7.039019e+002,2.883747e-004
7.058304e+002,2.032667e-004
7.077589e+002,1.733936e-004
7.096874e+002,1.470037e-004
7.116159e+002,1.592524e-004
7.135444e+002,2.427250e-004
7.154729e+002,2.823398e-004
7.174014e+002,2.685562e-004
7.193299e+002,3.005564e-004
7.212584e+002,2.650917e-004
7.231869e+002,2.319627e-004
7.251154e+002,1.859814e-004
7.270439e+002,2.533346e-004
7.289724e+002,3.206842e-004
7.309009e+002,4.273951e-004
7.328294e+002,4.649833e-004
7.347579e+002,4.162751e-004
7.366864e+002,3.536493e-004
7.386149e+002,4.107282e-004
7.405434e+002,4.735626e-004
7.424719e+002,4.932508e-004
7.444004e+002,4.083961e-004
7.463289e+002,4.315786e-004
7.482574e+002,5.231313e-004
7.501859e+002,5.474351e-004
7.521144e+002,5.002543e-004
7.540428e+002,5.495399e-004
7.559714e+002,5.015582e-004
7.578999e+002,5.106814e-004
7.598284e+002,5.725287e-004
7.617568e+002,7.054582e-004
7.636854e+002,6.862581e-004
7.656139e+002,7.020496e-004
7.675424e+002,7.351041e-004
7.694709e+002,8.000657e-004
7.713994e+002,8.253716e-004
7.733279e+002,8.020699e-004
7.752563e+002,7.853508e-004
7.771849e+002,8.610897e-004
7.791134e+002,9.009205e-004
7.810419e+002,1.006197e-003
7.829703e+002,1.139089e-003
7.848989e+002,1.310848e-003
7.868274e+002,1.528066e-003
7.887559e+002,1.716811e-003
7.906843e+002,1.832254e-003
7.926129e+002,2.119537e-003
7.945414e+002,2.386328e-003
7.964698e+002,2.638418e-003
7.983983e+002,2.927504e-003
8.003268e+002,3.365990e-003
8.022554e+002,3.959339e-003
8.041838e+002,5.173240e-003
8.061123e+002,6.951258e-003
8.080408e+002,8.363757e-003
8.099694e+002,8.180790e-003
8.118978e+002,6.595735e-003
8.138263e+002,4.751313e-003
8.157548e+002,3.645003e-003
8.176833e+002,3.141493e-003
8.196118e+002,2.931777e-003
8.215403e+002,2.854165e-003
8.234689e+002,2.885792e-003
8.253973e+002,2.953500e-003
8.273258e+002,3.272738e-003
8.292543e+002,3.666520e-003
8.311829e+002,4.196577e-003
8.331113e+002,4.797023e-003
8.350398e+002,6.017592e-003
8.369683e+002,9.220738e-003
8.388969e+002,1.617377e-002
8.408253e+002,2.023957e-002
8.427538e+002,1.464593e-002
8.446823e+002,7.914230e-003
8.466108e+002,5.015992e-003
8.485393e+002,3.900658e-003
8.504678e+002,3.324460e-003
8.523963e+002,2.889462e-003
8.543248e+002,2.696749e-003
8.562533e+002,2.587214e-003
8.581818e+002,2.531901e-003
8.601103e+002,2.383303e-003
8.620388e+002,2.258301e-003
8.639673e+002,2.212681e-003
8.658958e+002,2.176490e-003
8.678243e+002,2.051987e-003
8.697528e+002,2.041943e-003
8.716813e+002,2.098296e-003
8.736098e+002,2.139065e-003
8.755383e+002,2.065964e-003
8.774668e+002,2.030857e-003
8.793953e+002,2.005272e-003
8.813238e+002,2.067614e-003
8.832523e+002,2.136242e-003
8.851808e+002,2.268806e-003
8.871093e+002,2.387285e-003
8.890378e+002,2.611648e-003
8.909663e+002,2.956320e-003
8.928948e+002,3.625203e-003
8.948232e+002,4.823804e-003
8.967518e+002,6.616566e-003
8.986803e+002,7.839248e-003
9.006088e+002,7.195119e-003
9.025372e+002,5.252153e-003
9.044658e+002,3.624890e-003
9.063943e+002,2.712298e-003
9.083228e+002,2.395902e-003
9.102512e+002,2.221629e-003
9.121797e+002,2.118856e-003
9.141083e+002,2.056863e-003
9.160367e+002,2.047267e-003
9.179653e+002,2.006296e-003
9.198937e+002,2.026509e-003
9.218223e+002,2.024032e-003
9.237507e+002,2.095308e-003
9.256793e+002,2.080455e-003
9.276077e+002,2.126072e-003
9.295363e+002,2.171952e-003
9.314647e+002,2.346970e-003
9.333932e+002,2.533462e-003
9.353217e+002,2.796765e-003
9.372502e+002,3.317062e-003
9.391787e+002,3.903061e-003
9.411072e+002,3.966298e-003
9.430358e+002,3.630850e-003
9.449642e+002,3.284432e-003
9.468928e+002,3.198225e-003
9.488212e+002,3.188636e-003
9.507498e+002,3.370337e-003
9.526782e+002,3.572490e-003
9.546068e+002,3.783520e-003
9.565352e+002,4.036985e-003
9.584637e+002,4.495457e-003
9.603922e+002,5.112924e-003
9.623207e+002,5.949173e-003
9.642492e+002,7.160138e-003
9.661777e+002,9.372797e-003
9.681062e+002,1.360976e-002
9.700347e+002,2.047648e-002
9.719632e+002,2.567023e-002
9.738917e+002,2.391355e-002
9.758202e+002,1.781362e-002
9.777487e+002,1.225384e-002
9.796772e+002,8.550912e-003
9.816057e+002,6.518383e-003
9.835342e+002,5.556464e-003
9.854627e+002,5.391072e-003
9.873912e+002,5.789969e-003
9.893197e+002,6.822895e-003
9.912482e+002,8.821677e-003
9.931767e+002,1.263037e-002
9.951052e+002,1.828733e-002
9.970337e+002,2.248703e-002
9.989622e+002,2.042372e-002
1.000891e+003,1.421356e-002
1.002819e+003,9.150609e-003
1.004748e+003,6.480675e-003
1.006676e+003,5.120572e-003
1.008605e+003,4.375085e-003
1.010533e+003,3.852431e-003
1.012462e+003,3.537990e-003
1.014390e+003,3.325537e-003
1.016319e+003,3.220826e-003
1.018247e+003,3.134858e-003
1.020176e+003,3.087297e-003
1.022104e+003,3.025468e-003
1.024033e+003,3.017023e-003
1.025961e+003,2.978902e-003
1.027890e+003,3.021128e-003
1.029818e+003,3.104094e-003
1.031747e+003,3.231723e-003
1.033675e+003,3.338415e-003
1.035604e+003,3.468167e-003
1.037532e+003,3.543954e-003
1.039461e+003,3.746111e-003
1.041389e+003,4.078601e-003
1.043318e+003,4.549675e-003
1.045246e+003,4.593257e-003
1.047175e+003,4.206356e-003
1.049103e+003,3.728136e-003
1.051032e+003,3.408283e-003
1.052960e+003,3.251955e-003
1.054889e+003,3.193874e-003
1.056817e+003,3.129058e-003
1.058746e+003,3.147509e-003
1.060674e+003,3.135145e-003
1.062603e+003,3.187083e-003
1.064531e+003,3.194615e-003
1.066460e+003,3.212828e-003
1.068388e+003,3.193602e-003
1.070317e+003,3.212396e-003
1.072245e+003,3.180701e-003
1.074174e+003,3.230620e-003
1.076102e+003,3.331125e-003
1.078031e+003,3.457967e-003
1.079959e+003,3.480315e-003
1.081888e+003,3.560197e-003
1.083816e+003,3.621459e-003
1.085745e+003,3.678728e-003
1.087673e+003,3.755309e-003
1.089602e+003,3.880441e-003
1.091530e+003,4.008420e-003
1.093459e+003,4.244480e-003
1.095387e+003,4.512120e-003
1.097316e+003,4.997030e-003
1.099244e+003,5.645413e-003
1.101173e+003,6.257918e-003
1.103101e+003,6.309003e-003
1.105030e+003,5.813271e-003
1.106958e+003,5.102329e-003
1.108887e+003,4.601158e-003
1.110815e+003,4.301857e-003
1.112744e+003,4.153654e-003
1.114672e+003,3.988657e-003
1.116601e+003,3.959998e-003
1.118529e+003,3.915694e-003
1.120458e+003,3.884111e-003
1.122386e+003,3.843945e-003
1.124315e+003,3.881834e-003
1.126243e+003,3.915027e-003
1.128172e+003,3.982399e-003
1.130100e+003,4.045539e-003
1.132029e+003,4.214250e-003
1.133957e+003,4.399139e-003
1.135885e+003,4.755646e-003
1.137814e+003,5.193036e-003
1.139743e+003,5.726755e-003
1.141671e+003,6.354049e-003
1.143600e+003,7.216927e-003
1.145528e+003,8.238401e-003
1.147457e+003,9.555787e-003
1.149385e+003,1.101310e-002
1.151314e+003,1.233244e-002
1.153242e+003,1.305610e-002
1.155171e+003,1.352718e-002
1.157099e+003,1.417476e-002
1.159028e+003,1.528873e-002
1.160956e+003,1.691118e-002
1.162885e+003,1.938730e-002
1.164813e+003,2.238880e-002
1.166742e+003,2.429736e-002
1.168670e+003,2.247839e-002
1.170599e+003,1.739611e-002
1.172527e+003,1.212996e-002
1.174456e+003,8.594356e-003
1.176384e+003,6.533656e-003
1.178313e+003,5.360235e-003
1.180241e+003,4.668444e-003
1.182170e+003,4.353862e-003
1.184098e+003,4.169069e-003
1.186027e+003,4.115485e-003
1.187955e+003,4.126396e-003
1.189884e+003,4.217997e-003
1.191812e+003,4.287008e-003
1.193740e+003,4.419371e-003
1.195669e+003,4.476506e-003
1.197598e+003,4.583221e-003
1.199526e+003,4.720356e-003
1.201455e+003,4.886694e-003
1.203383e+003,5.009372e-003
1.205312e+003,5.269416e-003
1.207240e+003,5.509321e-003
1.209168e+003,5.775627e-003
1.211097e+003,5.986597e-003
1.213026e+003,6.297145e-003
1.214954e+003,6.674159e-003
1.216883e+003,7.110592e-003
1.218811e+003,7.304154e-003
1.220740e+003,7.236313e-003
1.222668e+003,6.919239e-003
1.224596e+003,6.668463e-003
1.226525e+003,6.475631e-003
1.228453e+003,6.473809e-003
1.230382e+003,6.466739e-003
1.232311e+003,6.479122e-003
1.234239e+003,6.440755e-003
1.236167e+003,6.520931e-003
1.238096e+003,6.565530e-003
1.240025e+003,6.642744e-003
1.241953e+003,6.690525e-003
1.243882e+003,6.797664e-003
1.245810e+003,6.856892e-003
1.247739e+003,7.031702e-003
1.249667e+003,7.353257e-003
1.251595e+003,8.139849e-003
1.253524e+003,9.243969e-003
1.255453e+003,9.656999e-003
1.257381e+003,8.558966e-003
1.259310e+003,7.165093e-003
1.261238e+003,6.232329e-003
1.263167e+003,5.739659e-003
1.265095e+003,5.362976e-003
1.267023e+003,5.189989e-003
1.268952e+003,5.043849e-003
1.270880e+003,5.002744e-003
1.272809e+003,4.957531e-003
1.274738e+003,4.994087e-003
1.276666e+003,5.017500e-003
1.278594e+003,5.170185e-003
1.280523e+003,5.269714e-003
1.282451e+003,5.439654e-003
1.284380e+003,5.605869e-003
1.286308e+003,5.861312e-003
1.288237e+003,6.160207e-003
1.290166e+003,6.636433e-003
1.292094e+003,7.194765e-003
1.294022e+003,7.851709e-003
1.295951e+003,8.184396e-003
1.297879e+003,8.237202e-003
1.299808e+003,8.370809e-003
1.301736e+003,9.371188e-003
1.303665e+003,1.050080e-002
1.305594e+003,9.879634e-003
1.307522e+003,7.777177e-003
1.309450e+003,6.459244e-003
1.311379e+003,5.962532e-003
1.313307e+003,5.954370e-003
1.315236e+003,5.994655e-003
1.317164e+003,6.250370e-003
1.319093e+003,6.484244e-003
1.321021e+003,6.931283e-003
1.322950e+003,7.455472e-003
1.324878e+003,8.267738e-003
1.326807e+003,8.826904e-003
1.328735e+003,9.192634e-003
1.330664e+003,8.976080e-003
1.332592e+003,8.555308e-003
1.334521e+003,8.100010e-003
1.336449e+003,8.051608e-003
1.338378e+003,8.106887e-003
1.340306e+003,8.575317e-003
1.342235e+003,8.926861e-003
1.344163e+003,9.649463e-003
1.346092e+003,1.053062e-002
1.348021e+003,1.197921e-002
1.349949e+003,1.381109e-002
1.351877e+003,1.665644e-002
1.353806e+003,2.065919e-002
1.355734e+003,2.635861e-002
1.357663e+003,3.041711e-002
1.359591e+003,3.061485e-002
1.361520e+003,2.730044e-002
1.363448e+003,2.473925e-002
1.365377e+003,2.473354e-002
1.367305e+003,2.935242e-002
1.369234e+003,4.176466e-002
1.371162e+003,6.415080e-002
1.373091e+003,9.589778e-002
1.375019e+003,1.234205e-001
1.376948e+003,1.091838e-001
1.378876e+003,7.376292e-002
1.380805e+003,4.499200e-002
1.382733e+003,2.708238e-002
1.384662e+003,1.684882e-002
1.386590e+003,1.142915e-002
1.388519e+003,8.756459e-003
1.390447e+003,7.402144e-003
1.392376e+003,6.864652e-003
1.394304e+003,6.533131e-003
1.396233e+003,6.454580e-003
1.398161e+003,6.160714e-003
1.400090e+003,6.164029e-003
1.402018e+003,5.979002e-003
1.403947e+003,6.112359e-003
1.405875e+003,6.260566e-003
1.407804e+003,6.394371e-003
1.409732e+003,6.487325e-003
1.411661e+003,6.713539e-003
1.413589e+003,6.840363e-003
1.415518e+003,7.075064e-003
1.417446e+003,7.308416e-003
1.419375e+003,8.018158e-003
1.421303e+003,8.387141e-003
1.423232e+003,8.894846e-003
1.425160e+003,9.848200e-003
1.427089e+003,1.086526e-002
1.429017e+003,1.283228e-002
1.430946e+003,1.707930e-002
1.432874e+003,2.309473e-002
1.434803e+003,2.793433e-002
1.436731e+003,2.891285e-002
1.438660e+003,2.850562e-002
1.440588e+003,3.068660e-002
1.442517e+003,3.620386e-002
1.444445e+003,4.517948e-002
1.446374e+003,5.616737e-002
1.448302e+003,6.815922e-002
1.450231e+003,7.352517e-002
1.452159e+003,7.500648e-002
1.454088e+003,7.475284e-002
1.456016e+003,7.462926e-002
1.457945e+003,7.202593e-002
1.459873e+003,6.905660e-002
1.461802e+003,6.490703e-002
1.463730e+003,5.884475e-002
1.465659e+003,4.715942e-002
1.467587e+003,3.747191e-002
1.469516e+003,2.944030e-002
1.471444e+003,2.264858e-002
1.473373e+003,1.508605e-002
1.475301e+003,1.160129e-002
1.477230e+003,8.994207e-003
1.479158e+003,7.464290e-003
1.481087e+003,6.291874e-003
1.483015e+003,5.428821e-003
1.484944e+003,4.706204e-003
1.486872e+003,4.309259e-003
1.488801e+003,4.130930e-003
1.490729e+003,4.034474e-003
1.492658e+003,3.582411e-003
1.494586e+003,3.345534e-003
1.496515e+003,3.339015e-003
1.498443e+003,3.318526e-003
1.500372e+003,3.123716e-003
1.502300e+003,2.925716e-003
1.504229e+003,2.643026e-003
1.506157e+003,3.059812e-003
1.508086e+003,3.655605e-003
1.510014e+003,3.158458e-003
1.511943e+003,2.939425e-003
1.513871e+003,2.833426e-003
1.515800e+003,2.884373e-003
1.517728e+003,3.065012e-003
1.519657e+003,2.902336e-003
1.521585e+003,3.104724e-003
1.523514e+003,2.908669e-003
1.525442e+003,2.809606e-003
1.527371e+003,2.854228e-003
1.529299e+003,2.819076e-003
1.531228e+003,2.720311e-003
1.533156e+003,2.991758e-003
1.535085e+003,3.026195e-003
1.537013e+003,2.806790e-003
1.538942e+003,3.146566e-003
1.540870e+003,3.609262e-003
1.542799e+003,3.139295e-003
1.544727e+003,3.133409e-003
1.546656e+003,2.939314e-003
1.548584e+003,2.873681e-003
1.550513e+003,3.045656e-003
1.552441e+003,3.000610e-003
1.554370e+003,3.028467e-003
1.556298e+003,2.968587e-003
1.558227e+003,3.215209e-003
1.560155e+003,3.530979e-003
1.562084e+003,2.877280e-003
1.564012e+003,2.668068e-003
1.565941e+003,2.623685e-003
1.567869e+003,2.544336e-003
1.569798e+003,2.734102e-003
1.571726e+003,2.650626e-003
1.573655e+003,2.418354e-003
1.575583e+003,2.583645e-003
1.577512e+003,2.675802e-003
1.579440e+003,2.425045e-003
1.581369e+003,2.330378e-003
1.583297e+003,2.338335e-003
1.585226e+003,2.353050e-003
1.587154e+003,2.341487e-003
1.589083e+003,2.378918e-003
1.591011e+003,2.423413e-003
1.592940e+003,2.455734e-003
1.594868e+003,2.491757e-003
1.596797e+003,2.443820e-003
1.598725e+003,2.416745e-003
1.600654e+003,2.488740e-003
1.602582e+003,2.597667e-003
1.604511e+003,2.641238e-003
1.606439e+003,2.644621e-003
1.608368e+003,2.712250e-003
1.610296e+003,2.725892e-003
1.612225e+003,2.740145e-003
1.614153e+003,2.661712e-003
1.616082e+003,2.854347e-003
1.618010e+003,3.066182e-003
1.619939e+003,2.918184e-003
1.621867e+003,2.930276e-003
1.623796e+003,3.126048e-003
1.625724e+003,3.078222e-003
1.627653e+003,3.142841e-003
1.629581e+003,3.240995e-003
1.631510e+003,3.187142e-003
1.633438e+003,3.083378e-003
1.635367e+003,3.450938e-003
1.637295e+003,3.907040e-003
1.639224e+003,3.708228e-003
1.641152e+003,3.584273e-003
1.643081e+003,3.542580e-003
1.645009e+003,3.691502e-003
1.646938e+003,4.334681e-003
1.648866e+003,4.007705e-003
1.650795e+003,3.596775e-003
1.652723e+003,4.252851e-003
1.654652e+003,4.497968e-003
1.656580e+003,3.867276e-003
1.658509e+003,3.603496e-003
1.660437e+003,3.497235e-003
1.662366e+003,3.594466e-003
1.664294e+003,3.623635e-003
1.666223e+003,3.372461e-003
1.668151e+003,3.351122e-003
1.670080e+003,3.576942e-003
1.672008e+003,3.404491e-003
1.673937e+003,3.258593e-003
1.675865e+003,3.408179e-003
1.677794e+003,3.159322e-003
1.679722e+003,3.050007e-003
1.681651e+003,2.904639e-003
1.683579e+003,3.098086e-003
1.685508e+003,3.545143e-003
1.687436e+003,3.208995e-003
1.689365e+003,3.089815e-003
1.691293e+003,2.977990e-003
1.693222e+003,2.728321e-003
1.695150e+003,2.798706e-003
1.697079e+003,2.925344e-003
1.699007e+003,2.758406e-003
1.700936e+003,2.918243e-003
1.702864e+003,2.566554e-003
1.704793e+003,2.472341e-003
1.706721e+003,2.489939e-003
1.708650e+003,2.215646e-003
1.710578e+003,2.089098e-003
1.712507e+003,2.009250e-003
1.714435e+003,2.051897e-003
1.716364e+003,2.133638e-003
1.718292e+003,2.415441e-003
1.720221e+003,2.192840e-003
1.722149e+003,1.954213e-003
1.724078e+003,1.993954e-003
1.726006e+003,1.974843e-003
1.727935e+003,1.865774e-003
1.729863e+003,1.970947e-003
1.731792e+003,1.973636e-003
1.733720e+003,2.286822e-003
1.735649e+003,2.258800e-003
1.737577e+003,1.877725e-003
1.739506e+003,1.943260e-003
1.741434e+003,2.033502e-003
1.743363e+003,1.927406e-003
1.745291e+003,1.853988e-003
1.747220e+003,1.833558e-003
1.749148e+003,1.866303e-003
1.751077e+003,1.901686e-003
1.753005e+003,1.667365e-003
1.754934e+003,1.328178e-003
1.756862e+003,1.331106e-003
1.758791e+003,1.305915e-003
1.760719e+003,1.278393e-003
1.762648e+003,1.417644e-003
1.764576e+003,1.247868e-003
1.766505e+003,1.134574e-003
1.768433e+003,1.180097e-003
1.770362e+003,1.056865e-003
1.772290e+003,1.196057e-003
1.774219e+003,1.088545e-003
1.776147e+003,9.515136e-004
1.778076e+003,9.117350e-004
1.780004e+003,9.068251e-004
1.781933e+003,9.343624e-004
1.783861e+003,9.642839e-004
1.785790e+003,1.032837e-003
1.787718e+003,9.577274e-004
1.789646e+003,8.298829e-004
1.791575e+003,9.552091e-004
1.793504e+003,1.046084e-003
1.795432e+003,8.858964e-004
1.797361e+003,6.962940e-004
1.799289e+003,6.377921e-004
1.801218e+003,7.317364e-004
1.803146e+003,7.066205e-004
1.805074e+003,5.783141e-004
1.807003e+003,4.978701e-004
1.808932e+003,3.517196e-004
1.810860e+003,3.619194e-004
1.812789e+003,2.675653e-004
1.814717e+003,-1.465157e-004
1.816646e+003,-4.328266e-004
1.818574e+003,-6.973743e-006
1.820502e+003,2.526492e-004
1.822431e+003,2.387911e-004
1.824360e+003,1.412109e-004
1.826288e+003,1.593307e-004
1.828217e+003,2.905726e-005
1.830145e+003,6.309897e-005
1.832073e+003,2.836436e-005
1.834002e+003,2.495944e-005
1.835931e+003,-3.939122e-005
1.837859e+003,-3.048778e-005
1.839788e+003,-8.165836e-006
1.841716e+003,-1.950711e-004
1.843645e+003,-2.930090e-004
1.845573e+003,-4.366040e-005
1.847501e+003,-9.255111e-005
1.849430e+003,-8.283556e-005
1.851359e+003,-6.842613e-005
1.853287e+003,-9.029359e-005
1.855216e+003,-3.015399e-004
1.857144e+003,-4.673675e-004
1.859073e+003,-4.635230e-004
1.861001e+003,-2.821684e-004
1.862929e+003,-2.612546e-004
1.864858e+003,-4.276335e-004
1.866787e+003,-7.190108e-004
1.868715e+003,-6.949604e-004
1.870644e+003,-5.846769e-004
1.872572e+003,-5.861819e-004
1.874500e+003,-7.428080e-004
1.876429e+003,-8.111522e-004
1.878357e+003,-8.229986e-004
1.880286e+003,-7.827580e-004
1.882215e+003,-7.395446e-004
1.884143e+003,-5.601794e-004
1.886072e+003,-6.220713e-004
1.888000e+003,-9.284541e-004
1.889928e+003,-9.757057e-004
1.891857e+003,-7.870644e-004
1.893785e+003,-8.501559e-004
1.895714e+003,-7.525757e-004
1.897643e+003,-9.199828e-004
1.899571e+003,-1.099430e-003
1.901500e+003,-1.087271e-003
1.903428e+003,-1.075104e-003
1.905356e+003,-1.062959e-003
1.907285e+003,-1.050837e-003
1.909213e+003,-1.038700e-003
1.911142e+003,-1.026571e-003
1.913071e+003,-1.014456e-003
1.914999e+003,-1.002349e-003
1.916927e+003,-9.902641e-004
1.918856e+003,-9.781644e-004
1.920784e+003,-9.660795e-004
1.922713e+003,-9.540021e-004
1.924641e+003,-9.419471e-004
1.926570e+003,-9.298772e-004
1.928499e+003,-9.178296e-004
1.930427e+003,-9.057894e-004
1.932355e+003,-8.937642e-004
1.934284e+003,-8.817241e-004
1.936212e+003,-8.697137e-004
1.938141e+003,-8.577034e-004
1.940070e+003,-8.457005e-004
1.941998e+003,-8.337051e-004
1.943927e+003,-8.217171e-004
1.945855e+003,-8.097515e-004
1.947783e+003,-7.977709e-004
1.949712e+003,-7.858127e-004
1.951640e+003,-7.738546e-004
1.953569e+003,-7.619038e-004
1.955498e+003,-7.499754e-004
1.957426e+003,-7.380471e-004
1.959354e+003,-7.261187e-004
1.961283e+003,-7.142052e-004
1.963211e+003,-7.022992e-004
1.965140e+003,-6.904081e-004
1.967068e+003,-6.785020e-004
1.968997e+003,-6.666332e-004
1.970926e+003,-6.547645e-004
1.972854e+003,-6.428882e-004
1.974782e+003,-6.310344e-004
1.976711e+003,-6.191954e-004
1.978639e+003,-6.073415e-004
1.980568e+003,-5.955175e-004
1.982496e+003,-5.836785e-004
1.984425e+003,-5.718693e-004
1.986354e+003,-5.600527e-004
1.988282e+003,-5.482659e-004
1.990210e+003,-5.364642e-004
1.992139e+003,-5.246773e-004
1.994067e+003,-5.129054e-004
1.995996e+003,-5.011335e-004
1.997924e+003,-4.893690e-004
1.999853e+003,-4.776195e-004
2.001781e+003,-4.658774e-004
2.003710e+003,-4.541427e-004
2.005638e+003,-4.424080e-004
2.007567e+003,-4.306808e-004
2.009495e+003,-4.189834e-004
2.011424e+003,-4.072711e-004
2.013352e+003,-3.955737e-004
2.015281e+003,-3.838763e-004
2.017209e+003,-3.722012e-004
2.019138e+003,-3.605410e-004
2.021066e+003,-3.488585e-004
2.022995e+003,-3.372058e-004
2.024923e+003,-3.255531e-004
2.026852e+003,-3.139153e-004
2.028781e+003,-3.022850e-004
2.030709e+003,-2.906621e-004
2.032637e+003,-2.790466e-004
2.034566e+003,-2.674386e-004
2.036494e+003,-2.558306e-004
2.038423e+003,-2.442524e-004
2.040351e+003,-2.326518e-004
2.042280e+003,-2.210811e-004
2.044208e+003,-2.095103e-004
2.046137e+003,-1.979545e-004
2.048065e+003,-1.864061e-004
2.049994e+003,-1.748577e-004
2.051922e+003,-1.633316e-004
2.053851e+003,-1.517907e-004
2.055779e+003,-1.402646e-004
2.057708e+003,-1.287609e-004
2.059636e+003,-1.172572e-004
2.061565e+003,-1.057610e-004
2.063493e+003,-9.427220e-005
2.065422e+003,-8.279830e-005
2.067350e+003,-7.132441e-005
2.069279e+003,-5.985051e-005
2.071207e+003,-4.839897e-005
2.073136e+003,-3.694743e-005
2.075064e+003,-2.551824e-005
2.076993e+003,-1.408905e-005
2.078921e+003,-2.659857e-006
2.080850e+003,8.746982e-006
2.082778e+003,2.016127e-005
2.084707e+003,3.157556e-005
2.086635e+003,4.295260e-005
2.088564e+003,5.435199e-005
2.090492e+003,6.571412e-005
2.092421e+003,7.708371e-005
2.094349e+003,8.843839e-005
2.096278e+003,9.978563e-005
2.098206e+003,1.111403e-004
2.100135e+003,1.224726e-004
2.102063e+003,1.338050e-004
2.103992e+003,1.451224e-004
2.105920e+003,1.564324e-004
2.107849e+003,1.677349e-004
2.109777e+003,1.790226e-004
2.111706e+003,1.903027e-004
2.113634e+003,2.015978e-004
2.115563e+003,2.128631e-004
2.117491e+003,2.241284e-004
2.119420e+003,2.353862e-004
2.121348e+003,2.466366e-004
2.123277e+003,2.578720e-004
2.125205e+003,2.690926e-004
2.127134e+003,2.803206e-004
2.129062e+003,2.915412e-004
2.130991e+003,3.027469e-004
2.132919e+003,3.139377e-004
2.134848e+003,3.251284e-004
2.136776e+003,3.363118e-004
2.138705e+003,3.474876e-004
2.140633e+003,3.586560e-004
2.142562e+003,3.698245e-004
2.144490e+003,3.809705e-004
2.146419e+003,3.921241e-004
2.148347e+003,4.032403e-004
2.150276e+003,4.143640e-004
2.152204e+003,4.254878e-004
2.154133e+003,4.365966e-004
2.156061e+003,4.477128e-004
2.157990e+003,4.587993e-004
2.159918e+003,4.698932e-004
2.161847e+003,4.809648e-004
2.163775e+003,4.920289e-004
2.165704e+003,5.030930e-004
2.167632e+003,5.141348e-004
2.169561e+003,5.251840e-004
2.171489e+003,5.362257e-004
2.173418e+003,5.472600e-004
2.175346e+003,5.582869e-004
2.177275e+003,5.692989e-004
2.179203e+003,5.802959e-004
2.181132e+003,5.913004e-004
2.183060e+003,6.022900e-004
2.184989e+003,6.132722e-004
2.186917e+003,6.242469e-004
2.188846e+003,6.352067e-004
2.190774e+003,6.461665e-004
2.192703e+003,6.571114e-004
2.194631e+003,6.680638e-004
2.196560e+003,6.789938e-004
2.198488e+003,6.899089e-004
2.200417e+003,7.008463e-004
2.202345e+003,7.117465e-004
2.204274e+003,7.226616e-004
2.206202e+003,7.335395e-004
2.208131e+003,7.444248e-004
2.210059e+003,7.553101e-004
2.211988e+003,7.661730e-004
2.213916e+003,7.770285e-004
2.215845e+003,7.878765e-004
2.217773e+003,7.987320e-004
2.219702e+003,8.095726e-004
2.221630e+003,8.203983e-004
2.223559e+003,8.312240e-004
2.225487e+003,8.420348e-004
2.227416e+003,8.528382e-004
2.229344e+003,8.636415e-004
2.231273e+003,8.744374e-004
2.233201e+003,8.852184e-004
2.235130e+003,8.959845e-004
2.237058e+003,9.067431e-004
2.238987e+003,9.175017e-004
2.240915e+003,9.282455e-004
2.242844e+003,9.389892e-004
2.244772e+003,9.497330e-004
2.246701e+003,9.604469e-004
2.248629e+003,9.711683e-004
2.250558e+003,9.818673e-004
2.252486e+003,9.925738e-004
2.254415e+003,1.003265e-003
2.256343e+003,1.013942e-003
2.258272e+003,1.024626e-003
2.260200e+003,1.035288e-003
2.262129e+003,1.045965e-003
2.264057e+003,1.056612e-003
2.265986e+003,1.067244e-003
2.267914e+003,1.077883e-003
2.269843e+003,1.088507e-003
2.271771e+003,1.099132e-003
2.273700e+003,1.109742e-003
2.275628e+003,1.120359e-003
2.277557e+003,1.130961e-003
2.279485e+003,1.141541e-003
2.281414e+003,1.152128e-003
2.283342e+003,1.162685e-003
2.285271e+003,1.173250e-003
2.287199e+003,1.183800e-003
2.289128e+003,1.194358e-003
2.291056e+003,1.204908e-003
2.292985e+003,1.215436e-003
2.294913e+003,1.225956e-003
2.296842e+003,1.236476e-003
2.298770e+003,1.246981e-003
2.300699e+003,1.257479e-003
2.302627e+003,1.267977e-003
2.304556e+003,1.278460e-003
2.306484e+003,1.288936e-003
2.308413e+003,1.299396e-003
2.310341e+003,1.309849e-003
2.312270e+003,1.320310e-003
2.314198e+003,1.330748e-003
2.316127e+003,1.341179e-003
2.318055e+003,1.351602e-003
2.319984e+003,1.362033e-003
2.321912e+003,1.372442e-003
2.323841e+003,1.382843e-003
2.325769e+003,1.393251e-003
2.327698e+003,1.403630e-003
2.329626e+003,1.414008e-003
2.331555e+003,1.424372e-003
2.333483e+003,1.434743e-003
2.335412e+003,1.445100e-003
2.337340e+003,1.455449e-003
2.339269e+003,1.465790e-003
2.341197e+003,1.476116e-003
2.343126e+003,1.486436e-003
2.345054e+003,1.496755e-003
2.346983e+003,1.507066e-003
2.348911e+003,1.517363e-003
2.350840e+003,1.527660e-003
2.352768e+003,1.537934e-003
2.354697e+003,1.548216e-003
2.356625e+003,1.558475e-003
2.358554e+003,1.568735e-003
2.360482e+003,1.578979e-003
2.362411e+003,1.589216e-003
2.364339e+003,1.599476e-003
2.366268e+003,1.609698e-003
2.368196e+003,1.619905e-003
2.370125e+003,1.630113e-003
2.372053e+003,1.640312e-003
2.373982e+003,1.650505e-003
2.375910e+003,1.660697e-003
2.377839e+003,1.670890e-003
2.379767e+003,1.681052e-003
2.381696e+003,1.691207e-003
2.383624e+003,1.701362e-003
2.385553e+003,1.711510e-003
2.387481e+003,1.721643e-003
2.389410e+003,1.731776e-003
2.391338e+003,1.741901e-003
2.393267e+003,1.752026e-003
2.395195e+003,1.762122e-003
2.397124e+003,1.772217e-003
2.399052e+003,1.782313e-003
2.400981e+003,1.724541e-003
2.402909e+003,1.686394e-003
2.404838e+003,1.797251e-003
2.406766e+003,2.128370e-003
2.408695e+003,2.284855e-003
2.410623e+003,2.079271e-003
2.412552e+003,2.075098e-003
2.414480e+003,2.204828e-003
2.416409e+003,2.269834e-003
2.418337e+003,2.308607e-003
2.420266e+003,2.395712e-003
2.422194e+003,2.409667e-003
2.424123e+003,2.411380e-003
2.426051e+003,2.496496e-003
2.427979e+003,2.575524e-003
2.429908e+003,2.560608e-003
2.431837e+003,2.690278e-003
2.433765e+003,2.733596e-003
2.435694e+003,2.682492e-003
2.437622e+003,2.673231e-003
2.439551e+003,2.729341e-003
2.441479e+003,2.836883e-003
2.443407e+003,2.872854e-003
2.445336e+003,2.904989e-003
2.447265e+003,3.074206e-003
2.449193e+003,3.055394e-003
2.451122e+003,3.117621e-003
2.453050e+003,3.200926e-003
2.454979e+003,3.217578e-003
2.456907e+003,3.193155e-003
2.458836e+003,3.047407e-003
2.460764e+003,2.927266e-003
2.462693e+003,2.834953e-003
2.464621e+003,2.744779e-003
2.466550e+003,2.623498e-003
2.468478e+003,2.497643e-003
2.470406e+003,2.734073e-003
2.472335e+003,2.823651e-003
2.474264e+003,2.728313e-003
2.476192e+003,2.700023e-003
2.478121e+003,2.658732e-003
2.480049e+003,2.585866e-003
2.481978e+003,2.696909e-003
2.483906e+003,2.726272e-003
2.485835e+003,2.787180e-003
2.487763e+003,2.877913e-003
2.489692e+003,2.928816e-003
2.491620e+003,2.967872e-003
2.493549e+003,2.924763e-003
2.495477e+003,2.886832e-003
2.497406e+003,2.862528e-003
2.499334e+003,2.881534e-003
2.501263e+003,2.904065e-003
2.503191e+003,2.959512e-003
2.505120e+003,3.078632e-003
2.507048e+003,3.085710e-003
2.508977e+003,3.006667e-003
2.510905e+003,3.049038e-003
2.512833e+003,3.147915e-003
2.514762e+003,3.233314e-003
2.516691e+003,3.374837e-003
2.518619e+003,3.401041e-003
2.520548e+003,3.455803e-003
2.522476e+003,3.703982e-003
2.524405e+003,3.712796e-003
2.526333e+003,3.551461e-003
2.528261e+003,3.629275e-003
2.530190e+003,3.865555e-003
2.532119e+003,4.000209e-003
2.534047e+003,4.085198e-003
2.535976e+003,4.344299e-003
2.537904e+003,4.274786e-003
2.539833e+003,4.189238e-003
2.541761e+003,4.288353e-003
2.543689e+003,4.344493e-003
2.545618e+003,4.464336e-003
2.547547e+003,4.705280e-003
2.549475e+003,4.833229e-003
2.551404e+003,4.845656e-003
2.553332e+003,4.979432e-003
2.555260e+003,5.145475e-003
2.557189e+003,5.287983e-003
2.559117e+003,5.369723e-003
2.561046e+003,5.434252e-003
2.562975e+003,5.528584e-003
2.564903e+003,5.504780e-003
2.566832e+003,5.573034e-003
2.568760e+003,5.851932e-003
2.570688e+003,6.262064e-003
2.572617e+003,6.545343e-003
2.574546e+003,6.714687e-003
2.576474e+003,6.878272e-003
2.578403e+003,7.110819e-003
2.580331e+003,7.375158e-003
2.582260e+003,7.498778e-003
2.584188e+003,7.395260e-003
2.586116e+003,7.216729e-003
2.588045e+003,6.907396e-003
2.589974e+003,6.735548e-003
2.591902e+003,6.655209e-003
2.593831e+003,6.643653e-003
2.595759e+003,6.674528e-003
2.597688e+003,6.754033e-003
2.599616e+003,6.903380e-003
2.601544e+003,7.034682e-003
2.603473e+003,7.220365e-003
2.605402e+003,7.365018e-003
2.607330e+003,7.467866e-003
2.609259e+003,7.724062e-003
2.611187e+003,7.938676e-003
2.613115e+003,8.099861e-003
2.615044e+003,8.298442e-003
2.616972e+003,8.493669e-003
2.618901e+003,8.559823e-003
2.620830e+003,8.532040e-003
2.622758e+003,8.433171e-003
2.624687e+003,8.401923e-003
2.626615e+003,8.303083e-003
2.628543e+003,8.304730e-003
2.630472e+003,8.383282e-003
2.632400e+003,8.466132e-003
2.634329e+003,8.565538e-003
2.636258e+003,8.611061e-003
2.638186e+003,8.670948e-003
2.640115e+003,8.818112e-003
2.642043e+003,8.973889e-003
2.643971e+003,9.198010e-003
2.645900e+003,9.323068e-003
2.647828e+003,9.377472e-003
2.649757e+003,9.464264e-003
2.651686e+003,9.618610e-003
2.653614e+003,9.748816e-003
2.655542e+003,9.818725e-003
2.657471e+003,9.847634e-003
2.659399e+003,9.802714e-003
2.661328e+003,9.602912e-003
2.663256e+003,9.278797e-003
2.665185e+003,8.956261e-003
2.667114e+003,8.752964e-003
2.669042e+003,8.648969e-003
2.670970e+003,8.703217e-003
2.672899e+003,8.812673e-003
2.674827e+003,8.907914e-003
2.676756e+003,8.989409e-003
2.678685e+003,8.987449e-003
2.680613e+003,8.941464e-003
2.682542e+003,8.928970e-003
2.684470e+003,8.937240e-003
2.686398e+003,8.958302e-003
2.688327e+003,9.012908e-003
2.690255e+003,8.998014e-003
2.692184e+003,8.938104e-003
2.694113e+003,9.039253e-003
2.696041e+003,9.146556e-003
2.697969e+003,9.239793e-003
2.699898e+003,9.360246e-003
2.701826e+003,9.536088e-003
2.703755e+003,9.792626e-003
2.705683e+003,1.002629e-002
2.707612e+003,1.024286e-002
2.709541e+003,1.055156e-002
2.711469e+003,1.091875e-002
2.713397e+003,1.145303e-002
2.715326e+003,1.206858e-002
2.717254e+003,1.273110e-002
2.719183e+003,1.338845e-002
2.721111e+003,1.379078e-002
2.723040e+003,1.373705e-002
2.724969e+003,1.330534e-002
2.726897e+003,1.271362e-002
2.728825e+003,1.221793e-002
2.730754e+003,1.183410e-002
2.732682e+003,1.155232e-002
2.734611e+003,1.131581e-002
2.736539e+003,1.104970e-002
2.738468e+003,1.077938e-002
2.740396e+003,1.058420e-002
2.742325e+003,1.037645e-002
2.744253e+003,1.020556e-002
2.746182e+003,1.014063e-002
2.748110e+003,1.014301e-002
2.750039e+003,1.019048e-002
2.751967e+003,1.020961e-002
2.753896e+003,1.028022e-002
2.755824e+003,1.047298e-002
2.757753e+003,1.072244e-002
2.759681e+003,1.095498e-002
2.761610e+003,1.109277e-002
2.763538e+003,1.125327e-002
2.765467e+003,1.145072e-002
2.767395e+003,1.166663e-002
2.769324e+003,1.187681e-002
2.771252e+003,1.210271e-002
2.773181e+003,1.235468e-002
2.775109e+003,1.261885e-002
2.777038e+003,1.297380e-002
2.778966e+003,1.339512e-002
2.780895e+003,1.388822e-002
2.782823e+003,1.445609e-002
2.784752e+003,1.507355e-002
2.786680e+003,1.580459e-002
2.788609e+003,1.663086e-002
2.790537e+003,1.745524e-002
2.792466e+003,1.822931e-002
2.794394e+003,1.881599e-002
2.796323e+003,1.924054e-002
2.798251e+003,1.980112e-002
2.800180e+003,2.061328e-002
2.802108e+003,2.168688e-002
2.804037e+003,2.303286e-002
2.805965e+003,2.443826e-002
2.807894e+003,2.573207e-002
2.809822e+003,2.692097e-002
2.811751e+003,2.809206e-002
2.813679e+003,2.931422e-002
2.815608e+003,3.079894e-002
2.817536e+003,3.265464e-002
2.819465e+003,3.499012e-002
2.821393e+003,3.792456e-002
2.823322e+003,4.170239e-002
2.825250e+003,4.673252e-002
2.827179e+003,5.379298e-002
2.829107e+003,6.413426e-002
2.831036e+003,7.932676e-002
2.832964e+003,9.928757e-002
2.834893e+003,1.195571e-001
2.836821e+003,1.324178e-001
2.838750e+003,1.329401e-001
2.840678e+003,1.221611e-001
2.842607e+003,1.051181e-001
2.844535e+003,8.746612e-002
2.846464e+003,7.292736e-002
2.848392e+003,6.264810e-002
2.850321e+003,5.608641e-002
2.852249e+003,5.280888e-002
2.854178e+003,5.282858e-002
2.856106e+003,5.673319e-002
2.858035e+003,6.572008e-002
2.859963e+003,8.105262e-002
2.861892e+003,1.019918e-001
2.863820e+003,1.221653e-001
2.865749e+003,1.323190e-001
2.867677e+003,1.310928e-001
2.869606e+003,1.251959e-001
2.871534e+003,1.203320e-001
2.873463e+003,1.190039e-001
2.875391e+003,1.209187e-001
2.877320e+003,1.224114e-001
2.879248e+003,1.206986e-001
2.881177e+003,1.170471e-001
2.883105e+003,1.136374e-001
2.885034e+003,1.113153e-001
2.886962e+003,1.100272e-001
2.888891e+003,1.098079e-001
2.890819e+003,1.111589e-001
2.892748e+003,1.148387e-001
2.894676e+003,1.214119e-001
2.896605e+003,1.308943e-001
2.898533e+003,1.426618e-001
2.900462e+003,1.557687e-001
2.902390e+003,1.693671e-001
2.904319e+003,1.824595e-001
2.906247e+003,1.936844e-001
2.908176e+003,2.033987e-001
2.910104e+003,2.150460e-001
2.912033e+003,2.323442e-001
2.913961e+003,2.538750e-001
2.915890e+003,2.701305e-001
2.917818e+003,2.701691e-001
2.919747e+003,2.546681e-001
2.921675e+003,2.336747e-001
2.923604e+003,2.134471e-001
2.925532e+003,1.933368e-001
2.927461e+003,1.714051e-001
2.929389e+003,1.484678e-001
2.931318e+003,1.274683e-001
2.933246e+003,1.110903e-001
2.935175e+003,1.005057e-001
2.937103e+003,9.657000e-002
2.939032e+003,1.003013e-001
2.940960e+003,1.131750e-001
2.942889e+003,1.361932e-001
2.944817e+003,1.670047e-001
2.946746e+003,1.979987e-001
2.948674e+003,2.173962e-001
2.950603e+003,2.162125e-001
2.952531e+003,1.983434e-001
2.954460e+003,1.783091e-001
2.956388e+003,1.674714e-001
2.958317e+003,1.655566e-001
2.960245e+003,1.632918e-001
2.962174e+003,1.510679e-001
2.964102e+003,1.297785e-001
2.966031e+003,1.070815e-001
2.967959e+003,8.659647e-002
2.969888e+003,6.848963e-002
2.971816e+003,5.318446e-002
2.973745e+003,4.078731e-002
2.975673e+003,3.111975e-002
2.977602e+003,2.381133e-002
2.979530e+003,1.829445e-002
2.981459e+003,1.409888e-002
2.983387e+003,1.091301e-002
2.985316e+003,8.532241e-003
2.987244e+003,6.625131e-003
2.989173e+003,5.074024e-003
2.991101e+003,3.857538e-003
2.993030e+003,2.848402e-003
2.994958e+003,2.134025e-003
2.996887e+003,1.504853e-003
2.998815e+003,1.034275e-003
3.000744e+003,6.598681e-004
3.002672e+003,3.103614e-004
3.004601e+003,6.869435e-006
3.006529e+003,-2.868176e-004
3.008458e+003,-4.946291e-004
3.010386e+003,-6.325990e-004
3.012315e+003,-7.269531e-004
3.014243e+003,-7.827729e-004
3.016172e+003,-9.465367e-004
3.018100e+003,-1.086548e-003
3.020029e+003,-1.190722e-003
3.021957e+003,-1.212925e-003
3.023886e+003,-1.293778e-003
3.025814e+003,-1.325309e-003
3.027743e+003,-1.279861e-003
3.029671e+003,-1.254275e-003
3.031600e+003,-1.230896e-003
3.033528e+003,-1.195639e-003
3.035457e+003,-1.254871e-003
3.037385e+003,-1.271576e-003
3.039314e+003,-1.266003e-003
3.041242e+003,-1.277179e-003
3.043171e+003,-1.271158e-003
3.045099e+003,-1.247272e-003
3.047028e+003,-1.108557e-003
3.048956e+003,-9.312779e-004
3.050885e+003,-9.063333e-004
3.052813e+003,-8.555800e-004
3.054742e+003,-8.519888e-004
3.056670e+003,-9.094626e-004
3.058599e+003,-9.251088e-004
3.060527e+003,-8.221269e-004
3.062456e+003,-8.250177e-004
3.064384e+003,-8.370727e-004
3.066313e+003,-8.031875e-004
3.068241e+003,-7.708520e-004
3.070170e+003,-7.816553e-004
3.072098e+003,-8.087009e-004
3.074027e+003,-8.071363e-004
3.075955e+003,-7.381290e-004
3.077884e+003,-7.216036e-004
3.079812e+003,-6.920546e-004
3.081741e+003,-6.216168e-004
3.083669e+003,-5.850494e-004
3.085598e+003,-6.140918e-004
3.087526e+003,-5.194247e-004
3.089455e+003,-4.464537e-004
3.091383e+003,-3.855079e-004
3.093312e+003,-3.200620e-004
3.095240e+003,-3.283471e-004
3.097169e+003,-4.307330e-004
3.099097e+003,-4.931539e-004
3.101026e+003,-4.746914e-004
3.102954e+003,-4.098415e-004
3.104883e+003,-3.705621e-004
3.106811e+003,-2.825707e-004
3.108740e+003,-1.819581e-004
3.110668e+003,-1.139939e-004
3.112597e+003,-1.341403e-004
3.114525e+003,-8.770823e-005
3.116454e+003,-6.230175e-005
3.118382e+003,2.652407e-005
3.120311e+003,7.301569e-005
3.122239e+003,-1.098216e-005
3.124168e+003,9.936094e-005
3.126096e+003,3.056824e-004
3.128025e+003,3.703684e-004
3.129953e+003,3.617853e-004
3.131882e+003,4.213005e-004
3.133810e+003,4.931092e-004
3.135739e+003,4.630089e-004
3.137667e+003,4.915297e-004
3.139596e+003,5.433112e-004
3.141524e+003,5.571395e-004
3.143453e+003,5.498379e-004
3.145381e+003,6.084293e-004
3.147310e+003,6.628335e-004
3.149238e+003,6.680787e-004
3.151167e+003,6.428510e-004
3.153095e+003,7.005781e-004
3.155024e+003,6.607324e-004
3.156952e+003,6.620288e-004
3.158881e+003,6.766468e-004
3.160809e+003,6.421655e-004
3.162738e+003,6.418973e-004
3.164666e+003,7.390231e-004
3.166594e+003,7.367432e-004
3.168523e+003,7.766038e-004
3.170452e+003,8.315593e-004
3.172380e+003,9.144396e-004
3.174309e+003,8.941293e-004
3.176237e+003,7.986873e-004
3.178166e+003,8.319318e-004
3.180094e+003,9.247214e-004
3.182022e+003,9.692609e-004
3.183951e+003,9.880215e-004
3.185880e+003,9.743273e-004
3.187808e+003,1.045391e-003
3.189737e+003,1.187131e-003
3.191665e+003,1.304865e-003
3.193594e+003,1.204506e-003
3.195522e+003,1.107305e-003
3.197450e+003,1.158655e-003
3.199379e+003,1.192614e-003
3.201308e+003,1.169264e-003
3.203236e+003,1.108453e-003
3.205165e+003,1.101062e-003
3.207093e+003,1.194745e-003
3.209021e+003,1.226321e-003
3.210950e+003,1.114815e-003
3.212878e+003,1.028225e-003
3.214807e+003,1.082674e-003
3.216736e+003,1.031801e-003
3.218664e+003,9.758919e-004
3.220593e+003,9.510368e-004
3.222521e+003,9.819716e-004
3.224449e+003,9.165704e-004
3.226378e+003,7.236451e-004
3.228307e+003,6.032735e-004
3.230235e+003,5.772710e-004
3.232164e+003,6.007999e-004
3.234092e+003,6.082952e-004
3.236021e+003,6.381720e-004
3.237949e+003,6.653219e-004
3.239877e+003,6.091297e-004
3.241806e+003,5.109310e-004
3.243735e+003,5.269498e-004
3.245663e+003,6.562322e-004
3.247592e+003,6.277114e-004
3.249520e+003,5.673468e-004
3.251448e+003,5.552322e-004
3.253377e+003,6.795675e-004
3.255305e+003,8.515865e-004
3.257234e+003,8.617342e-004
3.259163e+003,8.651763e-004
3.261091e+003,9.597689e-004
3.263020e+003,1.044512e-003
3.264948e+003,1.015514e-003
3.266876e+003,1.001999e-003
3.268805e+003,1.010939e-003
3.270733e+003,9.901673e-004
3.272662e+003,1.056865e-003
3.274591e+003,1.081482e-003
3.276519e+003,1.190498e-003
3.278448e+003,1.220763e-003
3.280376e+003,1.182646e-003
3.282304e+003,1.095727e-003
3.284233e+003,1.107007e-003
3.286161e+003,1.170009e-003
3.288090e+003,1.260936e-003
3.290019e+003,1.277894e-003
3.291947e+003,1.225948e-003
3.293875e+003,1.210079e-003
3.295804e+003,1.197785e-003
3.297732e+003,1.200765e-003
3.299661e+003,1.233622e-003
3.301589e+003,1.271337e-003
3.303518e+003,1.333192e-003
3.305447e+003,1.297325e-003
3.307375e+003,1.220301e-003
3.309303e+003,1.253366e-003
3.311232e+003,1.222119e-003
3.313160e+003,1.147732e-003
3.315089e+003,1.026779e-003
3.317018e+003,1.033887e-003
3.318946e+003,1.122311e-003
3.320875e+003,1.173601e-003
3.322803e+003,1.196802e-003
3.324731e+003,1.142755e-003
3.326660e+003,1.230210e-003
3.328588e+003,1.312152e-003
3.330517e+003,1.300320e-003
3.332446e+003,1.247898e-003
3.334374e+003,1.202896e-003
3.336302e+003,1.218200e-003
3.338231e+003,1.297504e-003
3.340159e+003,1.381338e-003
3.342088e+003,1.393810e-003
3.344016e+003,1.318619e-003
3.345945e+003,1.280233e-003
3.347874e+003,1.290545e-003
3.349802e+003,1.218706e-003
3.351730e+003,1.118302e-003
3.353659e+003,1.185656e-003
3.355587e+003,1.255453e-003
3.357516e+003,1.298249e-003
3.359444e+003,1.281291e-003
3.361373e+003,1.251563e-003
3.363302e+003,1.239255e-003
3.365230e+003,1.160339e-003
3.367158e+003,1.115859e-003
3.369087e+003,1.102328e-003
3.371015e+003,1.029983e-003
3.372944e+003,9.810328e-004
3.374872e+003,1.027584e-003
3.376801e+003,1.066104e-003
3.378729e+003,1.020655e-003
3.380658e+003,8.782893e-004
3.382586e+003,7.178783e-004
3.384515e+003,7.710755e-004
3.386443e+003,8.673221e-004
3.388372e+003,8.389503e-004
3.390300e+003,7.367134e-004
3.392229e+003,7.466376e-004
3.394157e+003,7.156134e-004
3.396086e+003,7.157922e-004
3.398014e+003,7.148087e-004
3.399943e+003,7.102340e-004
3.401871e+003,7.985830e-004
3.403800e+003,8.009225e-004
3.405728e+003,8.182824e-004
3.407657e+003,9.019226e-004
3.409585e+003,9.066761e-004
3.411514e+003,8.064359e-004
3.413442e+003,7.729679e-004
3.415371e+003,8.026361e-004
3.417299e+003,6.604344e-004
3.419228e+003,6.255805e-004
3.421156e+003,7.101744e-004
3.423085e+003,6.930232e-004
3.425013e+003,6.053448e-004
3.426942e+003,5.691946e-004
3.428870e+003,4.654527e-004
3.430799e+003,4.458427e-004
3.432727e+003,4.687458e-004
3.434656e+003,4.118830e-004
3.436584e+003,4.116595e-004
3.438513e+003,4.755259e-004
3.440441e+003,4.396439e-004
3.442370e+003,3.747493e-004
3.444298e+003,1.713783e-004
3.446227e+003,2.140999e-004
3.448155e+003,3.813207e-004
3.450084e+003,2.506673e-004
3.452012e+003,1.970083e-004
3.453941e+003,2.662092e-004
3.455869e+003,9.256601e-005
3.457798e+003,3.923476e-005
3.459726e+003,1.451075e-004
3.461655e+003,2.894998e-004
3.463583e+003,1.792610e-004
3.465512e+003,2.145767e-006
3.467440e+003,9.387732e-006
3.469369e+003,-6.672740e-005
3.471297e+003,-1.869798e-004
3.473226e+003,-1.557022e-004
3.475154e+003,-7.240474e-005
3.477083e+003,-9.985268e-005
3.479011e+003,-1.707524e-004
3.480940e+003,-1.593828e-004
3.482868e+003,-1.792461e-004
3.484797e+003,-3.850609e-004
3.486725e+003,-3.294647e-004
3.488654e+003,-1.542866e-004
3.490582e+003,-1.915097e-004
3.492511e+003,-2.407283e-004
3.494439e+003,-2.095550e-004
3.496368e+003,-1.965016e-004
3.498296e+003,-2.742261e-004
3.500225e+003,-4.153252e-004
3.502153e+003,-4.193783e-004
3.504082e+003,-2.292097e-004
3.506010e+003,-4.931837e-004
3.507939e+003,-6.952733e-004
3.509867e+003,-5.366057e-004
3.511796e+003,-4.761219e-004
3.513724e+003,-4.857779e-004
3.515653e+003,-5.964637e-004
3.517581e+003,-6.063432e-004
3.519510e+003,-6.185770e-004
3.521438e+003,-6.233007e-004
3.523367e+003,-3.607720e-004
3.525295e+003,-4.815906e-004
3.527224e+003,-7.249862e-004
3.529152e+003,-7.083118e-004
3.531081e+003,-6.542057e-004
3.533009e+003,-8.050203e-004
3.534938e+003,-9.015948e-004
3.536866e+003,-8.334965e-004
3.538795e+003,-9.526908e-004
3.540723e+003,-1.066789e-003
3.542652e+003,-1.041114e-003
3.544580e+003,-9.362549e-004
3.546509e+003,-7.951409e-004
3.548437e+003,-1.037866e-003
3.550366e+003,-1.403376e-003
3.552294e+003,-1.193196e-003
3.554223e+003,-1.045987e-003
3.556151e+003,-1.122624e-003
3.558080e+003,-1.155198e-003
3.560008e+003,-1.239866e-003
3.561937e+003,-1.285359e-003
3.563865e+003,-1.584947e-003
3.565794e+003,-1.285568e-003
3.567722e+003,-4.546046e-004
3.569651e+003,-9.364784e-004
3.571579e+003,-1.430020e-003
3.573508e+003,-1.622885e-003
3.575436e+003,-1.737565e-003
3.577365e+003,-1.559943e-003
3.579293e+003,-1.327410e-003
3.581222e+003,-1.446873e-003
3.583150e+003,-1.659513e-003
3.585079e+003,-2.023876e-003
3.587007e+003,-1.513317e-003
3.588936e+003,-7.992536e-004
3.590864e+003,-1.318812e-003
3.592793e+003,-1.783356e-003
3.594721e+003,-1.750886e-003
3.596650e+003,-1.509339e-003
3.598578e+003,-1.440108e-003
3.600507e+003,-1.491919e-003
3.602435e+003,-1.478985e-003
3.604364e+003,-1.546532e-003
3.606292e+003,-1.675859e-003
3.608221e+003,-1.162812e-003
3.610149e+003,-1.163170e-003
3.612078e+003,-1.408532e-003
3.614006e+003,-1.175642e-003
3.615935e+003,-1.784891e-003
3.617863e+003,-1.822561e-003
3.619792e+003,-8.422434e-004
3.621720e+003,-9.303093e-004
3.623649e+003,-1.382977e-003
3.625577e+003,-1.889110e-003
3.627506e+003,-2.240375e-003
3.629434e+003,-6.161779e-004
3.631363e+003,-1.071215e-003
3.633291e+003,-1.460522e-003
3.635220e+003,-1.417726e-003
3.637148e+003,-1.484454e-003
3.639077e+003,-1.224473e-003
3.641005e+003,-1.022026e-003
3.642934e+003,-1.107261e-003
3.644862e+003,-1.643375e-003
3.646791e+003,-1.645163e-003
3.648719e+003,-5.323291e-004
3.650648e+003,2.522916e-004
3.652576e+003,-1.084656e-003
3.654505e+003,-2.219170e-003
3.656433e+003,-1.590028e-003
3.658362e+003,-1.202166e-003
3.660290e+003,-1.315236e-003
3.662219e+003,-1.149490e-003
3.664147e+003,-9.847581e-004
3.666076e+003,-1.207545e-003
3.668004e+003,-1.296699e-003
3.669933e+003,3.041327e-005
3.671861e+003,-4.886240e-004
3.673790e+003,-1.811877e-003
3.675718e+003,-8.643419e-004
3.677647e+003,-8.734465e-004
3.679575e+003,-7.351786e-004
3.681504e+003,-4.740357e-004
3.683432e+003,-6.949902e-004
3.685361e+003,-9.604543e-004
3.687289e+003,-1.113147e-003
3.689218e+003,-4.077703e-004
3.691146e+003,2.321452e-004
3.693075e+003,-3.749132e-005
3.695003e+003,-5.877167e-004
3.696932e+003,-6.819665e-004
3.698860e+003,-9.083152e-004
3.700789e+003,-5.979240e-004
3.702717e+003,1.572371e-004
3.704646e+003,-1.552403e-004
3.706574e+003,-6.900579e-004
3.708503e+003,-1.206741e-003
3.710431e+003,-1.031443e-003
3.712360e+003,-1.130998e-005
3.714288e+003,-1.265258e-004
3.716217e+003,-7.247627e-004
3.718145e+003,-6.610155e-004
3.720074e+003,-4.574358e-004
3.722002e+003,-2.017617e-004
3.723931e+003,-1.619756e-004
3.725859e+003,-2.138317e-004
3.727788e+003,-9.341538e-005
3.729716e+003,-5.650073e-004
3.731645e+003,-9.509623e-004
3.733573e+003,-8.803606e-004
3.735502e+003,5.737245e-004
3.737430e+003,1.213461e-003
3.739359e+003,6.150752e-004
3.741287e+003,-1.391768e-004
3.743216e+003,9.597838e-005
3.745144e+003,1.678884e-003
3.747073e+003,6.326288e-004
3.749001e+003,1.552701e-004
3.750930e+003,1.190260e-003
3.752858e+003,1.607984e-003
3.754787e+003,1.003280e-003
3.756715e+003,4.094839e-004
3.758644e+003,5.903840e-004
3.760572e+003,1.116574e-003
3.762501e+003,6.224662e-004
3.764429e+003,5.158633e-004
3.766358e+003,6.532520e-004
3.768286e+003,4.959255e-004
3.770215e+003,1.359567e-003
3.772143e+003,1.087159e-003
3.774072e+003,4.863143e-004
3.776000e+003,2.074391e-004
3.777929e+003,1.138598e-004
3.779857e+003,5.848855e-004
3.781786e+003,3.032684e-004
3.783714e+003,5.523860e-005
3.785643e+003,4.783571e-004
3.787571e+003,3.986806e-004
3.789500e+003,2.287775e-004
3.791428e+003,3.195852e-004
3.793357e+003,1.133978e-005
3.795285e+003,1.070052e-004
3.797214e+003,6.002933e-004
3.799142e+003,-1.891106e-004
3.801071e+003,5.759597e-004
3.802999e+003,8.870810e-004
3.804927e+003,-4.273951e-004
3.806856e+003,5.186945e-004
3.808785e+003,7.810444e-004
3.810713e+003,4.093796e-004
3.812642e+003,1.703799e-004
3.814570e+003,-2.237260e-004
3.816499e+003,5.695671e-004
3.818427e+003,-8.897483e-005
3.820355e+003,2.663136e-004
3.822284e+003,1.611933e-003
3.824213e+003,4.166961e-004
3.826141e+003,2.292991e-004
3.828070e+003,4.120469e-004
3.829998e+003,9.527802e-005
3.831927e+003,4.735142e-004
3.833855e+003,2.748668e-004
3.835783e+003,-6.064773e-005
3.837712e+003,5.293638e-004
3.839641e+003,9.410232e-004
3.841569e+003,7.301271e-004
3.843498e+003,7.904321e-004
3.845426e+003,7.091463e-004
3.847354e+003,3.014356e-004
3.849283e+003,-1.067966e-004
3.851211e+003,-9.040534e-004
3.853140e+003,1.430809e-003
3.855069e+003,2.534285e-003
3.856997e+003,1.312748e-003
3.858926e+003,5.808473e-004
3.860854e+003,4.366338e-004
3.862782e+003,5.650222e-004
3.864711e+003,1.435652e-003
3.866640e+003,7.697493e-004
3.868568e+003,2.973825e-004
3.870497e+003,1.619130e-003
3.872425e+003,9.804368e-004
3.874354e+003,1.214251e-003
3.876282e+003,9.518713e-004
3.878210e+003,4.678965e-005
3.880139e+003,8.082837e-004
3.882068e+003,1.177922e-003
3.883996e+003,6.051064e-004
3.885925e+003,1.351386e-003
3.887853e+003,8.016527e-004
3.889781e+003,2.352297e-004
3.891710e+003,1.498803e-003
3.893638e+003,1.490712e-003
3.895567e+003,8.201748e-004
3.897496e+003,5.422384e-004
3.899424e+003,7.983744e-004
3.901353e+003,1.010567e-003
3.903281e+003,1.399249e-003
3.905209e+003,1.552388e-003
3.907138e+003,9.846389e-004
3.909066e+003,6.075352e-004
3.910995e+003,5.881190e-004
3.912924e+003,4.838854e-004
3.914852e+003,4.495531e-004
3.916781e+003,1.086846e-003
3.918709e+003,1.313403e-003
3.920637e+003,1.040861e-003
3.922566e+003,7.195920e-004
3.924494e+003,9.558052e-004
3.926423e+003,8.884668e-004
3.928352e+003,4.897714e-004
3.930280e+003,4.829019e-004
3.932208e+003,9.025782e-004
3.934137e+003,1.100644e-003
3.936065e+003,7.882714e-004
3.937994e+003,6.067306e-004
3.939922e+003,5.031973e-004
3.941851e+003,7.344782e-004
3.943780e+003,9.645373e-004
3.945708e+003,5.398095e-004
3.947636e+003,5.946010e-004
3.949565e+003,7.895082e-004
3.951493e+003,6.851107e-004
3.953422e+003,6.002784e-004
3.955351e+003,4.717261e-004
3.957279e+003,4.458129e-004
3.959208e+003,5.259365e-004
3.961136e+003,6.352961e-004
3.963064e+003,6.295443e-004
3.964993e+003,4.870892e-004
3.966921e+003,5.106032e-004
3.968850e+003,5.323738e-004
3.970779e+003,4.795045e-004
3.972707e+003,5.441308e-004
3.974635e+003,6.272197e-004
3.976564e+003,6.672144e-004
3.978492e+003,5.141795e-004
3.980421e+003,5.012751e-004
3.982349e+003,5.960613e-004
3.984278e+003,6.418526e-004
3.986207e+003,6.569028e-004
3.988135e+003,5.636066e-004
3.990063e+003,6.299764e-004
3.991992e+003,6.552786e-004
3.993920e+003,6.598830e-004
3.995849e+003,6.931573e-004
3.997777e+003,6.421804e-004
3.999706e+003,5.861074e-004
4.001635e+003,0.000000e+000
