3.991992e+002,0.000000e+000
4.011277e+002,0.000000e+000
4.030562e+002,0.000000e+000
4.049846e+002,0.000000e+000
4.069131e+002,0.000000e+000
4.088416e+002,0.000000e+000
4.107701e+002,0.000000e+000
4.126986e+002,0.000000e+000
4.146271e+002,0.000000e+000
4.165556e+002,0.000000e+000
4.184841e+002,0.000000e+000
4.204126e+002,0.000000e+000
4.223411e+002,0.000000e+000
4.242697e+002,0.000000e+000
4.261982e+002,0.000000e+000
4.281266e+002,0.000000e+000
4.300551e+002,0.000000e+000
4.319836e+002,0.000000e+000
4.339121e+002,0.000000e+000
4.358406e+002,0.000000e+000
4.377691e+002,0.000000e+000
4.396976e+002,0.000000e+000
4.416261e+002,0.000000e+000
4.435546e+002,0.000000e+000
4.454831e+002,0.000000e+000
4.474116e+002,0.000000e+000
4.493401e+002,0.000000e+000
4.512686e+002,0.000000e+000
4.531971e+002,0.000000e+000
4.551256e+002,0.000000e+000
4.570541e+002,0.000000e+000
4.589826e+002,0.000000e+000
4.609111e+002,0.000000e+000
4.628396e+002,0.000000e+000
4.647681e+002,0.000000e+000
4.666966e+002,0.000000e+000
4.686251e+002,0.000000e+000
4.705536e+002,0.000000e+000
4.724821e+002,0.000000e+000
4.744106e+002,0.000000e+000
4.763391e+002,0.000000e+000
4.782676e+002,0.000000e+000
4.801961e+002,0.000000e+000
4.821246e+002,0.000000e+000
4.840531e+002,0.000000e+000
4.859816e+002,0.000000e+000
4.879101e+002,0.000000e+000
4.898386e+002,0.000000e+000
4.917671e+002,0.000000e+000
4.936956e+002,0.000000e+000
4.956241e+002,0.000000e+000
4.975526e+002,0.000000e+000
4.994811e+002,0.000000e+000
5.014096e+002,0.000000e+000
5.033381e+002,0.000000e+000
5.052666e+002,0.000000e+000
5.071951e+002,0.000000e+000
5.091236e+002,0.000000e+000
5.110521e+002,0.000000e+000
5.129806e+002,0.000000e+000
5.149091e+002,0.000000e+000
5.168376e+002,0.000000e+000
5.187661e+002,0.000000e+000
5.206946e+002,0.000000e+000
5.226230e+002,0.000000e+000
5.245516e+002,1.830421e-004
5.264800e+002,3.439505e-004
5.284086e+002,2.453197e-004
5.303370e+002,8.516386e-005
5.322656e+002,-3.739912e-005
5.341940e+002,-1.107166e-004
5.361226e+002,-2.318928e-004
5.380510e+002,-2.210522e-004
5.399796e+002,-2.741795e-004
5.419081e+002,-4.250212e-004
5.438365e+002,-5.168840e-004
5.457650e+002,-6.095059e-004
5.476935e+002,-6.072465e-004
5.496221e+002,-3.690235e-004
5.515505e+002,-2.245735e-004
5.534790e+002,1.327880e-005
5.554075e+002,7.296074e-005
5.573361e+002,-1.717573e-004
5.592645e+002,-3.956184e-004
5.611931e+002,-3.816895e-004
5.631215e+002,-3.223279e-004
5.650500e+002,-2.596565e-004
5.669785e+002,-3.153943e-004
5.689070e+002,-3.742911e-004
5.708355e+002,-3.056079e-004
5.727640e+002,-1.539430e-004
5.746925e+002,-2.695955e-004
5.766210e+002,-3.609192e-004
5.785495e+002,-3.986843e-004
5.804780e+002,-2.363399e-004
5.824065e+002,-2.384456e-004
5.843350e+002,-3.373092e-004
5.862635e+002,-3.902782e-004
5.881920e+002,-3.281906e-004
5.901205e+002,-4.007267e-004
5.920490e+002,-4.609227e-004
5.939775e+002,-4.932871e-004
5.959060e+002,-3.873901e-004
5.978345e+002,-3.513368e-004
5.997630e+002,-2.962491e-004
6.016915e+002,-3.243294e-004
6.036200e+002,-1.977207e-004
6.055485e+002,-1.268024e-004
6.074770e+002,-2.050353e-004
6.094055e+002,-3.208471e-004
6.113340e+002,-2.566390e-004
6.132625e+002,-2.778918e-004
6.151910e+002,-1.939423e-004
6.171195e+002,-2.384428e-004
6.190480e+002,-2.512839e-004
6.209765e+002,-9.934139e-005
6.229050e+002,1.492044e-004
6.248335e+002,2.259752e-004
6.267620e+002,2.245624e-004
6.286905e+002,9.024050e-005
6.306190e+002,1.030294e-004
6.325475e+002,2.507018e-004
6.344760e+002,3.999127e-004
6.364045e+002,4.564524e-004
6.383330e+002,4.249699e-004
6.402615e+002,3.488678e-004
6.421899e+002,3.855461e-004
6.441185e+002,2.873121e-004
6.460470e+002,1.741564e-004
6.479755e+002,1.984248e-004
6.499039e+002,1.488551e-004
6.518325e+002,4.534516e-005
6.537610e+002,1.159357e-004
6.556895e+002,1.645647e-004
6.576179e+002,2.002977e-004
6.595464e+002,1.059845e-004
6.614750e+002,3.885012e-005
6.634034e+002,1.025079e-004
6.653319e+002,1.822766e-004
6.672604e+002,1.039132e-004
6.691890e+002,1.446139e-004
6.711174e+002,1.816535e-004
6.730460e+002,2.243947e-004
6.749745e+002,2.297554e-004
6.769030e+002,2.159588e-004
6.788314e+002,1.097154e-004
6.807599e+002,5.238503e-005
6.826885e+002,1.119357e-004
6.846169e+002,1.493860e-004
6.865454e+002,1.545120e-004
6.884739e+002,2.907673e-004
6.904025e+002,2.723401e-004
6.923309e+002,2.669245e-004
6.942594e+002,3.537973e-004
6.961879e+002,3.993046e-004
6.981165e+002,4.002554e-004
7.000449e+002,5.015768e-004
7.019734e+002,5.508214e-004
7.039019e+002,5.166549e-004
7.058304e+002,4.798025e-004
7.077589e+002,4.782258e-004
7.096874e+002,4.714727e-004
7.116159e+002,5.662246e-004
7.135444e+002,6.152196e-004
7.154729e+002,6.716866e-004
7.174014e+002,7.753279e-004
7.193299e+002,8.812854e-004
7.212584e+002,8.689119e-004
7.231869e+002,8.455859e-004
7.251154e+002,7.392745e-004
7.270439e+002,7.235212e-004
7.289724e+002,7.256111e-004
7.309009e+002,6.844653e-004
7.328294e+002,5.966267e-004
7.347579e+002,6.468324e-004
7.366864e+002,7.138522e-004
7.386149e+002,7.170411e-004
7.405434e+002,6.840667e-004
7.424719e+002,7.453468e-004
7.444004e+002,7.309671e-004
7.463289e+002,7.269923e-004
7.482574e+002,7.014358e-004
7.501859e+002,7.785512e-004
7.521144e+002,8.684620e-004
7.540428e+002,8.485196e-004
7.559714e+002,7.532844e-004
7.578999e+002,7.672841e-004
7.598284e+002,8.465126e-004
7.617568e+002,9.226920e-004
7.636854e+002,9.241020e-004
7.656139e+002,1.059301e-003
7.675424e+002,1.122715e-003
7.694709e+002,1.079078e-003
7.713994e+002,9.940239e-004
7.733279e+002,1.006038e-003
7.752563e+002,9.616306e-004
7.771849e+002,1.068051e-003
7.791134e+002,1.206650e-003
7.810419e+002,1.284819e-003
7.829703e+002,1.430782e-003
7.848989e+002,1.599571e-003
7.868274e+002,1.741643e-003
7.887559e+002,1.995863e-003
7.906843e+002,2.253116e-003
7.926129e+002,2.559461e-003
7.945414e+002,2.790930e-003
7.964698e+002,3.070923e-003
7.983983e+002,3.402670e-003
8.003268e+002,3.874481e-003
8.022554e+002,4.558134e-003
8.041838e+002,5.844144e-003
8.061123e+002,7.671401e-003
8.080408e+002,9.246009e-003
8.099694e+002,9.080941e-003
8.118978e+002,7.313142e-003
8.138263e+002,5.372764e-003
8.157548e+002,4.176768e-003
8.176833e+002,3.575289e-003
8.196118e+002,3.343858e-003
8.215403e+002,3.281712e-003
8.234689e+002,3.341215e-003
8.253973e+002,3.385176e-003
8.273258e+002,3.658184e-003
8.292543e+002,4.027696e-003
8.311829e+002,4.466035e-003
8.331113e+002,5.064936e-003
8.350398e+002,6.355910e-003
8.369683e+002,9.649120e-003
8.388969e+002,1.672942e-002
8.408253e+002,2.085216e-002
8.427538e+002,1.520461e-002
8.446823e+002,8.302532e-003
8.466108e+002,5.292898e-003
8.485393e+002,4.150538e-003
8.504678e+002,3.628032e-003
8.523963e+002,3.270141e-003
8.543248e+002,2.995236e-003
8.562533e+002,2.799895e-003
8.581818e+002,2.691161e-003
8.601103e+002,2.560703e-003
8.620388e+002,2.512920e-003
8.639673e+002,2.510887e-003
8.658958e+002,2.526539e-003
8.678243e+002,2.434311e-003
8.697528e+002,2.291413e-003
8.716813e+002,2.263533e-003
8.736098e+002,2.346615e-003
8.755383e+002,2.375079e-003
8.774668e+002,2.392248e-003
8.793953e+002,2.367715e-003
8.813238e+002,2.436785e-003
8.832523e+002,2.501660e-003
8.851808e+002,2.665821e-003
8.871093e+002,2.781470e-003
8.890378e+002,3.041724e-003
8.909663e+002,3.432838e-003
8.928948e+002,4.137736e-003
8.948232e+002,5.433317e-003
8.967518e+002,7.380435e-003
8.986803e+002,8.688087e-003
9.006088e+002,7.979637e-003
9.025372e+002,5.894665e-003
9.044658e+002,4.241453e-003
9.063943e+002,3.323835e-003
9.083228e+002,2.914911e-003
9.102512e+002,2.719692e-003
9.121797e+002,2.611741e-003
9.141083e+002,2.483970e-003
9.160367e+002,2.408707e-003
9.179653e+002,2.438899e-003
9.198937e+002,2.466880e-003
9.218223e+002,2.440440e-003
9.237507e+002,2.578059e-003
9.256793e+002,2.595230e-003
9.276077e+002,2.627967e-003
9.295363e+002,2.785265e-003
9.314647e+002,2.956632e-003
9.333932e+002,3.043514e-003
9.353217e+002,3.496003e-003
9.372502e+002,3.997611e-003
9.391787e+002,4.462366e-003
9.411072e+002,4.661114e-003
9.430358e+002,4.243535e-003
9.449642e+002,3.857774e-003
9.468928e+002,3.852725e-003
9.488212e+002,3.836446e-003
9.507498e+002,3.984390e-003
9.526782e+002,4.207101e-003
9.546068e+002,4.499286e-003
9.565352e+002,4.834759e-003
9.584637e+002,5.395304e-003
9.603922e+002,6.048393e-003
9.623207e+002,6.853513e-003
9.642492e+002,8.125311e-003
9.661777e+002,1.045634e-002
9.681062e+002,1.479911e-002
9.700347e+002,2.179919e-002
9.719632e+002,2.718729e-002
9.738917e+002,2.547453e-002
9.758202e+002,1.925511e-002
9.777487e+002,1.349231e-002
9.796772e+002,9.591927e-003
9.816057e+002,7.491326e-003
9.835342e+002,6.563577e-003
9.854627e+002,6.399536e-003
9.873912e+002,6.784415e-003
9.893197e+002,7.893705e-003
9.912482e+002,1.001612e-002
9.931767e+002,1.396491e-002
9.951052e+002,1.982932e-002
9.970337e+002,2.416144e-002
9.989622e+002,2.209070e-002
1.000891e+003,1.579021e-002
1.002819e+003,1.059856e-002
1.004748e+003,7.879900e-003
1.006676e+003,6.509450e-003
1.008605e+003,5.781487e-003
1.010533e+003,5.346220e-003
1.012462e+003,5.147580e-003
1.014390e+003,5.004026e-003
1.016319e+003,4.911473e-003
1.018247e+003,4.898880e-003
1.020176e+003,4.925409e-003
1.022104e+003,4.846096e-003
1.024033e+003,4.796198e-003
1.025961e+003,4.793615e-003
1.027890e+003,4.846550e-003
1.029818e+003,4.928315e-003
1.031747e+003,5.111700e-003
1.033675e+003,5.289475e-003
1.035604e+003,5.425530e-003
1.037532e+003,5.519498e-003
1.039461e+003,5.684914e-003
1.041389e+003,6.045422e-003
1.043318e+003,6.506296e-003
1.045246e+003,6.531687e-003
1.047175e+003,6.185049e-003
1.049103e+003,5.738273e-003
1.051032e+003,5.464382e-003
1.052960e+003,5.313544e-003
1.054889e+003,5.262338e-003
1.056817e+003,5.146325e-003
1.058746e+003,5.138219e-003
1.060674e+003,5.121237e-003
1.062603e+003,5.170438e-003
1.064531e+003,5.216992e-003
1.066460e+003,5.241093e-003
1.068388e+003,5.218888e-003
1.070317e+003,5.288754e-003
1.072245e+003,5.329115e-003
1.074174e+003,5.450767e-003
1.076102e+003,5.543812e-003
1.078031e+003,5.688351e-003
1.079959e+003,5.781977e-003
1.081888e+003,5.929528e-003
1.083816e+003,5.955758e-003
1.085745e+003,5.996974e-003
1.087673e+003,6.103549e-003
1.089602e+003,6.351964e-003
1.091530e+003,6.592229e-003
1.093459e+003,6.923588e-003
1.095387e+003,7.269183e-003
1.097316e+003,7.828305e-003
1.099244e+003,8.512374e-003
1.101173e+003,9.125307e-003
1.103101e+003,9.199027e-003
1.105030e+003,8.670298e-003
1.106958e+003,7.914703e-003
1.108887e+003,7.379174e-003
1.110815e+003,6.999392e-003
1.112744e+003,6.796278e-003
1.114672e+003,6.590709e-003
1.116601e+003,6.484816e-003
1.118529e+003,6.382832e-003
1.120458e+003,6.356307e-003
1.122386e+003,6.289739e-003
1.124315e+003,6.284637e-003
1.126243e+003,6.274236e-003
1.128172e+003,6.372308e-003
1.130100e+003,6.480785e-003
1.132029e+003,6.674759e-003
1.133957e+003,6.941487e-003
1.135885e+003,7.321682e-003
1.137814e+003,7.801194e-003
1.139743e+003,8.569113e-003
1.141671e+003,9.491857e-003
1.143600e+003,1.067085e-002
1.145528e+003,1.216289e-002
1.147457e+003,1.406446e-002
1.149385e+003,1.620865e-002
1.151314e+003,1.819083e-002
1.153242e+003,1.939788e-002
1.155171e+003,2.011026e-002
1.157099e+003,2.074440e-002
1.159028e+003,2.167315e-002
1.160956e+003,2.308762e-002
1.162885e+003,2.537451e-002
1.164813e+003,2.813613e-002
1.166742e+003,2.967599e-002
1.168670e+003,2.738405e-002
1.170599e+003,2.177321e-002
1.172527e+003,1.604821e-002
1.174456e+003,1.215912e-002
1.176384e+003,9.775296e-003
1.178313e+003,8.395018e-003
1.180241e+003,7.580329e-003
1.182170e+003,7.190061e-003
1.184098e+003,6.966803e-003
1.186027e+003,6.977732e-003
1.187955e+003,7.080155e-003
1.189884e+003,7.258141e-003
1.191812e+003,7.414420e-003
1.193740e+003,7.668977e-003
1.195669e+003,7.882813e-003
1.197598e+003,8.204372e-003
1.199526e+003,8.630358e-003
1.201455e+003,9.169335e-003
1.203383e+003,9.683698e-003
1.205312e+003,1.025046e-002
1.207240e+003,1.076879e-002
1.209168e+003,1.132952e-002
1.211097e+003,1.178585e-002
1.213026e+003,1.222852e-002
1.214954e+003,1.265858e-002
1.216883e+003,1.312404e-002
1.218811e+003,1.341983e-002
1.220740e+003,1.343094e-002
1.222668e+003,1.312710e-002
1.224596e+003,1.287064e-002
1.226525e+003,1.270406e-002
1.228453e+003,1.269545e-002
1.230382e+003,1.273124e-002
1.232311e+003,1.284676e-002
1.234239e+003,1.287116e-002
1.236167e+003,1.289060e-002
1.238096e+003,1.287613e-002
1.240025e+003,1.291616e-002
1.241953e+003,1.288847e-002
1.243882e+003,1.287853e-002
1.245810e+003,1.272626e-002
1.247739e+003,1.261113e-002
1.249667e+003,1.258295e-002
1.251595e+003,1.303028e-002
1.253524e+003,1.380830e-002
1.255453e+003,1.386283e-002
1.257381e+003,1.231538e-002
1.259310e+003,1.046222e-002
1.261238e+003,9.030986e-003
1.263167e+003,8.067699e-003
1.265095e+003,7.333858e-003
1.267023e+003,6.894046e-003
1.268952e+003,6.567211e-003
1.270880e+003,6.448598e-003
1.272809e+003,6.334711e-003
1.274738e+003,6.316968e-003
1.276666e+003,6.304115e-003
1.278594e+003,6.402185e-003
1.280523e+003,6.507677e-003
1.282451e+003,6.698512e-003
1.284380e+003,6.838974e-003
1.286308e+003,7.132391e-003
1.288237e+003,7.473804e-003
1.290166e+003,7.942550e-003
1.292094e+003,8.548021e-003
1.294022e+003,9.228279e-003
1.295951e+003,9.548821e-003
1.297879e+003,9.563817e-003
1.299808e+003,9.674657e-003
1.301736e+003,1.062510e-002
1.303665e+003,1.172064e-002
1.305594e+003,1.111346e-002
1.307522e+003,8.980639e-003
1.309450e+003,7.578306e-003
1.311379e+003,7.122654e-003
1.313307e+003,7.236524e-003
1.315236e+003,7.273973e-003
1.317164e+003,7.546674e-003
1.319093e+003,7.854313e-003
1.321021e+003,8.226871e-003
1.322950e+003,8.652061e-003
1.324878e+003,9.464884e-003
1.326807e+003,1.006309e-002
1.328735e+003,1.052610e-002
1.330664e+003,1.028271e-002
1.332592e+003,9.742711e-003
1.334521e+003,9.312358e-003
1.336449e+003,9.470096e-003
1.338378e+003,9.899393e-003
1.340306e+003,1.038847e-002
1.342235e+003,1.032296e-002
1.344163e+003,1.096689e-002
1.346092e+003,1.194498e-002
1.348021e+003,1.346288e-002
1.349949e+003,1.534132e-002
1.351877e+003,1.824134e-002
1.353806e+003,2.245707e-002
1.355734e+003,2.845420e-002
1.357663e+003,3.274748e-002
1.359591e+003,3.315011e-002
1.361520e+003,2.997929e-002
1.363448e+003,2.735819e-002
1.365377e+003,2.700135e-002
1.367305e+003,3.177180e-002
1.369234e+003,4.506100e-002
1.371162e+003,6.889538e-002
1.373091e+003,1.025201e-001
1.375019e+003,1.311780e-001
1.376948e+003,1.160754e-001
1.378876e+003,7.909391e-002
1.380805e+003,4.865297e-002
1.382733e+003,2.960636e-002
1.384662e+003,1.878457e-002
1.386590e+003,1.322123e-002
1.388519e+003,1.031828e-002
1.390447e+003,8.780237e-003
1.392376e+003,8.321729e-003
1.394304e+003,8.323584e-003
1.396233e+003,8.417671e-003
1.398161e+003,8.158951e-003
1.400090e+003,8.139729e-003
1.402018e+003,7.720159e-003
1.403947e+003,7.992847e-003
1.405875e+003,8.210134e-003
1.407804e+003,8.212537e-003
1.409732e+003,8.361619e-003
1.411661e+003,8.746355e-003
1.413589e+003,8.901386e-003
1.415518e+003,9.364348e-003
1.417446e+003,1.003530e-002
1.419375e+003,1.090683e-002
1.421303e+003,1.085239e-002
1.423232e+003,1.136839e-002
1.425160e+003,1.233286e-002
1.427089e+003,1.324143e-002
1.429017e+003,1.558623e-002
1.430946e+003,2.028748e-002
1.432874e+003,2.661218e-002
1.434803e+003,3.183248e-002
1.436731e+003,3.311397e-002
1.438660e+003,3.232831e-002
1.440588e+003,3.428467e-002
1.442517e+003,4.000209e-002
1.444445e+003,4.939482e-002
1.446374e+003,6.116040e-002
1.448302e+003,7.413764e-002
1.450231e+003,7.984367e-002
1.452159e+003,8.159534e-002
1.454088e+003,8.162355e-002
1.456016e+003,8.209062e-002
1.457945e+003,7.956258e-002
1.459873e+003,7.593002e-002
1.461802e+003,7.137517e-002
1.463730e+003,6.533009e-002
1.465659e+003,5.315209e-002
1.467587e+003,4.270249e-002
1.469516e+003,3.417212e-002
1.471444e+003,2.742714e-002
1.473373e+003,1.918588e-002
1.475301e+003,1.456186e-002
1.477230e+003,1.123753e-002
1.479158e+003,9.259654e-003
1.481087e+003,7.970495e-003
1.483015e+003,6.986139e-003
1.484944e+003,6.331401e-003
1.486872e+003,6.413924e-003
1.488801e+003,6.642874e-003
1.490729e+003,6.276190e-003
1.492658e+003,5.186005e-003
1.494586e+003,4.892675e-003
1.496515e+003,5.386030e-003
1.498443e+003,5.400425e-003
1.500372e+003,4.942212e-003
1.502300e+003,4.771041e-003
1.504229e+003,4.773716e-003
1.506157e+003,6.303139e-003
1.508086e+003,7.326728e-003
1.510014e+003,5.967794e-003
1.511943e+003,5.370704e-003
1.513871e+003,5.251350e-003
1.515800e+003,5.869430e-003
1.517728e+003,6.248822e-003
1.519657e+003,5.944109e-003
1.521585e+003,7.057073e-003
1.523514e+003,6.709460e-003
1.525442e+003,6.369324e-003
1.527371e+003,6.417088e-003
1.529299e+003,6.166393e-003
1.531228e+003,6.085442e-003
1.533156e+003,6.999036e-003
1.535085e+003,7.132269e-003
1.537013e+003,6.795000e-003
1.538942e+003,7.931152e-003
1.540870e+003,1.014539e-002
1.542799e+003,9.097490e-003
1.544727e+003,8.497931e-003
1.546656e+003,7.570026e-003
1.548584e+003,7.360162e-003
1.550513e+003,7.586397e-003
1.552441e+003,7.357400e-003
1.554370e+003,7.727042e-003
1.556298e+003,7.818135e-003
1.558227e+003,8.507039e-003
1.560155e+003,8.346163e-003
1.562084e+003,6.730147e-003
1.564012e+003,6.354604e-003
1.565941e+003,6.249472e-003
1.567869e+003,6.021960e-003
1.569798e+003,6.432934e-003
1.571726e+003,5.976029e-003
1.573655e+003,5.465411e-003
1.575583e+003,5.952362e-003
1.577512e+003,5.995110e-003
1.579440e+003,5.144455e-003
1.581369e+003,4.804622e-003
1.583297e+003,4.693789e-003
1.585226e+003,4.631419e-003
1.587154e+003,4.602540e-003
1.589083e+003,4.611511e-003
1.591011e+003,4.601378e-003
1.592940e+003,4.570452e-003
1.594868e+003,4.635317e-003
1.596797e+003,4.626431e-003
1.598725e+003,4.565770e-003
1.600654e+003,4.650438e-003
1.602582e+003,4.754333e-003
1.604511e+003,4.715683e-003
1.606439e+003,4.757371e-003
1.608368e+003,4.942864e-003
1.610296e+003,4.948372e-003
1.612225e+003,4.861787e-003
1.614153e+003,4.894556e-003
1.616082e+003,5.579030e-003
1.618010e+003,5.965721e-003
1.619939e+003,5.391562e-003
1.621867e+003,5.502246e-003
1.623796e+003,6.230189e-003
1.625724e+003,5.954182e-003
1.627653e+003,6.014585e-003
1.629581e+003,6.171260e-003
1.631510e+003,6.133480e-003
1.633438e+003,6.323485e-003
1.635367e+003,7.688085e-003
1.637295e+003,7.965680e-003
1.639224e+003,7.074742e-003
1.641152e+003,6.994860e-003
1.643081e+003,7.133447e-003
1.645009e+003,7.439218e-003
1.646938e+003,8.845782e-003
1.648866e+003,8.456450e-003
1.650795e+003,7.564276e-003
1.652723e+003,8.377602e-003
1.654652e+003,8.794755e-003
1.656580e+003,7.636899e-003
1.658509e+003,7.200040e-003
1.660437e+003,7.140005e-003
1.662366e+003,7.366188e-003
1.664294e+003,7.144241e-003
1.666223e+003,6.662957e-003
1.668151e+003,6.873962e-003
1.670080e+003,7.317301e-003
1.672008e+003,6.681396e-003
1.673937e+003,6.156469e-003
1.675865e+003,6.191315e-003
1.677794e+003,5.716896e-003
1.679722e+003,5.864387e-003
1.681651e+003,5.977061e-003
1.683579e+003,6.358717e-003
1.685508e+003,6.276425e-003
1.687436e+003,5.377531e-003
1.689365e+003,5.035052e-003
1.691293e+003,4.640019e-003
1.693222e+003,4.171474e-003
1.695150e+003,4.758844e-003
1.697079e+003,5.439498e-003
1.699007e+003,4.625801e-003
1.700936e+003,4.756564e-003
1.702864e+003,4.157452e-003
1.704793e+003,3.835119e-003
1.706721e+003,3.834125e-003
1.708650e+003,3.270989e-003
1.710578e+003,3.123771e-003
1.712507e+003,3.207196e-003
1.714435e+003,3.778558e-003
1.716364e+003,4.068138e-003
1.718292e+003,4.013177e-003
1.720221e+003,3.145460e-003
1.722149e+003,2.732188e-003
1.724078e+003,2.814576e-003
1.726006e+003,2.660822e-003
1.727935e+003,2.607720e-003
1.729863e+003,3.164327e-003
1.731792e+003,3.200591e-003
1.733720e+003,3.780926e-003
1.735649e+003,3.679646e-003
1.737577e+003,2.901407e-003
1.739506e+003,3.124872e-003
1.741434e+003,3.238991e-003
1.743363e+003,3.346041e-003
1.745291e+003,3.486024e-003
1.747220e+003,3.698550e-003
1.749148e+003,3.898991e-003
1.751077e+003,3.596213e-003
1.753005e+003,2.834233e-003
1.754934e+003,2.235547e-003
1.756862e+003,2.469029e-003
1.758791e+003,2.202839e-003
1.760719e+003,2.060685e-003
1.762648e+003,2.181761e-003
1.764576e+003,1.668200e-003
1.766505e+003,1.540041e-003
1.768433e+003,1.990765e-003
1.770362e+003,2.047636e-003
1.772290e+003,2.546825e-003
1.774219e+003,2.220292e-003
1.776147e+003,1.644090e-003
1.778076e+003,1.465626e-003
1.780004e+003,1.811840e-003
1.781933e+003,1.734247e-003
1.783861e+003,1.477618e-003
1.785790e+003,1.519578e-003
1.787718e+003,1.375655e-003
1.789646e+003,1.354543e-003
1.791575e+003,1.896255e-003
1.793504e+003,1.927493e-003
1.795432e+003,1.641814e-003
1.797361e+003,1.438728e-003
1.799289e+003,1.531918e-003
1.801218e+003,1.715358e-003
1.803146e+003,1.376946e-003
1.805074e+003,1.053628e-003
1.807003e+003,1.035653e-003
1.808932e+003,9.837132e-004
1.810860e+003,1.038767e-003
1.812789e+003,7.313751e-004
1.814717e+003,1.734532e-004
1.816646e+003,3.809482e-005
1.818574e+003,4.215185e-004
1.820502e+003,6.672964e-004
1.822431e+003,7.693022e-004
1.824360e+003,1.015667e-003
1.826288e+003,1.005379e-003
1.828217e+003,7.127617e-004
1.830145e+003,1.148829e-003
1.832073e+003,8.488744e-004
1.834002e+003,4.566461e-004
1.835931e+003,5.075540e-004
1.837859e+003,6.606635e-004
1.839788e+003,5.461480e-004
1.841716e+003,5.208198e-004
1.843645e+003,8.831546e-004
1.845573e+003,1.055030e-003
1.847501e+003,6.317515e-004
1.849430e+003,2.919305e-004
1.851359e+003,5.549565e-005
1.853287e+003,7.532537e-006
1.855216e+003,-7.873215e-005
1.857144e+003,2.159551e-005
1.859073e+003,8.767471e-006
1.861001e+003,-6.727502e-005
1.862929e+003,-4.235655e-005
1.864858e+003,2.552085e-004
1.866787e+003,5.645640e-004
1.868715e+003,9.978041e-004
1.870644e+003,5.513970e-004
1.872572e+003,-2.061389e-005
1.874500e+003,-2.423823e-004
1.876429e+003,-3.007222e-004
1.878357e+003,-4.622731e-004
1.880286e+003,-4.265383e-004
1.882215e+003,-4.258938e-004
1.884143e+003,-3.158078e-004
1.886072e+003,-3.518425e-004
1.888000e+003,-4.090201e-004
1.889928e+003,-2.822168e-004
1.891857e+003,-4.264917e-004
1.893785e+003,-6.802678e-004
1.895714e+003,-4.784726e-004
1.897643e+003,-6.098952e-004
1.899571e+003,-8.226018e-004
1.901500e+003,-8.102786e-004
1.903428e+003,-7.979609e-004
1.905356e+003,-7.856600e-004
1.907285e+003,-7.733703e-004
1.909213e+003,-7.610880e-004
1.911142e+003,-7.488150e-004
1.913071e+003,-7.365569e-004
1.914999e+003,-7.243101e-004
1.916927e+003,-7.120725e-004
1.918856e+003,-6.998423e-004
1.920784e+003,-6.876271e-004
1.922713e+003,-6.754212e-004
1.924641e+003,-6.632283e-004
1.926570e+003,-6.510429e-004
1.928499e+003,-6.388705e-004
1.930427e+003,-6.267093e-004
1.932355e+003,-6.145611e-004
1.934284e+003,-6.024167e-004
1.936212e+003,-5.902890e-004
1.938141e+003,-5.781706e-004
1.940070e+003,-5.660616e-004
1.941998e+003,-5.539656e-004
1.943927e+003,-5.418789e-004
1.945855e+003,-5.298071e-004
1.947783e+003,-5.177408e-004
1.949712e+003,-5.056877e-004
1.951640e+003,-4.936457e-004
1.953569e+003,-4.816130e-004
1.955498e+003,-4.695915e-004
1.957426e+003,-4.575830e-004
1.959354e+003,-4.455857e-004
1.961283e+003,-4.335959e-004
1.963211e+003,-4.216172e-004
1.965140e+003,-4.096515e-004
1.967068e+003,-3.976952e-004
1.968997e+003,-3.857501e-004
1.970926e+003,-3.738161e-004
1.972854e+003,-3.618933e-004
1.974782e+003,-3.499817e-004
1.976711e+003,-3.380794e-004
1.978639e+003,-3.261901e-004
1.980568e+003,-3.143102e-004
1.982496e+003,-3.024414e-004
1.984425e+003,-2.905820e-004
1.986354e+003,-2.787355e-004
1.988282e+003,-2.668984e-004
1.990210e+003,-2.550725e-004
1.992139e+003,-2.432577e-004
1.994067e+003,-2.314541e-004
1.995996e+003,-2.196617e-004
1.997924e+003,-2.078805e-004
1.999853e+003,-1.961086e-004
2.001781e+003,-1.843479e-004
2.003710e+003,-1.725983e-004
2.005638e+003,-1.608618e-004
2.007567e+003,-1.491308e-004
2.009495e+003,-1.374148e-004
2.011424e+003,-1.257099e-004
2.013352e+003,-1.140144e-004
2.015281e+003,-1.023281e-004
2.017209e+003,-9.065680e-005
2.019138e+003,-7.899478e-005
2.021066e+003,-6.734207e-005
2.022995e+003,-5.570054e-005
2.024923e+003,-4.407018e-005
2.026852e+003,-3.245100e-005
2.028781e+003,-2.084114e-005
2.030709e+003,-9.244308e-006
2.032637e+003,2.339482e-006
2.034566e+003,1.391582e-005
2.036494e+003,2.548471e-005
2.038423e+003,3.703684e-005
2.040351e+003,4.857965e-005
2.042280e+003,6.011315e-005
2.044208e+003,7.163361e-005
2.046137e+003,8.314475e-005
2.048065e+003,9.464473e-005
2.049994e+003,1.061335e-004
2.051922e+003,1.176111e-004
2.053851e+003,1.290813e-004
2.055779e+003,1.405384e-004
2.057708e+003,1.519807e-004
2.059636e+003,1.634154e-004
2.061565e+003,1.748409e-004
2.063493e+003,1.862515e-004
2.065422e+003,1.976546e-004
2.067350e+003,2.090447e-004
2.069279e+003,2.204273e-004
2.071207e+003,2.317969e-004
2.073136e+003,2.431571e-004
2.075064e+003,2.545044e-004
2.076993e+003,2.658404e-004
2.078921e+003,2.771653e-004
2.080850e+003,2.884790e-004
2.082778e+003,2.997871e-004
2.084707e+003,3.110804e-004
2.086635e+003,3.223661e-004
2.088564e+003,3.336370e-004
2.090492e+003,3.448967e-004
2.092421e+003,3.561452e-004
2.094349e+003,3.673844e-004
2.096278e+003,3.786143e-004
2.098206e+003,3.898330e-004
2.100135e+003,4.010405e-004
2.102063e+003,4.122388e-004
2.103992e+003,4.234202e-004
2.105920e+003,4.345942e-004
2.107849e+003,4.457571e-004
2.109777e+003,4.569124e-004
2.111706e+003,4.680492e-004
2.113634e+003,4.791860e-004
2.115563e+003,4.903059e-004
2.117491e+003,5.014129e-004
2.119420e+003,5.125105e-004
2.121348e+003,5.235970e-004
2.123277e+003,5.346760e-004
2.125205e+003,5.457401e-004
2.127134e+003,5.567931e-004
2.129062e+003,5.678423e-004
2.130991e+003,5.788729e-004
2.132919e+003,5.898960e-004
2.134848e+003,6.009080e-004
2.136776e+003,6.119087e-004
2.138705e+003,6.228965e-004
2.140633e+003,6.338749e-004
2.142562e+003,6.448459e-004
2.144490e+003,6.558038e-004
2.146419e+003,6.667487e-004
2.148347e+003,6.776843e-004
2.150276e+003,6.886087e-004
2.152204e+003,6.995220e-004
2.154133e+003,7.104259e-004
2.156061e+003,7.213205e-004
2.157990e+003,7.322039e-004
2.159918e+003,7.430706e-004
2.161847e+003,7.539280e-004
2.163775e+003,7.647779e-004
2.165704e+003,7.756166e-004
2.167632e+003,7.864423e-004
2.169561e+003,7.972568e-004
2.171489e+003,8.080639e-004
2.173418e+003,8.188598e-004
2.175346e+003,8.296445e-004
2.177275e+003,8.404162e-004
2.179203e+003,8.511767e-004
2.181132e+003,8.619297e-004
2.183060e+003,8.726679e-004
2.184989e+003,8.833967e-004
2.186917e+003,8.941200e-004
2.188846e+003,9.048246e-004
2.190774e+003,9.155236e-004
2.192703e+003,9.262078e-004
2.194631e+003,9.368826e-004
2.196560e+003,9.475462e-004
2.198488e+003,9.581987e-004
2.200417e+003,9.688456e-004
2.202345e+003,9.794757e-004
2.204274e+003,9.900965e-004
2.206202e+003,1.000708e-003
2.208131e+003,1.011306e-003
2.210059e+003,1.021894e-003
2.211988e+003,1.032470e-003
2.213916e+003,1.043037e-003
2.215845e+003,1.053590e-003
2.217773e+003,1.064138e-003
2.219702e+003,1.074672e-003
2.221630e+003,1.085196e-003
2.223559e+003,1.095708e-003
2.225487e+003,1.106206e-003
2.227416e+003,1.116699e-003
2.229344e+003,1.127180e-003
2.231273e+003,1.137650e-003
2.233201e+003,1.148110e-003
2.235130e+003,1.158554e-003
2.237058e+003,1.168991e-003
2.238987e+003,1.179416e-003
2.240915e+003,1.189828e-003
2.242844e+003,1.200233e-003
2.244772e+003,1.210628e-003
2.246701e+003,1.221009e-003
2.248629e+003,1.231380e-003
2.250558e+003,1.241742e-003
2.252486e+003,1.252089e-003
2.254415e+003,1.262430e-003
2.256343e+003,1.272758e-003
2.258272e+003,1.283072e-003
2.260200e+003,1.293376e-003
2.262129e+003,1.303677e-003
2.264057e+003,1.313964e-003
2.265986e+003,1.324233e-003
2.267914e+003,1.334496e-003
2.269843e+003,1.344748e-003
2.271771e+003,1.354989e-003
2.273700e+003,1.365218e-003
2.275628e+003,1.375441e-003
2.277557e+003,1.385650e-003
2.279485e+003,1.395844e-003
2.281414e+003,1.406033e-003
2.283342e+003,1.416206e-003
2.285271e+003,1.426373e-003
2.287199e+003,1.436524e-003
2.289128e+003,1.446672e-003
2.291056e+003,1.456806e-003
2.292985e+003,1.466926e-003
2.294913e+003,1.477035e-003
2.296842e+003,1.487136e-003
2.298770e+003,1.497226e-003
2.300699e+003,1.507301e-003
2.302627e+003,1.517370e-003
2.304556e+003,1.527430e-003
2.306484e+003,1.537474e-003
2.308413e+003,1.547508e-003
2.310341e+003,1.557531e-003
2.312270e+003,1.567546e-003
2.314198e+003,1.577545e-003
2.316127e+003,1.587536e-003
2.318055e+003,1.597516e-003
2.319984e+003,1.607489e-003
2.321912e+003,1.617447e-003
2.323841e+003,1.627395e-003
2.325769e+003,1.637334e-003
2.327698e+003,1.647258e-003
2.329626e+003,1.657173e-003
2.331555e+003,1.667077e-003
2.333483e+003,1.676975e-003
2.335412e+003,1.686856e-003
2.337340e+003,1.696728e-003
2.339269e+003,1.706591e-003
2.341197e+003,1.716439e-003
2.343126e+003,1.726277e-003
2.345054e+003,1.736104e-003
2.346983e+003,1.745926e-003
2.348911e+003,1.755733e-003
2.350840e+003,1.765529e-003
2.352768e+003,1.775315e-003
2.354697e+003,1.785088e-003
2.356625e+003,1.794850e-003
2.358554e+003,1.804601e-003
2.360482e+003,1.814345e-003
2.362411e+003,1.824073e-003
2.364339e+003,1.833797e-003
2.366268e+003,1.843505e-003
2.368196e+003,1.853205e-003
2.370125e+003,1.862891e-003
2.372053e+003,1.872567e-003
2.373982e+003,1.882233e-003
2.375910e+003,1.891889e-003
2.377839e+003,1.901535e-003
2.379767e+003,1.911167e-003
2.381696e+003,1.920789e-003
2.383624e+003,1.930401e-003
2.385553e+003,1.940001e-003
2.387481e+003,1.949590e-003
2.389410e+003,1.959169e-003
2.391338e+003,1.968741e-003
2.393267e+003,1.978297e-003
2.395195e+003,1.987843e-003
2.397124e+003,1.997380e-003
2.399052e+003,2.006903e-003
2.400981e+003,1.925522e-003
2.402909e+003,1.778323e-003
2.404838e+003,1.806041e-003
2.406766e+003,2.140395e-003
2.408695e+003,2.302710e-003
2.410623e+003,2.142707e-003
2.412552e+003,2.066365e-003
2.414480e+003,2.099121e-003
2.416409e+003,2.334267e-003
2.418337e+003,2.342463e-003
2.420266e+003,2.286118e-003
2.422194e+003,2.406511e-003
2.424123e+003,2.522314e-003
2.426051e+003,2.411520e-003
2.427979e+003,2.517752e-003
2.429908e+003,2.548844e-003
2.431837e+003,2.460405e-003
2.433765e+003,2.427472e-003
2.435694e+003,2.451736e-003
2.437622e+003,2.407454e-003
2.439551e+003,2.440752e-003
2.441479e+003,2.531908e-003
2.443407e+003,2.684651e-003
2.445336e+003,2.786195e-003
2.447265e+003,2.937561e-003
2.449193e+003,2.867708e-003
2.451122e+003,2.880050e-003
2.453050e+003,2.918752e-003
2.454979e+003,3.044289e-003
2.456907e+003,2.927383e-003
2.458836e+003,2.763167e-003
2.460764e+003,2.680317e-003
2.462693e+003,2.562353e-003
2.464621e+003,2.574174e-003
2.466550e+003,2.684742e-003
2.468478e+003,2.730124e-003
2.470406e+003,2.636367e-003
2.472335e+003,2.635039e-003
2.474264e+003,2.821550e-003
2.476192e+003,2.743842e-003
2.478121e+003,2.679059e-003
2.480049e+003,2.706030e-003
2.481978e+003,2.756311e-003
2.483906e+003,2.838824e-003
2.485835e+003,2.872959e-003
2.487763e+003,2.759587e-003
2.489692e+003,2.853258e-003
2.491620e+003,2.848824e-003
2.493549e+003,2.739118e-003
2.495477e+003,2.786385e-003
2.497406e+003,2.995001e-003
2.499334e+003,2.842622e-003
2.501263e+003,2.786418e-003
2.503191e+003,2.938893e-003
2.505120e+003,3.001936e-003
2.507048e+003,2.995355e-003
2.508977e+003,3.007345e-003
2.510905e+003,2.874766e-003
2.512833e+003,2.870686e-003
2.514762e+003,2.978045e-003
2.516691e+003,3.081799e-003
2.518619e+003,3.253873e-003
2.520548e+003,3.426569e-003
2.522476e+003,3.430029e-003
2.524405e+003,3.471252e-003
2.526333e+003,3.495870e-003
2.528261e+003,3.471749e-003
2.530190e+003,3.481828e-003
2.532119e+003,3.592836e-003
2.534047e+003,3.816841e-003
2.535976e+003,4.062444e-003
2.537904e+003,4.220799e-003
2.539833e+003,4.218031e-003
2.541761e+003,4.095105e-003
2.543689e+003,4.258227e-003
2.545618e+003,4.526269e-003
2.547547e+003,4.537538e-003
2.549475e+003,4.554104e-003
2.551404e+003,4.672904e-003
2.553332e+003,4.736597e-003
2.555260e+003,4.954197e-003
2.557189e+003,5.061468e-003
2.559117e+003,5.025268e-003
2.561046e+003,5.025094e-003
2.562975e+003,5.162910e-003
2.564903e+003,5.235324e-003
2.566832e+003,5.451843e-003
2.568760e+003,5.597210e-003
2.570688e+003,5.725194e-003
2.572617e+003,5.883342e-003
2.574546e+003,6.186547e-003
2.576474e+003,6.503347e-003
2.578403e+003,6.817708e-003
2.580331e+003,7.004971e-003
2.582260e+003,7.086368e-003
2.584188e+003,6.931785e-003
2.586116e+003,6.731125e-003
2.588045e+003,6.734844e-003
2.589974e+003,6.563582e-003
2.591902e+003,6.208204e-003
2.593831e+003,6.121399e-003
2.595759e+003,6.119210e-003
2.597688e+003,6.423315e-003
2.599616e+003,6.693805e-003
2.601544e+003,6.785853e-003
2.603473e+003,6.923940e-003
2.605402e+003,7.228099e-003
2.607330e+003,7.407751e-003
2.609259e+003,7.598100e-003
2.611187e+003,7.714594e-003
2.613115e+003,7.829459e-003
2.615044e+003,8.058684e-003
2.616972e+003,8.225804e-003
2.618901e+003,8.231845e-003
2.620830e+003,8.356096e-003
2.622758e+003,8.515464e-003
2.624687e+003,8.531982e-003
2.626615e+003,8.340202e-003
2.628543e+003,8.343918e-003
2.630472e+003,8.437550e-003
2.632400e+003,8.538505e-003
2.634329e+003,8.559057e-003
2.636258e+003,8.635009e-003
2.638186e+003,8.770892e-003
2.640115e+003,8.985996e-003
2.642043e+003,9.153491e-003
2.643971e+003,9.214787e-003
2.645900e+003,9.348322e-003
2.647828e+003,9.584419e-003
2.649757e+003,9.766076e-003
2.651686e+003,9.948544e-003
2.653614e+003,1.004199e-002
2.655542e+003,1.006045e-002
2.657471e+003,1.009673e-002
2.659399e+003,1.007420e-002
2.661328e+003,9.937948e-003
2.663256e+003,9.612931e-003
2.665185e+003,9.361126e-003
2.667114e+003,9.291271e-003
2.669042e+003,9.213366e-003
2.670970e+003,9.196578e-003
2.672899e+003,9.219758e-003
2.674827e+003,9.300813e-003
2.676756e+003,9.377763e-003
2.678685e+003,9.382399e-003
2.680613e+003,9.406991e-003
2.682542e+003,9.447001e-003
2.684470e+003,9.511737e-003
2.686398e+003,9.598223e-003
2.688327e+003,9.563055e-003
2.690255e+003,9.516513e-003
2.692184e+003,9.528417e-003
2.694113e+003,9.554030e-003
2.696041e+003,9.612663e-003
2.697969e+003,9.688238e-003
2.699898e+003,9.777937e-003
2.701826e+003,1.002969e-002
2.703755e+003,1.031976e-002
2.705683e+003,1.053652e-002
2.707612e+003,1.083875e-002
2.709541e+003,1.120462e-002
2.711469e+003,1.156218e-002
2.713397e+003,1.204256e-002
2.715326e+003,1.260427e-002
2.717254e+003,1.335083e-002
2.719183e+003,1.413434e-002
2.721111e+003,1.458747e-002
2.723040e+003,1.456789e-002
2.724969e+003,1.418897e-002
2.726897e+003,1.358992e-002
2.728825e+003,1.298488e-002
2.730754e+003,1.252327e-002
2.732682e+003,1.222339e-002
2.734611e+003,1.195817e-002
2.736539e+003,1.173086e-002
2.738468e+003,1.146836e-002
2.740396e+003,1.117525e-002
2.742325e+003,1.098199e-002
2.744253e+003,1.089138e-002
2.746182e+003,1.078598e-002
2.748110e+003,1.072912e-002
2.750039e+003,1.078845e-002
2.751967e+003,1.086348e-002
2.753896e+003,1.094614e-002
2.755824e+003,1.112292e-002
2.757753e+003,1.134931e-002
2.759681e+003,1.159287e-002
2.761610e+003,1.183774e-002
2.763538e+003,1.194774e-002
2.765467e+003,1.212891e-002
2.767395e+003,1.242022e-002
2.769324e+003,1.263910e-002
2.771252e+003,1.293220e-002
2.773181e+003,1.327338e-002
2.775109e+003,1.359502e-002
2.777038e+003,1.393975e-002
2.778966e+003,1.440594e-002
2.780895e+003,1.490825e-002
2.782823e+003,1.551493e-002
2.784752e+003,1.618503e-002
2.786680e+003,1.692010e-002
2.788609e+003,1.776762e-002
2.790537e+003,1.864309e-002
2.792466e+003,1.939682e-002
2.794394e+003,2.004694e-002
2.796323e+003,2.062777e-002
2.798251e+003,2.122461e-002
2.800180e+003,2.213130e-002
2.802108e+003,2.331914e-002
2.804037e+003,2.474325e-002
2.805965e+003,2.625589e-002
2.807894e+003,2.756185e-002
2.809822e+003,2.876258e-002
2.811751e+003,3.003173e-002
2.813679e+003,3.146411e-002
2.815608e+003,3.306130e-002
2.817536e+003,3.497868e-002
2.819465e+003,3.742360e-002
2.821393e+003,4.058910e-002
2.823322e+003,4.458243e-002
2.825250e+003,4.989472e-002
2.827179e+003,5.735967e-002
2.829107e+003,6.840643e-002
2.831036e+003,8.448382e-002
2.832964e+003,1.055090e-001
2.834893e+003,1.271086e-001
2.836821e+003,1.412812e-001
2.838750e+003,1.426212e-001
2.840678e+003,1.319527e-001
2.842607e+003,1.146859e-001
2.844535e+003,9.726683e-002
2.846464e+003,8.374668e-002
2.848392e+003,7.490723e-002
2.850321e+003,6.905222e-002
2.852249e+003,6.500626e-002
2.854178e+003,6.365199e-002
2.856106e+003,6.645213e-002
2.858035e+003,7.482451e-002
2.859963e+003,9.012271e-002
2.861892e+003,1.115468e-001
2.863820e+003,1.322841e-001
2.865749e+003,1.426674e-001
2.867677e+003,1.411896e-001
2.869606e+003,1.348932e-001
2.871534e+003,1.298496e-001
2.873463e+003,1.285181e-001
2.875391e+003,1.305462e-001
2.877320e+003,1.322472e-001
2.879248e+003,1.305926e-001
2.881177e+003,1.268129e-001
2.883105e+003,1.232397e-001
2.885034e+003,1.208278e-001
2.886962e+003,1.195244e-001
2.888891e+003,1.193409e-001
2.890819e+003,1.208681e-001
2.892748e+003,1.248423e-001
2.894676e+003,1.318462e-001
2.896605e+003,1.420559e-001
2.898533e+003,1.549276e-001
2.900462e+003,1.694328e-001
2.902390e+003,1.846856e-001
2.904319e+003,1.994516e-001
2.906247e+003,2.123729e-001
2.908176e+003,2.238655e-001
2.910104e+003,2.375844e-001
2.912033e+003,2.580705e-001
2.913961e+003,2.835139e-001
2.915890e+003,3.024855e-001
2.917818e+003,3.028985e-001
2.919747e+003,2.859414e-001
2.921675e+003,2.627948e-001
2.923604e+003,2.401962e-001
2.925532e+003,2.174863e-001
2.927461e+003,1.927180e-001
2.929389e+003,1.669379e-001
2.931318e+003,1.434015e-001
2.933246e+003,1.247881e-001
2.935175e+003,1.125918e-001
2.937103e+003,1.075921e-001
2.939032e+003,1.108090e-001
2.940960e+003,1.239786e-001
2.942889e+003,1.482356e-001
2.944817e+003,1.810284e-001
2.946746e+003,2.139830e-001
2.948674e+003,2.345313e-001
2.950603e+003,2.330361e-001
2.952531e+003,2.139601e-001
2.954460e+003,1.927398e-001
2.956388e+003,1.811189e-001
2.958317e+003,1.789564e-001
2.960245e+003,1.764117e-001
2.962174e+003,1.631382e-001
2.964102e+003,1.402434e-001
2.966031e+003,1.158975e-001
2.967959e+003,9.397078e-002
2.969888e+003,7.460496e-002
2.971816e+003,5.811182e-002
2.973745e+003,4.476967e-002
2.975673e+003,3.447361e-002
2.977602e+003,2.669745e-002
2.979530e+003,2.082327e-002
2.981459e+003,1.635734e-002
2.983387e+003,1.293870e-002
2.985316e+003,1.021805e-002
2.987244e+003,8.110190e-003
2.989173e+003,6.515926e-003
2.991101e+003,5.225519e-003
2.993030e+003,4.213519e-003
2.994958e+003,3.458314e-003
2.996887e+003,2.804521e-003
2.998815e+003,2.221921e-003
3.000744e+003,1.751523e-003
3.002672e+003,1.389356e-003
3.004601e+003,1.134707e-003
3.006529e+003,9.192526e-004
3.008458e+003,7.202998e-004
3.010386e+003,5.744286e-004
3.012315e+003,4.788600e-004
3.014243e+003,3.586281e-004
3.016172e+003,1.351237e-004
3.018100e+003,1.538545e-006
3.020029e+003,-1.228042e-005
3.021957e+003,-5.789660e-005
3.023886e+003,-9.475276e-005
3.025814e+003,-1.270436e-004
3.027743e+003,-2.280734e-004
3.029671e+003,-2.296809e-004
3.031600e+003,-1.287032e-004
3.033528e+003,-1.701750e-004
3.035457e+003,-2.322979e-004
3.037385e+003,-3.088135e-004
3.039314e+003,-3.040154e-004
3.041242e+003,-2.774596e-004
3.043171e+003,-2.177563e-004
3.045099e+003,-1.473371e-004
3.047028e+003,-2.785027e-005
3.048956e+003,6.790459e-005
3.050885e+003,4.332699e-005
3.052813e+003,7.586926e-005
3.054742e+003,1.983847e-004
3.056670e+003,3.506169e-004
3.058599e+003,3.107674e-004
3.060527e+003,2.544560e-004
3.062456e+003,2.937559e-004
3.064384e+003,3.915224e-004
3.066313e+003,4.038997e-004
3.068241e+003,3.349837e-004
3.070170e+003,2.801437e-004
3.072098e+003,2.711862e-004
3.074027e+003,2.977792e-004
3.075955e+003,4.096609e-004
3.077884e+003,4.828293e-004
3.079812e+003,5.950704e-004
3.081741e+003,6.210729e-004
3.083669e+003,5.185083e-004
3.085598e+003,4.229285e-004
3.087526e+003,5.469099e-004
3.089455e+003,6.338321e-004
3.091383e+003,6.616898e-004
3.093312e+003,6.776191e-004
3.095240e+003,8.464977e-004
3.097169e+003,8.675940e-004
3.099097e+003,7.691160e-004
3.101026e+003,7.985905e-004
3.102954e+003,8.601062e-004
3.104883e+003,8.242205e-004
3.106811e+003,8.502901e-004
3.108740e+003,9.188019e-004
3.110668e+003,1.018751e-003
3.112597e+003,1.039684e-003
3.114525e+003,1.148816e-003
3.116454e+003,1.279995e-003
3.118382e+003,1.315724e-003
3.120311e+003,1.318224e-003
3.122239e+003,1.430240e-003
3.124168e+003,1.527857e-003
3.126096e+003,1.561798e-003
3.128025e+003,1.638997e-003
3.129953e+003,1.678988e-003
3.131882e+003,1.767736e-003
3.133810e+003,1.805924e-003
3.135739e+003,1.679074e-003
3.137667e+003,1.769032e-003
3.139596e+003,1.876589e-003
3.141524e+003,1.967199e-003
3.143453e+003,2.100643e-003
3.145381e+003,2.181567e-003
3.147310e+003,2.191044e-003
3.149238e+003,2.121251e-003
3.151167e+003,2.086800e-003
3.153095e+003,2.154924e-003
3.155024e+003,2.193324e-003
3.156952e+003,2.139956e-003
3.158881e+003,2.115380e-003
3.160809e+003,2.153799e-003
3.162738e+003,2.202578e-003
3.164666e+003,2.208941e-003
3.166594e+003,2.233170e-003
3.168523e+003,2.355494e-003
3.170452e+003,2.442304e-003
3.172380e+003,2.496239e-003
3.174309e+003,2.509341e-003
3.176237e+003,2.569083e-003
3.178166e+003,2.718441e-003
3.180094e+003,2.813302e-003
3.182022e+003,2.855912e-003
3.183951e+003,2.937421e-003
3.185880e+003,2.982970e-003
3.187808e+003,2.931356e-003
3.189737e+003,3.014021e-003
3.191665e+003,3.147572e-003
3.193594e+003,3.257178e-003
3.195522e+003,3.274772e-003
3.197450e+003,3.309563e-003
3.199379e+003,3.314137e-003
3.201308e+003,3.214318e-003
3.203236e+003,3.165781e-003
3.205165e+003,3.166661e-003
3.207093e+003,3.142778e-003
3.209021e+003,3.192727e-003
3.210950e+003,3.145341e-003
3.212878e+003,3.104988e-003
3.214807e+003,3.172908e-003
3.216736e+003,3.046766e-003
3.218664e+003,3.010307e-003
3.220593e+003,2.928149e-003
3.222521e+003,2.783775e-003
3.224449e+003,2.740178e-003
3.226378e+003,2.824396e-003
3.228307e+003,2.883364e-003
3.230235e+003,2.865523e-003
3.232164e+003,2.795130e-003
3.234092e+003,2.728719e-003
3.236021e+003,2.826676e-003
3.237949e+003,2.896681e-003
3.239877e+003,2.833053e-003
3.241806e+003,2.870068e-003
3.243735e+003,3.029741e-003
3.245663e+003,3.086995e-003
3.247592e+003,2.937604e-003
3.249520e+003,2.937734e-003
3.251448e+003,3.050383e-003
3.253377e+003,3.139827e-003
3.255305e+003,3.189199e-003
3.257234e+003,3.255013e-003
3.259163e+003,3.247425e-003
3.261091e+003,3.214084e-003
3.263020e+003,3.281899e-003
3.264948e+003,3.494468e-003
3.266876e+003,3.490411e-003
3.268805e+003,3.473442e-003
3.270733e+003,3.661703e-003
3.272662e+003,3.929917e-003
3.274591e+003,3.973644e-003
3.276519e+003,3.832929e-003
3.278448e+003,3.806256e-003
3.280376e+003,3.825299e-003
3.282304e+003,3.940389e-003
3.284233e+003,4.006118e-003
3.286161e+003,3.975533e-003
3.288090e+003,4.027467e-003
3.290019e+003,4.071955e-003
3.291947e+003,4.118841e-003
3.293875e+003,4.164211e-003
3.295804e+003,4.177768e-003
3.297732e+003,4.130401e-003
3.299661e+003,4.129350e-003
3.301589e+003,4.119635e-003
3.303518e+003,4.157901e-003
3.305447e+003,4.140861e-003
3.307375e+003,4.159812e-003
3.309303e+003,4.212782e-003
3.311232e+003,4.137691e-003
3.313160e+003,4.061051e-003
3.315089e+003,3.924191e-003
3.317018e+003,3.876325e-003
3.318946e+003,3.868371e-003
3.320875e+003,3.800072e-003
3.322803e+003,3.818836e-003
3.324731e+003,3.918715e-003
3.326660e+003,3.953069e-003
3.328588e+003,3.878731e-003
3.330517e+003,3.909908e-003
3.332446e+003,4.033860e-003
3.334374e+003,4.109289e-003
3.336302e+003,4.066616e-003
3.338231e+003,3.949597e-003
3.340159e+003,3.859840e-003
3.342088e+003,3.871508e-003
3.344016e+003,3.889333e-003
3.345945e+003,3.901355e-003
3.347874e+003,3.830578e-003
3.349802e+003,3.775217e-003
3.351730e+003,3.787514e-003
3.353659e+003,3.813963e-003
3.355587e+003,3.880855e-003
3.357516e+003,3.848322e-003
3.359444e+003,3.783163e-003
3.361373e+003,3.790092e-003
3.363302e+003,3.737859e-003
3.365230e+003,3.646865e-003
3.367158e+003,3.621053e-003
3.369087e+003,3.611945e-003
3.371015e+003,3.532629e-003
3.372944e+003,3.402058e-003
3.374872e+003,3.301065e-003
3.376801e+003,3.242224e-003
3.378729e+003,3.222834e-003
3.380658e+003,3.203295e-003
3.382586e+003,3.189940e-003
3.384515e+003,3.216624e-003
3.386443e+003,3.101788e-003
3.388372e+003,3.035214e-003
3.390300e+003,3.071517e-003
3.392229e+003,3.283083e-003
3.394157e+003,3.223740e-003
3.396086e+003,3.040984e-003
3.398014e+003,3.064517e-003
3.399943e+003,2.952565e-003
3.401871e+003,2.887681e-003
3.403800e+003,2.786726e-003
3.405728e+003,2.551582e-003
3.407657e+003,2.511140e-003
3.409585e+003,2.610900e-003
3.411514e+003,2.642110e-003
3.413442e+003,2.658259e-003
3.415371e+003,2.687655e-003
3.417299e+003,2.634596e-003
3.419228e+003,2.708994e-003
3.421156e+003,2.813593e-003
3.423085e+003,2.637357e-003
3.425013e+003,2.394926e-003
3.426942e+003,2.393484e-003
3.428870e+003,2.486199e-003
3.430799e+003,2.532490e-003
3.432727e+003,2.428524e-003
3.434656e+003,2.256621e-003
3.436584e+003,2.204716e-003
3.438513e+003,2.240043e-003
3.440441e+003,2.228517e-003
3.442370e+003,2.362411e-003
3.444298e+003,2.264641e-003
3.446227e+003,2.410062e-003
3.448155e+003,2.390258e-003
3.450084e+003,1.871496e-003
3.452012e+003,1.730897e-003
3.453941e+003,1.745053e-003
3.455869e+003,1.724105e-003
3.457798e+003,1.788195e-003
3.459726e+003,1.767941e-003
3.461655e+003,1.926344e-003
3.463583e+003,1.748774e-003
3.465512e+003,1.606345e-003
3.467440e+003,1.783974e-003
3.469369e+003,1.559701e-003
3.471297e+003,1.394395e-003
3.473226e+003,1.450274e-003
3.475154e+003,1.578458e-003
3.477083e+003,1.482919e-003
3.479011e+003,1.410916e-003
3.480940e+003,1.614250e-003
3.482868e+003,1.530156e-003
3.484797e+003,1.190025e-003
3.486725e+003,1.414262e-003
3.488654e+003,1.531150e-003
3.490582e+003,1.218181e-003
3.492511e+003,9.966120e-004
3.494439e+003,1.015615e-003
3.496368e+003,1.086056e-003
3.498296e+003,1.105472e-003
3.500225e+003,1.350574e-003
3.502153e+003,1.946703e-003
3.504082e+003,1.980558e-003
3.506010e+003,1.203205e-003
3.507939e+003,1.188871e-003
3.509867e+003,1.497414e-003
3.511796e+003,1.082733e-003
3.513724e+003,7.371455e-004
3.515653e+003,6.252155e-004
3.517581e+003,8.602813e-004
3.519510e+003,9.328164e-004
3.521438e+003,1.055911e-003
3.523367e+003,1.707647e-003
3.525295e+003,1.532365e-003
3.527224e+003,1.396921e-003
3.529152e+003,1.394413e-003
3.531081e+003,9.436607e-004
3.533009e+003,3.716238e-004
3.534938e+003,5.460531e-004
3.536866e+003,9.147972e-004
3.538795e+003,4.977584e-004
3.540723e+003,3.081411e-004
3.542652e+003,7.036403e-004
3.544580e+003,1.340009e-003
3.546509e+003,1.691692e-003
3.548437e+003,1.023695e-003
3.550366e+003,3.853850e-004
3.552294e+003,8.919165e-004
3.554223e+003,4.687645e-004
3.556151e+003,-1.494363e-004
3.558080e+003,-5.711615e-005
3.560008e+003,3.988706e-004
3.561937e+003,5.519651e-004
3.563865e+003,7.762909e-004
3.565794e+003,2.170634e-003
3.567722e+003,2.916515e-003
3.569651e+003,8.314848e-004
3.571579e+003,-3.921762e-004
3.573508e+003,-3.731251e-004
3.575436e+003,-2.193637e-004
3.577365e+003,-3.107041e-004
3.579293e+003,-3.298596e-004
3.581222e+003,-3.421083e-004
3.583150e+003,-3.992505e-004
3.585079e+003,-2.318509e-004
3.587007e+003,1.551770e-003
3.588936e+003,1.423404e-003
3.590864e+003,-3.132075e-004
3.592793e+003,-3.679581e-004
3.594721e+003,7.454455e-004
3.596650e+003,7.401444e-004
3.598578e+003,4.059821e-004
3.600507e+003,6.118901e-004
3.602435e+003,2.390295e-004
3.604364e+003,-5.674586e-004
3.606292e+003,-1.262464e-004
3.608221e+003,1.431108e-003
3.610149e+003,6.983727e-004
3.612078e+003,4.217699e-004
3.614006e+003,1.486983e-003
3.615935e+003,3.778934e-004
3.617863e+003,5.858429e-004
3.619792e+003,1.967926e-003
3.621720e+003,4.875585e-004
3.623649e+003,-5.842857e-004
3.625577e+003,-5.757622e-004
3.627506e+003,5.400106e-004
3.629434e+003,3.484622e-003
3.631363e+003,6.682947e-004
3.633291e+003,-5.772635e-004
3.635220e+003,-5.255602e-004
3.637148e+003,-1.029938e-003
3.639077e+003,-9.720214e-004
3.641005e+003,-7.278547e-004
3.642934e+003,-5.899705e-004
3.644862e+003,-8.122548e-004
3.646791e+003,1.145892e-003
3.648719e+003,3.879901e-003
3.650648e+003,3.983025e-003
3.652576e+003,1.112852e-003
3.654505e+003,-4.670694e-004
3.656433e+003,9.312406e-004
3.658362e+003,2.775714e-005
3.660290e+003,-1.134876e-003
3.662219e+003,-1.349788e-003
3.664147e+003,-1.218233e-003
3.666076e+003,-1.105934e-003
3.668004e+003,-6.965213e-004
3.669933e+003,2.647620e-003
3.671861e+003,1.294062e-003
3.673790e+003,-7.230900e-004
3.675718e+003,3.965661e-003
3.677647e+003,2.212461e-003
3.679575e+003,2.815202e-004
3.681504e+003,-2.678633e-004
3.683432e+003,-4.593395e-004
3.685361e+003,-5.136617e-004
3.687289e+003,3.517158e-004
3.689218e+003,3.105581e-003
3.691146e+003,2.486710e-003
3.693075e+003,4.287511e-004
3.695003e+003,-7.082857e-004
3.696932e+003,-8.464865e-004
3.698860e+003,-1.250140e-003
3.700789e+003,-2.360195e-004
3.702717e+003,7.809326e-004
3.704646e+003,-2.277493e-004
3.706574e+003,-7.532500e-004
3.708503e+003,1.121312e-006
3.710431e+003,1.763679e-003
3.712360e+003,2.549235e-003
3.714288e+003,1.162685e-003
3.716217e+003,-1.321472e-004
3.718145e+003,2.764873e-004
3.720074e+003,6.414205e-004
3.722002e+003,1.374234e-003
3.723931e+003,1.433294e-003
3.725859e+003,1.736961e-003
3.727788e+003,1.302138e-003
3.729716e+003,-1.019873e-004
3.731645e+003,1.284316e-003
3.733573e+003,3.424559e-003
3.735502e+003,4.716024e-003
3.737430e+003,3.203481e-003
3.739359e+003,2.168536e-003
3.741287e+003,1.502782e-003
3.743216e+003,1.033612e-003
3.745144e+003,4.564088e-003
3.747073e+003,3.144544e-003
3.749001e+003,3.022525e-003
3.750930e+003,5.302697e-003
3.752858e+003,3.955796e-003
3.754787e+003,1.862176e-003
3.756715e+003,1.047034e-003
3.758644e+003,1.584392e-003
3.760572e+003,1.799382e-003
3.762501e+003,1.887083e-004
3.764429e+003,1.939610e-004
3.766358e+003,9.866059e-004
3.768286e+003,2.669245e-004
3.770215e+003,1.407683e-003
3.772143e+003,6.215423e-004
3.774072e+003,-3.935173e-004
3.776000e+003,-4.174262e-004
3.777929e+003,1.112893e-004
3.779857e+003,1.499772e-003
3.781786e+003,5.945340e-004
3.783714e+003,4.589707e-004
3.785643e+003,1.015354e-003
3.787571e+003,9.740889e-005
3.789500e+003,-3.247708e-004
3.791428e+003,-2.085790e-005
3.793357e+003,-4.957952e-004
3.795285e+003,7.161498e-005
3.797214e+003,2.103530e-003
3.799142e+003,7.006302e-004
3.801071e+003,2.517845e-003
3.802999e+003,3.573399e-003
3.804927e+003,6.657615e-004
3.806856e+003,1.914006e-003
3.808785e+003,1.498234e-003
3.810713e+003,1.808256e-005
3.812642e+003,-3.618374e-004
3.814570e+003,1.252480e-004
3.816499e+003,2.974443e-003
3.818427e+003,1.463290e-003
3.820355e+003,2.522562e-003
3.822284e+003,3.987059e-003
3.824213e+003,8.234680e-004
3.826141e+003,9.805970e-004
3.828070e+003,1.204379e-003
3.829998e+003,2.012886e-004
3.831927e+003,1.326919e-003
3.833855e+003,1.917660e-003
3.835783e+003,1.801390e-003
3.837712e+003,2.851091e-003
3.839641e+003,3.605690e-003
3.841569e+003,1.927327e-003
3.843498e+003,1.375828e-003
3.845426e+003,8.278601e-004
3.847354e+003,2.109036e-004
3.849283e+003,7.635392e-004
3.851211e+003,1.644745e-003
3.853140e+003,5.138669e-003
3.855069e+003,4.100032e-003
3.856997e+003,1.778036e-003
3.858926e+003,3.573149e-004
3.860854e+003,5.216897e-004
3.862782e+003,1.537923e-003
3.864711e+003,2.948385e-003
3.866640e+003,1.325641e-003
3.868568e+003,9.693839e-004
3.870497e+003,4.038353e-003
3.872425e+003,1.718476e-003
3.874354e+003,1.955099e-003
3.876282e+003,1.295343e-003
3.878210e+003,-3.150962e-004
3.880139e+003,2.230857e-003
3.882068e+003,2.664238e-003
3.883996e+003,8.952469e-004
3.885925e+003,2.365597e-003
3.887853e+003,8.990020e-004
3.889781e+003,-1.063757e-004
3.891710e+003,2.215713e-003
3.893638e+003,1.633186e-003
3.895567e+003,2.312623e-004
3.897496e+003,7.035062e-004
3.899424e+003,2.678137e-003
3.901353e+003,2.987720e-003
3.903281e+003,3.179964e-003
3.905209e+003,3.008656e-003
3.907138e+003,9.471104e-004
3.909066e+003,-3.244951e-004
3.910995e+003,-6.536022e-005
3.912924e+003,1.551174e-004
3.914852e+003,2.811328e-004
3.916781e+003,1.228735e-003
3.918709e+003,1.274221e-003
3.920637e+003,6.723627e-004
3.922566e+003,3.990158e-004
3.924494e+003,1.453351e-003
3.926423e+003,1.026768e-003
3.928352e+003,3.904253e-004
3.930280e+003,1.248412e-003
3.932208e+003,1.878858e-003
3.934137e+003,9.186901e-004
3.936065e+003,-1.832023e-004
3.937994e+003,-9.052455e-006
3.939922e+003,-2.961606e-006
3.941851e+003,5.919002e-004
3.943780e+003,1.097061e-003
3.945708e+003,3.074184e-004
3.947636e+003,6.569400e-004
3.949565e+003,1.056693e-003
3.951493e+003,4.353151e-004
3.953422e+003,3.501400e-005
3.955351e+003,1.127422e-004
3.957279e+003,2.095066e-004
3.959208e+003,1.602732e-004
3.961136e+003,3.411397e-004
3.963064e+003,2.191886e-004
3.964993e+003,-3.777966e-004
3.966921e+003,-3.297217e-004
3.968850e+003,1.065619e-004
3.970779e+003,1.755618e-004
3.972707e+003,1.312457e-004
3.974635e+003,3.225468e-004
3.976564e+003,2.759472e-004
3.978492e+003,-1.067333e-004
3.980421e+003,-1.464151e-004
3.982349e+003,-5.733967e-005
3.984278e+003,-8.784235e-005
3.986207e+003,-1.367889e-004
3.988135e+003,-5.206466e-005
3.990063e+003,1.462139e-004
3.991992e+003,3.991649e-005
3.993920e+003,-2.251938e-005
3.995849e+003,-9.886548e-005
3.997777e+003,-2.051666e-004
3.999706e+003,-1.372322e-004
4.001635e+003,0.000000e+000
