3.991992e+002,0.000000e+000
4.011277e+002,0.000000e+000
4.030562e+002,0.000000e+000
4.049846e+002,0.000000e+000
4.069131e+002,0.000000e+000
4.088416e+002,0.000000e+000
4.107701e+002,0.000000e+000
4.126986e+002,0.000000e+000
4.146271e+002,0.000000e+000
4.165556e+002,0.000000e+000
4.184841e+002,0.000000e+000
4.204126e+002,0.000000e+000
4.223411e+002,0.000000e+000
4.242697e+002,0.000000e+000
4.261982e+002,0.000000e+000
4.281266e+002,0.000000e+000
4.300551e+002,0.000000e+000
4.319836e+002,0.000000e+000
4.339121e+002,0.000000e+000
4.358406e+002,0.000000e+000
4.377691e+002,0.000000e+000
4.396976e+002,0.000000e+000
4.416261e+002,0.000000e+000
4.435546e+002,0.000000e+000
4.454831e+002,0.000000e+000
4.474116e+002,0.000000e+000
4.493401e+002,0.000000e+000
4.512686e+002,0.000000e+000
4.531971e+002,0.000000e+000
4.551256e+002,0.000000e+000
4.570541e+002,0.000000e+000
4.589826e+002,0.000000e+000
4.609111e+002,0.000000e+000
4.628396e+002,0.000000e+000
4.647681e+002,0.000000e+000
4.666966e+002,0.000000e+000
4.686251e+002,0.000000e+000
4.705536e+002,0.000000e+000
4.724821e+002,0.000000e+000
4.744106e+002,0.000000e+000
4.763391e+002,0.000000e+000
4.782676e+002,0.000000e+000
4.801961e+002,0.000000e+000
4.821246e+002,0.000000e+000
4.840531e+002,0.000000e+000
4.859816e+002,0.000000e+000
4.879101e+002,0.000000e+000
4.898386e+002,0.000000e+000
4.917671e+002,0.000000e+000
4.936956e+002,0.000000e+000
4.956241e+002,0.000000e+000
4.975526e+002,0.000000e+000
4.994811e+002,0.000000e+000
5.014096e+002,0.000000e+000
5.033381e+002,0.000000e+000
5.052666e+002,0.000000e+000
5.071951e+002,0.000000e+000
5.091236e+002,0.000000e+000
5.110521e+002,0.000000e+000
5.129806e+002,0.000000e+000
5.149091e+002,0.000000e+000
5.168376e+002,0.000000e+000
5.187661e+002,0.000000e+000
5.206946e+002,0.000000e+000
5.226230e+002,0.000000e+000
5.245516e+002,-1.993962e-006
5.264800e+002,-9.216368e-005
5.284086e+002,-1.474172e-004
5.303370e+002,1.799036e-005
5.322656e+002,4.960038e-005
5.341940e+002,-2.368521e-004
5.361226e+002,-5.171513e-004
5.380510e+002,-4.078476e-004
5.399796e+002,-3.835075e-004
5.419081e+002,-4.814118e-004
5.438365e+002,-6.924700e-004
5.457650e+002,-7.841811e-004
5.476935e+002,-7.772129e-004
5.496221e+002,-6.844010e-004
5.515505e+002,-7.168595e-004
5.534790e+002,-6.418042e-004
5.554075e+002,-5.881535e-004
5.573361e+002,-5.310904e-004
5.592645e+002,-6.361185e-004
5.611931e+002,-7.476900e-004
5.631215e+002,-7.119225e-004
5.650500e+002,-6.208923e-004
5.669785e+002,-5.360655e-004
5.689070e+002,-3.020447e-004
5.708355e+002,-2.277214e-004
5.727640e+002,1.595728e-005
5.746925e+002,1.280177e-004
5.766210e+002,2.343971e-004
5.785495e+002,2.783863e-004
5.804780e+002,3.450615e-004
5.824065e+002,3.082817e-004
5.843350e+002,3.059991e-004
5.862635e+002,3.816467e-004
5.881920e+002,4.893802e-004
5.901205e+002,4.378222e-004
5.920490e+002,3.874181e-004
5.939775e+002,3.754022e-004
5.959060e+002,4.468542e-004
5.978345e+002,4.221341e-004
5.997630e+002,4.495708e-004
6.016915e+002,5.180892e-004
6.036200e+002,5.662497e-004
6.055485e+002,5.342150e-004
6.074770e+002,4.434139e-004
6.094055e+002,3.463160e-004
6.113340e+002,3.386531e-004
6.132625e+002,2.026036e-004
6.151910e+002,5.996320e-005
6.171195e+002,-1.840759e-005
6.190480e+002,1.833029e-005
6.209765e+002,5.130842e-005
6.229050e+002,1.319945e-004
6.248335e+002,1.250813e-004
6.267620e+002,2.112994e-004
6.286905e+002,2.470501e-004
6.306190e+002,2.563959e-004
6.325475e+002,3.098007e-004
6.344760e+002,3.816271e-004
6.364045e+002,4.117293e-004
6.383330e+002,5.703140e-004
6.402615e+002,6.247628e-004
6.421899e+002,7.141596e-004
6.441185e+002,7.942626e-004
6.460470e+002,9.365585e-004
6.479755e+002,9.169802e-004
6.499039e+002,8.517485e-004
6.518325e+002,7.941127e-004
6.537610e+002,8.608578e-004
6.556895e+002,9.478200e-004
6.576179e+002,1.078082e-003
6.595464e+002,1.204814e-003
6.614750e+002,1.370918e-003
6.634034e+002,1.416378e-003
6.653319e+002,1.499505e-003
6.672604e+002,1.539696e-003
6.691890e+002,1.843719e-003
6.711174e+002,2.102794e-003
6.730460e+002,2.236968e-003
6.749745e+002,2.401037e-003
6.769030e+002,2.663954e-003
6.788314e+002,2.879242e-003
6.807599e+002,3.223334e-003
6.826885e+002,3.475001e-003
6.846169e+002,3.640255e-003
6.865454e+002,3.933639e-003
6.884739e+002,4.440576e-003
6.904025e+002,4.777013e-003
6.923309e+002,5.084436e-003
6.942594e+002,5.419090e-003
6.961879e+002,5.779505e-003
6.981165e+002,5.967030e-003
7.000449e+002,6.127080e-003
7.019734e+002,6.211653e-003
7.039019e+002,6.390226e-003
7.058304e+002,6.687075e-003
7.077589e+002,7.179572e-003
7.096874e+002,7.711986e-003
7.116159e+002,8.335767e-003
7.135444e+002,9.016789e-003
7.154729e+002,9.825427e-003
7.174014e+002,1.086482e-002
7.193299e+002,1.219727e-002
7.212584e+002,1.319955e-002
7.231869e+002,1.340042e-002
7.251154e+002,1.281529e-002
7.270439e+002,1.189871e-002
7.289724e+002,1.085447e-002
7.309009e+002,9.896589e-003
7.328294e+002,8.984236e-003
7.347579e+002,8.154567e-003
7.366864e+002,7.347580e-003
7.386149e+002,6.664160e-003
7.405434e+002,6.023377e-003
7.424719e+002,5.480329e-003
7.444004e+002,4.923329e-003
7.463289e+002,4.448562e-003
7.482574e+002,4.003078e-003
7.501859e+002,3.753539e-003
7.521144e+002,3.451016e-003
7.540428e+002,3.286278e-003
7.559714e+002,3.147136e-003
7.578999e+002,3.055475e-003
7.598284e+002,2.951810e-003
7.617568e+002,2.975113e-003
7.636854e+002,2.982982e-003
7.656139e+002,2.972972e-003
7.675424e+002,2.826548e-003
7.694709e+002,2.725034e-003
7.713994e+002,2.615976e-003
7.733279e+002,2.522409e-003
7.752563e+002,2.373641e-003
7.771849e+002,2.247678e-003
7.791134e+002,2.158456e-003
7.810419e+002,2.268344e-003
7.829703e+002,2.374511e-003
7.848989e+002,2.545978e-003
7.868274e+002,2.721524e-003
7.887559e+002,3.027941e-003
7.906843e+002,3.322438e-003
7.926129e+002,3.633179e-003
7.945414e+002,3.926452e-003
7.964698e+002,4.306755e-003
7.983983e+002,4.718686e-003
8.003268e+002,5.385564e-003
8.022554e+002,6.365685e-003
8.041838e+002,8.107454e-003
8.061123e+002,1.070117e-002
8.080408e+002,1.301740e-002
8.099694e+002,1.302008e-002
8.118978e+002,1.083795e-002
8.138263e+002,8.314818e-003
8.157548e+002,6.802201e-003
8.176833e+002,6.039939e-003
8.196118e+002,5.777720e-003
8.215403e+002,5.685339e-003
8.234689e+002,5.750118e-003
8.253973e+002,5.918741e-003
8.273258e+002,6.383426e-003
8.292543e+002,6.877776e-003
8.311829e+002,7.528079e-003
8.331113e+002,8.463046e-003
8.350398e+002,1.027668e-002
8.369683e+002,1.492518e-002
8.388969e+002,2.534109e-002
8.408253e+002,3.192621e-002
8.427538e+002,2.430904e-002
8.446823e+002,1.472562e-002
8.466108e+002,1.044152e-002
8.485393e+002,8.680176e-003
8.504678e+002,7.853776e-003
8.523963e+002,7.407420e-003
8.543248e+002,7.129868e-003
8.562533e+002,6.843567e-003
8.581818e+002,6.651110e-003
8.601103e+002,6.380945e-003
8.620388e+002,6.215981e-003
8.639673e+002,6.163121e-003
8.658958e+002,6.146816e-003
8.678243e+002,6.024325e-003
8.697528e+002,5.964210e-003
8.716813e+002,6.001160e-003
8.736098e+002,6.077151e-003
8.755383e+002,5.983615e-003
8.774668e+002,5.862940e-003
8.793953e+002,5.741093e-003
8.813238e+002,5.798154e-003
8.832523e+002,5.895801e-003
8.851808e+002,6.177196e-003
8.871093e+002,6.411944e-003
8.890378e+002,6.707296e-003
8.909663e+002,7.143359e-003
8.928948e+002,8.047820e-003
8.948232e+002,9.839224e-003
8.967518e+002,1.244600e-002
8.986803e+002,1.407270e-002
9.006088e+002,1.316963e-002
9.025372e+002,1.054564e-002
9.044658e+002,8.272774e-003
9.063943e+002,6.918190e-003
9.083228e+002,6.363723e-003
9.102512e+002,6.136961e-003
9.121797e+002,6.008176e-003
9.141083e+002,5.879425e-003
9.160367e+002,5.804765e-003
9.179653e+002,5.666220e-003
9.198937e+002,5.699569e-003
9.218223e+002,5.784588e-003
9.237507e+002,5.898105e-003
9.256793e+002,5.897334e-003
9.276077e+002,6.015854e-003
9.295363e+002,6.187757e-003
9.314647e+002,6.561654e-003
9.333932e+002,6.967976e-003
9.353217e+002,7.641711e-003
9.372502e+002,8.647472e-003
9.391787e+002,9.615924e-003
9.411072e+002,9.870818e-003
9.430358e+002,9.629620e-003
9.449642e+002,9.342581e-003
9.468928e+002,9.390291e-003
9.488212e+002,9.614876e-003
9.507498e+002,9.980204e-003
9.526782e+002,1.045287e-002
9.546068e+002,1.116041e-002
9.565352e+002,1.197550e-002
9.584637e+002,1.295662e-002
9.603922e+002,1.405215e-002
9.623207e+002,1.543952e-002
9.642492e+002,1.733019e-002
9.661777e+002,2.061886e-002
9.681062e+002,2.694083e-002
9.700347e+002,3.722019e-002
9.719632e+002,4.525702e-002
9.738917e+002,4.297766e-002
9.758202e+002,3.408618e-002
9.777487e+002,2.580227e-002
9.796772e+002,2.014932e-002
9.816057e+002,1.692968e-002
9.835342e+002,1.536911e-002
9.854627e+002,1.497575e-002
9.873912e+002,1.536088e-002
9.893197e+002,1.673879e-002
9.912482e+002,1.962442e-002
9.931767e+002,2.517669e-002
9.951052e+002,3.382700e-002
9.970337e+002,4.070611e-002
9.989622e+002,3.822070e-002
1.000891e+003,2.938034e-002
1.002819e+003,2.206401e-002
1.004748e+003,1.814304e-002
1.006676e+003,1.612580e-002
1.008605e+003,1.509422e-002
1.010533e+003,1.452167e-002
1.012462e+003,1.424573e-002
1.014390e+003,1.414072e-002
1.016319e+003,1.417810e-002
1.018247e+003,1.421856e-002
1.020176e+003,1.432761e-002
1.022104e+003,1.442011e-002
1.024033e+003,1.459862e-002
1.025961e+003,1.476797e-002
1.027890e+003,1.501511e-002
1.029818e+003,1.519031e-002
1.031747e+003,1.545367e-002
1.033675e+003,1.569739e-002
1.035604e+003,1.590873e-002
1.037532e+003,1.601066e-002
1.039461e+003,1.626801e-002
1.041389e+003,1.678922e-002
1.043318e+003,1.754698e-002
1.045246e+003,1.779974e-002
1.047175e+003,1.748884e-002
1.049103e+003,1.712518e-002
1.051032e+003,1.707375e-002
1.052960e+003,1.721080e-002
1.054889e+003,1.747224e-002
1.056817e+003,1.765839e-002
1.058746e+003,1.791806e-002
1.060674e+003,1.813845e-002
1.062603e+003,1.835864e-002
1.064531e+003,1.852304e-002
1.066460e+003,1.876800e-002
1.068388e+003,1.903475e-002
1.070317e+003,1.940184e-002
1.072245e+003,1.995100e-002
1.074174e+003,2.092432e-002
1.076102e+003,2.222091e-002
1.078031e+003,2.392883e-002
1.079959e+003,2.574449e-002
1.081888e+003,2.736741e-002
1.083816e+003,2.849594e-002
1.085745e+003,2.954339e-002
1.087673e+003,3.075619e-002
1.089602e+003,3.229215e-002
1.091530e+003,3.379935e-002
1.093459e+003,3.522480e-002
1.095387e+003,3.628866e-002
1.097316e+003,3.716889e-002
1.099244e+003,3.782612e-002
1.101173e+003,3.820889e-002
1.103101e+003,3.769557e-002
1.105030e+003,3.638703e-002
1.106958e+003,3.507227e-002
1.108887e+003,3.462856e-002
1.110815e+003,3.490224e-002
1.112744e+003,3.574486e-002
1.114672e+003,3.669811e-002
1.116601e+003,3.750177e-002
1.118529e+003,3.766074e-002
1.120458e+003,3.703576e-002
1.122386e+003,3.562675e-002
1.124315e+003,3.398015e-002
1.126243e+003,3.258760e-002
1.128172e+003,3.212423e-002
1.130100e+003,3.285046e-002
1.132029e+003,3.489074e-002
1.133957e+003,3.792517e-002
1.135885e+003,4.172447e-002
1.137814e+003,4.575919e-002
1.139743e+003,4.967035e-002
1.141671e+003,5.307258e-002
1.143600e+003,5.600931e-002
1.145528e+003,5.866810e-002
1.147457e+003,6.164189e-002
1.149385e+003,6.485154e-002
1.151314e+003,6.807710e-002
1.153242e+003,7.064057e-002
1.155171e+003,7.285909e-002
1.157099e+003,7.517777e-002
1.159028e+003,7.794692e-002
1.160956e+003,8.109792e-002
1.162885e+003,8.504330e-002
1.164813e+003,8.921465e-002
1.166742e+003,9.127485e-002
1.168670e+003,8.729593e-002
1.170599e+003,7.816389e-002
1.172527e+003,6.871939e-002
1.174456e+003,6.172580e-002
1.176384e+003,5.676676e-002
1.178313e+003,5.324357e-002
1.180241e+003,5.045837e-002
1.182170e+003,4.821438e-002
1.184098e+003,4.620556e-002
1.186027e+003,4.452145e-002
1.187955e+003,4.293495e-002
1.189884e+003,4.151870e-002
1.191812e+003,4.001974e-002
1.193740e+003,3.855028e-002
1.195669e+003,3.706437e-002
1.197598e+003,3.578562e-002
1.199526e+003,3.467389e-002
1.201455e+003,3.383481e-002
1.203383e+003,3.319120e-002
1.205312e+003,3.287536e-002
1.207240e+003,3.270213e-002
1.209168e+003,3.268322e-002
1.211097e+003,3.262337e-002
1.213026e+003,3.275314e-002
1.214954e+003,3.299118e-002
1.216883e+003,3.343911e-002
1.218811e+003,3.381155e-002
1.220740e+003,3.404956e-002
1.222668e+003,3.401689e-002
1.224596e+003,3.418355e-002
1.226525e+003,3.451822e-002
1.228453e+003,3.504175e-002
1.230382e+003,3.557724e-002
1.232311e+003,3.619289e-002
1.234239e+003,3.667700e-002
1.236167e+003,3.714984e-002
1.238096e+003,3.738648e-002
1.240025e+003,3.750335e-002
1.241953e+003,3.728557e-002
1.243882e+003,3.685288e-002
1.245810e+003,3.610314e-002
1.247739e+003,3.531971e-002
1.249667e+003,3.465293e-002
1.251595e+003,3.481383e-002
1.253524e+003,3.580583e-002
1.255453e+003,3.610852e-002
1.257381e+003,3.428315e-002
1.259310e+003,3.192770e-002
1.261238e+003,3.006699e-002
1.263167e+003,2.888952e-002
1.265095e+003,2.792654e-002
1.267023e+003,2.721304e-002
1.268952e+003,2.659411e-002
1.270880e+003,2.619817e-002
1.272809e+003,2.595761e-002
1.274738e+003,2.603137e-002
1.276666e+003,2.609913e-002
1.278594e+003,2.612745e-002
1.280523e+003,2.587388e-002
1.282451e+003,2.539328e-002
1.284380e+003,2.469592e-002
1.286308e+003,2.417331e-002
1.288237e+003,2.388600e-002
1.290166e+003,2.421207e-002
1.292094e+003,2.490039e-002
1.294022e+003,2.576728e-002
1.295951e+003,2.613378e-002
1.297879e+003,2.615982e-002
1.299808e+003,2.635311e-002
1.301736e+003,2.768528e-002
1.303665e+003,2.916402e-002
1.305594e+003,2.810998e-002
1.307522e+003,2.488985e-002
1.309450e+003,2.281704e-002
1.311379e+003,2.198822e-002
1.313307e+003,2.186726e-002
1.315236e+003,2.182264e-002
1.317164e+003,2.206635e-002
1.319093e+003,2.221498e-002
1.321021e+003,2.249151e-002
1.322950e+003,2.278441e-002
1.324878e+003,2.347048e-002
1.326807e+003,2.381097e-002
1.328735e+003,2.401236e-002
1.330664e+003,2.351831e-002
1.332592e+003,2.279065e-002
1.334521e+003,2.223468e-002
1.336449e+003,2.245057e-002
1.338378e+003,2.296586e-002
1.340306e+003,2.417516e-002
1.342235e+003,2.513627e-002
1.344163e+003,2.652280e-002
1.346092e+003,2.815119e-002
1.348021e+003,3.054213e-002
1.349949e+003,3.335851e-002
1.351877e+003,3.754725e-002
1.353806e+003,4.338302e-002
1.355734e+003,5.179106e-002
1.357663e+003,5.813855e-002
1.359591e+003,5.900089e-002
1.361520e+003,5.444824e-002
1.363448e+003,5.065643e-002
1.365377e+003,5.030604e-002
1.367305e+003,5.641341e-002
1.369234e+003,7.400565e-002
1.371162e+003,1.073098e-001
1.373091e+003,1.566874e-001
1.375019e+003,2.033395e-001
1.376948e+003,1.853699e-001
1.378876e+003,1.328198e-001
1.380805e+003,8.802046e-002
1.382733e+003,5.880434e-002
1.384662e+003,4.136347e-002
1.386590e+003,3.115038e-002
1.388519e+003,2.518995e-002
1.390447e+003,2.213143e-002
1.392376e+003,2.044751e-002
1.394304e+003,1.910141e-002
1.396233e+003,1.868156e-002
1.398161e+003,1.847933e-002
1.400090e+003,1.868866e-002
1.402018e+003,1.846736e-002
1.403947e+003,1.825500e-002
1.405875e+003,1.766640e-002
1.407804e+003,1.753856e-002
1.409732e+003,1.786274e-002
1.411661e+003,1.903211e-002
1.413589e+003,2.043028e-002
1.415518e+003,2.185187e-002
1.417446e+003,2.272619e-002
1.419375e+003,2.292770e-002
1.421303e+003,2.262772e-002
1.423232e+003,2.268362e-002
1.425160e+003,2.356729e-002
1.427089e+003,2.549816e-002
1.429017e+003,2.938480e-002
1.430946e+003,3.709120e-002
1.432874e+003,4.747077e-002
1.434803e+003,5.620947e-002
1.436731e+003,5.954514e-002
1.438660e+003,6.026727e-002
1.440588e+003,6.413639e-002
1.442517e+003,7.292848e-002
1.444445e+003,8.710536e-002
1.446374e+003,1.047861e-001
1.448302e+003,1.253166e-001
1.450231e+003,1.364519e-001
1.452159e+003,1.423520e-001
1.454088e+003,1.453848e-001
1.456016e+003,1.478681e-001
1.457945e+003,1.457397e-001
1.459873e+003,1.429627e-001
1.461802e+003,1.374915e-001
1.463730e+003,1.291533e-001
1.465659e+003,1.112153e-001
1.467587e+003,9.363933e-002
1.469516e+003,7.506781e-002
1.471444e+003,5.672259e-002
1.473373e+003,3.569550e-002
1.475301e+003,2.758108e-002
1.477230e+003,2.174872e-002
1.479158e+003,1.845253e-002
1.481087e+003,1.550522e-002
1.483015e+003,1.329527e-002
1.484944e+003,1.172707e-002
1.486872e+003,1.079249e-002
1.488801e+003,9.835804e-003
1.490729e+003,9.170750e-003
1.492658e+003,8.401372e-003
1.494586e+003,8.064229e-003
1.496515e+003,7.609235e-003
1.498443e+003,7.295297e-003
1.500372e+003,6.534971e-003
1.502300e+003,5.986914e-003
1.504229e+003,5.333500e-003
1.506157e+003,5.001161e-003
1.508086e+003,5.132187e-003
1.510014e+003,5.251452e-003
1.511943e+003,4.993100e-003
1.513871e+003,4.796019e-003
1.515800e+003,4.520681e-003
1.517728e+003,4.554823e-003
1.519657e+003,4.459068e-003
1.521585e+003,4.436800e-003
1.523514e+003,4.290290e-003
1.525442e+003,4.134895e-003
1.527371e+003,4.160600e-003
1.529299e+003,4.463051e-003
1.531228e+003,4.465245e-003
1.533156e+003,4.711891e-003
1.535085e+003,4.957832e-003
1.537013e+003,5.032532e-003
1.538942e+003,4.970262e-003
1.540870e+003,5.312910e-003
1.542799e+003,4.967177e-003
1.544727e+003,4.861353e-003
1.546656e+003,4.571714e-003
1.548584e+003,4.618695e-003
1.550513e+003,4.369713e-003
1.552441e+003,4.134363e-003
1.554370e+003,3.892919e-003
1.556298e+003,3.836464e-003
1.558227e+003,3.717093e-003
1.560155e+003,3.976801e-003
1.562084e+003,3.694609e-003
1.564012e+003,3.564065e-003
1.565941e+003,3.482228e-003
1.567869e+003,3.524637e-003
1.569798e+003,3.690626e-003
1.571726e+003,3.868744e-003
1.573655e+003,3.831286e-003
1.575583e+003,3.957177e-003
1.577512e+003,4.092356e-003
1.579440e+003,3.927104e-003
1.581369e+003,3.588095e-003
1.583297e+003,3.358996e-003
1.585226e+003,3.177745e-003
1.587154e+003,3.117073e-003
1.589083e+003,3.106991e-003
1.591011e+003,3.104270e-003
1.592940e+003,3.099484e-003
1.594868e+003,3.203340e-003
1.596797e+003,3.271250e-003
1.598725e+003,3.269341e-003
1.600654e+003,3.255581e-003
1.602582e+003,3.290698e-003
1.604511e+003,3.372669e-003
1.606439e+003,3.603047e-003
1.608368e+003,3.719579e-003
1.610296e+003,3.723111e-003
1.612225e+003,3.678398e-003
1.614153e+003,3.697168e-003
1.616082e+003,4.043575e-003
1.618010e+003,4.361909e-003
1.619939e+003,4.213126e-003
1.621867e+003,4.245300e-003
1.623796e+003,4.636141e-003
1.625724e+003,4.925137e-003
1.627653e+003,5.014163e-003
1.629581e+003,5.029151e-003
1.631510e+003,4.996041e-003
1.633438e+003,5.017480e-003
1.635367e+003,5.384484e-003
1.637295e+003,5.860049e-003
1.639224e+003,5.860634e-003
1.641152e+003,5.917689e-003
1.643081e+003,6.211616e-003
1.645009e+003,6.437033e-003
1.646938e+003,7.060308e-003
1.648866e+003,7.326372e-003
1.650795e+003,7.168896e-003
1.652723e+003,7.237973e-003
1.654652e+003,7.957485e-003
1.656580e+003,7.670758e-003
1.658509e+003,7.302424e-003
1.660437e+003,7.000089e-003
1.662366e+003,6.706370e-003
1.664294e+003,6.577147e-003
1.666223e+003,6.455192e-003
1.668151e+003,6.330002e-003
1.670080e+003,6.381737e-003
1.672008e+003,6.315429e-003
1.673937e+003,6.450497e-003
1.675865e+003,6.690733e-003
1.677794e+003,6.680008e-003
1.679722e+003,6.648095e-003
1.681651e+003,6.476911e-003
1.683579e+003,6.532781e-003
1.685508e+003,7.527485e-003
1.687436e+003,7.779229e-003
1.689365e+003,7.987846e-003
1.691293e+003,8.290615e-003
1.693222e+003,8.485479e-003
1.695150e+003,9.082919e-003
1.697079e+003,1.013924e-002
1.699007e+003,1.054321e-002
1.700936e+003,1.151060e-002
1.702864e+003,1.223390e-002
1.704793e+003,1.299595e-002
1.706721e+003,1.422195e-002
1.708650e+003,1.525361e-002
1.710578e+003,1.633403e-002
1.712507e+003,1.757326e-002
1.714435e+003,1.891774e-002
1.716364e+003,2.088063e-002
1.718292e+003,2.434058e-002
1.720221e+003,2.716962e-002
1.722149e+003,2.975440e-002
1.724078e+003,3.390539e-002
1.726006e+003,3.836798e-002
1.727935e+003,4.376354e-002
1.729863e+003,5.155172e-002
1.731792e+003,5.970853e-002
1.733720e+003,7.374006e-002
1.735649e+003,9.374337e-002
1.737577e+003,1.044486e-001
1.739506e+003,1.218800e-001
1.741434e+003,1.369359e-001
1.743363e+003,1.458385e-001
1.745291e+003,1.482700e-001
1.747220e+003,1.440729e-001
1.749148e+003,1.310855e-001
1.751077e+003,1.119630e-001
1.753005e+003,9.140588e-002
1.754934e+003,7.606687e-002
1.756862e+003,5.741158e-002
1.758791e+003,4.309498e-002
1.760719e+003,3.343584e-002
1.762648e+003,2.425631e-002
1.764576e+003,1.880959e-002
1.766505e+003,1.522763e-002
1.768433e+003,1.208299e-002
1.770362e+003,1.045892e-002
1.772290e+003,8.898593e-003
1.774219e+003,7.600483e-003
1.776147e+003,6.543320e-003
1.778076e+003,5.795110e-003
1.780004e+003,5.387586e-003
1.781933e+003,4.969090e-003
1.783861e+003,4.632019e-003
1.785790e+003,4.240291e-003
1.787718e+003,3.784250e-003
1.789646e+003,3.373047e-003
1.791575e+003,3.201732e-003
1.793504e+003,3.024038e-003
1.795432e+003,2.803605e-003
1.797361e+003,2.522247e-003
1.799289e+003,2.298988e-003
1.801218e+003,2.134411e-003
1.803146e+003,1.968807e-003
1.805074e+003,1.802307e-003
1.807003e+003,1.580715e-003
1.808932e+003,1.325672e-003
1.810860e+003,1.093172e-003
1.812789e+003,8.542780e-004
1.814717e+003,5.636141e-004
1.816646e+003,2.184119e-004
1.818574e+003,5.545709e-004
1.820502e+003,8.806698e-004
1.822431e+003,9.851865e-004
1.824360e+003,8.126739e-004
1.826288e+003,5.929098e-004
1.828217e+003,5.619265e-004
1.830145e+003,6.002970e-004
1.832073e+003,5.067810e-004
1.834002e+003,4.418641e-004
1.835931e+003,2.312064e-004
1.837859e+003,1.588836e-004
1.839788e+003,8.532964e-005
1.841716e+003,6.090850e-007
1.843645e+003,3.145076e-005
1.845573e+003,6.712601e-005
1.847501e+003,-8.267350e-005
1.849430e+003,-1.052655e-004
1.851359e+003,-2.311245e-004
1.853287e+003,-3.483258e-004
1.855216e+003,-4.662797e-004
1.857144e+003,-4.174281e-004
1.859073e+003,-3.264435e-004
1.861001e+003,-2.293810e-004
1.862929e+003,-3.637411e-004
1.864858e+003,-2.550445e-004
1.866787e+003,-2.824012e-004
1.868715e+003,-3.783405e-004
1.870644e+003,-6.133988e-004
1.872572e+003,-7.685330e-004
1.874500e+003,-8.509494e-004
1.876429e+003,-8.173455e-004
1.878357e+003,-7.406659e-004
1.880286e+003,-5.753785e-004
1.882215e+003,-8.229148e-004
1.884143e+003,-9.144992e-004
1.886072e+003,-1.062317e-003
1.888000e+003,-9.097476e-004
1.889928e+003,-7.755365e-004
1.891857e+003,-8.121319e-004
1.893785e+003,-9.600818e-004
1.895714e+003,-8.739643e-004
1.897643e+003,-7.827617e-004
1.899571e+003,-8.994043e-004
1.901500e+003,-8.914415e-004
1.903428e+003,-8.834880e-004
1.905356e+003,-8.755457e-004
1.907285e+003,-8.676127e-004
1.909213e+003,-8.596871e-004
1.911142e+003,-8.517709e-004
1.913071e+003,-8.438639e-004
1.914999e+003,-8.359663e-004
1.916927e+003,-8.280799e-004
1.918856e+003,-8.201972e-004
1.920784e+003,-8.123275e-004
1.922713e+003,-8.044653e-004
1.924641e+003,-7.966161e-004
1.926570e+003,-7.887688e-004
1.928499e+003,-7.809382e-004
1.930427e+003,-7.731114e-004
1.932355e+003,-7.652938e-004
1.934284e+003,-7.574894e-004
1.936212e+003,-7.496923e-004
1.938141e+003,-7.419046e-004
1.940070e+003,-7.341225e-004
1.941998e+003,-7.263534e-004
1.943927e+003,-7.185917e-004
1.945855e+003,-7.108413e-004
1.947783e+003,-7.030983e-004
1.949712e+003,-6.953627e-004
1.951640e+003,-6.876383e-004
1.953569e+003,-6.799232e-004
1.955498e+003,-6.722175e-004
1.957426e+003,-6.645210e-004
1.959354e+003,-6.568339e-004
1.961283e+003,-6.491523e-004
1.963211e+003,-6.414838e-004
1.965140e+003,-6.338209e-004
1.967068e+003,-6.261729e-004
1.968997e+003,-6.185286e-004
1.970926e+003,-6.108917e-004
1.972854e+003,-6.032698e-004
1.974782e+003,-5.956553e-004
1.976711e+003,-5.880501e-004
1.978639e+003,-5.804505e-004
1.980568e+003,-5.728640e-004
1.982496e+003,-5.652849e-004
1.984425e+003,-5.577132e-004
1.986354e+003,-5.501565e-004
1.988282e+003,-5.426016e-004
1.990210e+003,-5.350616e-004
1.992139e+003,-5.275272e-004
1.994067e+003,-5.200021e-004
1.995996e+003,-5.124900e-004
1.997924e+003,-5.049836e-004
1.999853e+003,-4.974846e-004
2.001781e+003,-4.899986e-004
2.003710e+003,-4.825220e-004
2.005638e+003,-4.750509e-004
2.007567e+003,-4.675891e-004
2.009495e+003,-4.601385e-004
2.011424e+003,-4.526954e-004
2.013352e+003,-4.452635e-004
2.015281e+003,-4.378408e-004
2.017209e+003,-4.304256e-004
2.019138e+003,-4.230198e-004
2.021066e+003,-4.156232e-004
2.022995e+003,-4.082359e-004
2.024923e+003,-4.008580e-004
2.026852e+003,-3.934894e-004
2.028781e+003,-3.861282e-004
2.030709e+003,-3.787782e-004
2.032637e+003,-3.714375e-004
2.034566e+003,-3.641043e-004
2.036494e+003,-3.567804e-004
2.038423e+003,-3.494658e-004
2.040351e+003,-3.421605e-004
2.042280e+003,-3.348645e-004
2.044208e+003,-3.275778e-004
2.046137e+003,-3.202986e-004
2.048065e+003,-3.130306e-004
2.049994e+003,-3.057718e-004
2.051922e+003,-2.985206e-004
2.053851e+003,-2.912767e-004
2.055779e+003,-2.840422e-004
2.057708e+003,-2.768207e-004
2.059636e+003,-2.696104e-004
2.061565e+003,-2.624039e-004
2.063493e+003,-2.552103e-004
2.065422e+003,-2.480205e-004
2.067350e+003,-2.408456e-004
2.069279e+003,-2.336744e-004
2.071207e+003,-2.265144e-004
2.073136e+003,-2.193656e-004
2.075064e+003,-2.122223e-004
2.076993e+003,-2.050921e-004
2.078921e+003,-1.979694e-004
2.080850e+003,-1.908578e-004
2.082778e+003,-1.837518e-004
2.084707e+003,-1.766533e-004
2.086635e+003,-1.695678e-004
2.088564e+003,-1.624916e-004
2.090492e+003,-1.554228e-004
2.092421e+003,-1.483653e-004
2.094349e+003,-1.413152e-004
2.096278e+003,-1.342725e-004
2.098206e+003,-1.272410e-004
2.100135e+003,-1.202170e-004
2.102063e+003,-1.132060e-004
2.103992e+003,-1.061987e-004
2.105920e+003,-9.920448e-005
2.107849e+003,-9.221956e-005
2.109777e+003,-8.524396e-005
2.111706e+003,-7.827580e-005
2.113634e+003,-7.131137e-005
2.115563e+003,-6.436557e-005
2.117491e+003,-5.742349e-005
2.119420e+003,-5.049445e-005
2.121348e+003,-4.357100e-005
2.123277e+003,-3.665872e-005
2.125205e+003,-2.975389e-005
2.127134e+003,-2.286024e-005
2.129062e+003,-1.597032e-005
2.130991e+003,-9.095296e-006
2.132919e+003,-2.227724e-006
2.134848e+003,4.632398e-006
2.136776e+003,1.148134e-005
2.138705e+003,1.832098e-005
2.140633e+003,2.514943e-005
2.142562e+003,3.197789e-005
2.144490e+003,3.878772e-005
2.146419e+003,4.559197e-005
2.148347e+003,5.238503e-005
2.150276e+003,5.917065e-005
2.152204e+003,6.594881e-005
2.154133e+003,7.271767e-005
2.156061e+003,7.947721e-005
2.157990e+003,8.622557e-005
2.159918e+003,9.296462e-005
2.161847e+003,9.969436e-005
2.163775e+003,1.064185e-004
2.165704e+003,1.131278e-004
2.167632e+003,1.198296e-004
2.169561e+003,1.265239e-004
2.171489e+003,1.332108e-004
2.173418e+003,1.398902e-004
2.175346e+003,1.465548e-004
2.177275e+003,1.532156e-004
2.179203e+003,1.598615e-004
2.181132e+003,1.665037e-004
2.183060e+003,1.731329e-004
2.184989e+003,1.797527e-004
2.186917e+003,1.863688e-004
2.188846e+003,1.929719e-004
2.190774e+003,1.995675e-004
2.192703e+003,2.061501e-004
2.194631e+003,2.127271e-004
2.196560e+003,2.192911e-004
2.198488e+003,2.258494e-004
2.200417e+003,2.324022e-004
2.202345e+003,2.389420e-004
2.204274e+003,2.454706e-004
2.206202e+003,2.519917e-004
2.208131e+003,2.585035e-004
2.210059e+003,2.650041e-004
2.211988e+003,2.714992e-004
2.213916e+003,2.779812e-004
2.215845e+003,2.844576e-004
2.217773e+003,2.909265e-004
2.219702e+003,2.973843e-004
2.221630e+003,3.038328e-004
2.223559e+003,3.102720e-004
2.225487e+003,3.167000e-004
2.227416e+003,3.231205e-004
2.229344e+003,3.295336e-004
2.231273e+003,3.359411e-004
2.233201e+003,3.423337e-004
2.235130e+003,3.487151e-004
2.237058e+003,3.550909e-004
2.238987e+003,3.614593e-004
2.240915e+003,3.678128e-004
2.242844e+003,3.741607e-004
2.244772e+003,3.805012e-004
2.246701e+003,3.868323e-004
2.248629e+003,3.931522e-004
2.250558e+003,3.994647e-004
2.252486e+003,4.057661e-004
2.254415e+003,4.120599e-004
2.256343e+003,4.183426e-004
2.258272e+003,4.246179e-004
2.260200e+003,4.308838e-004
2.262129e+003,4.371442e-004
2.264057e+003,4.433896e-004
2.265986e+003,4.496258e-004
2.267914e+003,4.558600e-004
2.269843e+003,4.620794e-004
2.271771e+003,4.682895e-004
2.273700e+003,4.744921e-004
2.275628e+003,4.806854e-004
2.277557e+003,4.868731e-004
2.279485e+003,4.930478e-004
2.281414e+003,4.992113e-004
2.283342e+003,5.053636e-004
2.285271e+003,5.115122e-004
2.287199e+003,5.176533e-004
2.289128e+003,5.237851e-004
2.291056e+003,5.299039e-004
2.292985e+003,5.360134e-004
2.294913e+003,5.421136e-004
2.296842e+003,5.482081e-004
2.298770e+003,5.542915e-004
2.300699e+003,5.603675e-004
2.302627e+003,5.664341e-004
2.304556e+003,5.724896e-004
2.306484e+003,5.785376e-004
2.308413e+003,5.845744e-004
2.310341e+003,5.906019e-004
2.312270e+003,5.966220e-004
2.314198e+003,6.026309e-004
2.316127e+003,6.086342e-004
2.318055e+003,6.146263e-004
2.319984e+003,6.206129e-004
2.321912e+003,6.265864e-004
2.323841e+003,6.325506e-004
2.325769e+003,6.385073e-004
2.327698e+003,6.444547e-004
2.329626e+003,6.503910e-004
2.331555e+003,6.563198e-004
2.333483e+003,6.622393e-004
2.335412e+003,6.681513e-004
2.337340e+003,6.740522e-004
2.339269e+003,6.799456e-004
2.341197e+003,6.858259e-004
2.343126e+003,6.917007e-004
2.345054e+003,6.975643e-004
2.346983e+003,7.034242e-004
2.348911e+003,7.092692e-004
2.350840e+003,7.151086e-004
2.352768e+003,7.209349e-004
2.354697e+003,7.267557e-004
2.356625e+003,7.325634e-004
2.358554e+003,7.383637e-004
2.360482e+003,7.441547e-004
2.362411e+003,7.499382e-004
2.364339e+003,7.557161e-004
2.366268e+003,7.614810e-004
2.368196e+003,7.672329e-004
2.370125e+003,7.729810e-004
2.372053e+003,7.787161e-004
2.373982e+003,7.844474e-004
2.375910e+003,7.901639e-004
2.377839e+003,7.958785e-004
2.379767e+003,8.015763e-004
2.381696e+003,8.072685e-004
2.383624e+003,8.129515e-004
2.385553e+003,8.186251e-004
2.387481e+003,8.242875e-004
2.389410e+003,8.299425e-004
2.391338e+003,8.355919e-004
2.393267e+003,8.412283e-004
2.395195e+003,8.468553e-004
2.397124e+003,8.524712e-004
2.399052e+003,8.580834e-004
2.400981e+003,9.309705e-004
2.402909e+003,7.607527e-004
2.404838e+003,7.991102e-004
2.406766e+003,1.180187e-003
2.408695e+003,1.427164e-003
2.410623e+003,1.349960e-003
2.412552e+003,1.242075e-003
2.414480e+003,1.183530e-003
2.416409e+003,1.202725e-003
2.418337e+003,1.070263e-003
2.420266e+003,1.149744e-003
2.422194e+003,1.375247e-003
2.424123e+003,1.540892e-003
2.426051e+003,1.561876e-003
2.427979e+003,1.550315e-003
2.429908e+003,1.460666e-003
2.431837e+003,1.532065e-003
2.433765e+003,1.572421e-003
2.435694e+003,1.492757e-003
2.437622e+003,1.389427e-003
2.439551e+003,1.392581e-003
2.441479e+003,1.426805e-003
2.443407e+003,1.567997e-003
2.445336e+003,1.589118e-003
2.447265e+003,1.646189e-003
2.449193e+003,1.518980e-003
2.451122e+003,1.557982e-003
2.453050e+003,1.726843e-003
2.454979e+003,1.788341e-003
2.456907e+003,1.743730e-003
2.458836e+003,1.741681e-003
2.460764e+003,1.621170e-003
2.462693e+003,1.507696e-003
2.464621e+003,1.391020e-003
2.466550e+003,1.192270e-003
2.468478e+003,1.112228e-003
2.470406e+003,1.221376e-003
2.472335e+003,1.317780e-003
2.474264e+003,1.347961e-003
2.476192e+003,1.349024e-003
2.478121e+003,1.457313e-003
2.480049e+003,1.476811e-003
2.481978e+003,1.470989e-003
2.483906e+003,1.579184e-003
2.485835e+003,1.655459e-003
2.487763e+003,1.652358e-003
2.489692e+003,1.702104e-003
2.491620e+003,1.818947e-003
2.493549e+003,2.055001e-003
2.495477e+003,2.006561e-003
2.497406e+003,1.831997e-003
2.499334e+003,1.740286e-003
2.501263e+003,1.749869e-003
2.503191e+003,1.649301e-003
2.505120e+003,1.844378e-003
2.507048e+003,1.924383e-003
2.508977e+003,1.851421e-003
2.510905e+003,1.904096e-003
2.512833e+003,1.981132e-003
2.514762e+003,2.036795e-003
2.516691e+003,2.311282e-003
2.518619e+003,2.439890e-003
2.520548e+003,2.443500e-003
2.522476e+003,2.402810e-003
2.524405e+003,2.510535e-003
2.526333e+003,2.626805e-003
2.528261e+003,2.720352e-003
2.530190e+003,2.926175e-003
2.532119e+003,3.074266e-003
2.534047e+003,2.988037e-003
2.535976e+003,3.137158e-003
2.537904e+003,3.296319e-003
2.539833e+003,3.332512e-003
2.541761e+003,3.336331e-003
2.543689e+003,3.589403e-003
2.545618e+003,3.696289e-003
2.547547e+003,3.811000e-003
2.549475e+003,4.074749e-003
2.551404e+003,4.095484e-003
2.553332e+003,3.945306e-003
2.555260e+003,4.092339e-003
2.557189e+003,4.151322e-003
2.559117e+003,4.190329e-003
2.561046e+003,4.271355e-003
2.562975e+003,4.415102e-003
2.564903e+003,4.466303e-003
2.566832e+003,4.628856e-003
2.568760e+003,4.880566e-003
2.570688e+003,4.991606e-003
2.572617e+003,5.444173e-003
2.574546e+003,6.080739e-003
2.576474e+003,6.474622e-003
2.578403e+003,6.822519e-003
2.580331e+003,7.012170e-003
2.582260e+003,6.860871e-003
2.584188e+003,6.632894e-003
2.586116e+003,6.508686e-003
2.588045e+003,6.428555e-003
2.589974e+003,6.114129e-003
2.591902e+003,5.845580e-003
2.593831e+003,5.853280e-003
2.595759e+003,5.891390e-003
2.597688e+003,5.849179e-003
2.599616e+003,5.858455e-003
2.601544e+003,6.076392e-003
2.603473e+003,6.247751e-003
2.605402e+003,6.454471e-003
2.607330e+003,6.734274e-003
2.609259e+003,7.077623e-003
2.611187e+003,7.437784e-003
2.613115e+003,7.741448e-003
2.615044e+003,7.856060e-003
2.616972e+003,7.972091e-003
2.618901e+003,8.000642e-003
2.620830e+003,8.051075e-003
2.622758e+003,8.005243e-003
2.624687e+003,8.005358e-003
2.626615e+003,8.120578e-003
2.628543e+003,8.199237e-003
2.630472e+003,8.158173e-003
2.632400e+003,8.192040e-003
2.634329e+003,8.244105e-003
2.636258e+003,8.397602e-003
2.638186e+003,8.641455e-003
2.640115e+003,8.891329e-003
2.642043e+003,9.088222e-003
2.643971e+003,9.244997e-003
2.645900e+003,9.341266e-003
2.647828e+003,9.534385e-003
2.649757e+003,9.732530e-003
2.651686e+003,9.963244e-003
2.653614e+003,1.017699e-002
2.655542e+003,1.038640e-002
2.657471e+003,1.054174e-002
2.659399e+003,1.060720e-002
2.661328e+003,1.045095e-002
2.663256e+003,1.016966e-002
2.665185e+003,9.928681e-003
2.667114e+003,9.834252e-003
2.669042e+003,9.884246e-003
2.670970e+003,1.004035e-002
2.672899e+003,1.014605e-002
2.674827e+003,1.025133e-002
2.676756e+003,1.031322e-002
2.678685e+003,1.026253e-002
2.680613e+003,1.021682e-002
2.682542e+003,1.021206e-002
2.684470e+003,1.017609e-002
2.686398e+003,1.016608e-002
2.688327e+003,1.016132e-002
2.690255e+003,1.007394e-002
2.692184e+003,1.002723e-002
2.694113e+003,1.000480e-002
2.696041e+003,1.000937e-002
2.697969e+003,1.007969e-002
2.699898e+003,1.017719e-002
2.701826e+003,1.037088e-002
2.703755e+003,1.063320e-002
2.705683e+003,1.099413e-002
2.707612e+003,1.143411e-002
2.709541e+003,1.194352e-002
2.711469e+003,1.251492e-002
2.713397e+003,1.328808e-002
2.715326e+003,1.418139e-002
2.717254e+003,1.513420e-002
2.719183e+003,1.614714e-002
2.721111e+003,1.690946e-002
2.723040e+003,1.699626e-002
2.724969e+003,1.651589e-002
2.726897e+003,1.570865e-002
2.728825e+003,1.489684e-002
2.730754e+003,1.427291e-002
2.732682e+003,1.377740e-002
2.734611e+003,1.330503e-002
2.736539e+003,1.284349e-002
2.738468e+003,1.237203e-002
2.740396e+003,1.196177e-002
2.742325e+003,1.159646e-002
2.744253e+003,1.132156e-002
2.746182e+003,1.118586e-002
2.748110e+003,1.106197e-002
2.750039e+003,1.095399e-002
2.751967e+003,1.094683e-002
2.753896e+003,1.105256e-002
2.755824e+003,1.122575e-002
2.757753e+003,1.138161e-002
2.759681e+003,1.160874e-002
2.761610e+003,1.188923e-002
2.763538e+003,1.216951e-002
2.765467e+003,1.238441e-002
2.767395e+003,1.264270e-002
2.769324e+003,1.290053e-002
2.771252e+003,1.318033e-002
2.773181e+003,1.354734e-002
2.775109e+003,1.411254e-002
2.777038e+003,1.473357e-002
2.778966e+003,1.546098e-002
2.780895e+003,1.622074e-002
2.782823e+003,1.709050e-002
2.784752e+003,1.815223e-002
2.786680e+003,1.939869e-002
2.788609e+003,2.073127e-002
2.790537e+003,2.212435e-002
2.792466e+003,2.342813e-002
2.794394e+003,2.453912e-002
2.796323e+003,2.550874e-002
2.798251e+003,2.648538e-002
2.800180e+003,2.784622e-002
2.802108e+003,2.977721e-002
2.804037e+003,3.208163e-002
2.805965e+003,3.449559e-002
2.807894e+003,3.674414e-002
2.809822e+003,3.890153e-002
2.811751e+003,4.109649e-002
2.813679e+003,4.352485e-002
2.815608e+003,4.645122e-002
2.817536e+003,4.996819e-002
2.819465e+003,5.427802e-002
2.821393e+003,5.975419e-002
2.823322e+003,6.669579e-002
2.825250e+003,7.594448e-002
2.827179e+003,8.890348e-002
2.829107e+003,1.076205e-001
2.831036e+003,1.347041e-001
2.832964e+003,1.707163e-001
2.834893e+003,2.096138e-001
2.836821e+003,2.392846e-001
2.838750e+003,2.515255e-001
2.840678e+003,2.478328e-001
2.842607e+003,2.371066e-001
2.844535e+003,2.296626e-001
2.846464e+003,2.311296e-001
2.848392e+003,2.404555e-001
2.850321e+003,2.526354e-001
2.852249e+003,2.614726e-001
2.854178e+003,2.625910e-001
2.856106e+003,2.569931e-001
2.858035e+003,2.509454e-001
2.859963e+003,2.522608e-001
2.861892e+003,2.642955e-001
2.863820e+003,2.797105e-001
2.865749e+003,2.850394e-001
2.867677e+003,2.773461e-001
2.869606e+003,2.653253e-001
2.871534e+003,2.550881e-001
2.873463e+003,2.485864e-001
2.875391e+003,2.464423e-001
2.877320e+003,2.452202e-001
2.879248e+003,2.412314e-001
2.881177e+003,2.360268e-001
2.883105e+003,2.325075e-001
2.885034e+003,2.318545e-001
2.886962e+003,2.337716e-001
2.888891e+003,2.381759e-001
2.890819e+003,2.456919e-001
2.892748e+003,2.574404e-001
2.894676e+003,2.743773e-001
2.896605e+003,2.967944e-001
2.898533e+003,3.240079e-001
2.900462e+003,3.546398e-001
2.902390e+003,3.873994e-001
2.904319e+003,4.206767e-001
2.906247e+003,4.522274e-001
2.908176e+003,4.830365e-001
2.910104e+003,5.196646e-001
2.912033e+003,5.694442e-001
2.913961e+003,6.295916e-001
2.915890e+003,6.810796e-001
2.917818e+003,7.015787e-001
2.919747e+003,6.898095e-001
2.921675e+003,6.614429e-001
2.923604e+003,6.262119e-001
2.925532e+003,5.835193e-001
2.927461e+003,5.321788e-001
2.929389e+003,4.763475e-001
2.931318e+003,4.227692e-001
2.933246e+003,3.762979e-001
2.935175e+003,3.394564e-001
2.937103e+003,3.139420e-001
2.939032e+003,3.014464e-001
2.940960e+003,3.050083e-001
2.942889e+003,3.268049e-001
2.944817e+003,3.641443e-001
2.946746e+003,4.058713e-001
2.948674e+003,4.328623e-001
2.950603e+003,4.296044e-001
2.952531e+003,4.017847e-001
2.954460e+003,3.710872e-001
2.956388e+003,3.531544e-001
2.958317e+003,3.463782e-001
2.960245e+003,3.367630e-001
2.962174e+003,3.108669e-001
2.964102e+003,2.711723e-001
2.966031e+003,2.293599e-001
2.967959e+003,1.910808e-001
2.969888e+003,1.573684e-001
2.971816e+003,1.289314e-001
2.973745e+003,1.059364e-001
2.975673e+003,8.788200e-002
2.977602e+003,7.374220e-002
2.979530e+003,6.266148e-002
2.981459e+003,5.398810e-002
2.983387e+003,4.715736e-002
2.985316e+003,4.181509e-002
2.987244e+003,3.768852e-002
2.989173e+003,3.462625e-002
2.991101e+003,3.250851e-002
2.993030e+003,3.122283e-002
2.994958e+003,3.102652e-002
2.996887e+003,3.162178e-002
2.998815e+003,3.268038e-002
3.000744e+003,3.384946e-002
3.002672e+003,3.473395e-002
3.004601e+003,3.484069e-002
3.006529e+003,3.398088e-002
3.008458e+003,3.220710e-002
3.010386e+003,2.965789e-002
3.012315e+003,2.656417e-002
3.014243e+003,2.338087e-002
3.016172e+003,2.037793e-002
3.018100e+003,1.768583e-002
3.020029e+003,1.540843e-002
3.021957e+003,1.356662e-002
3.023886e+003,1.211539e-002
3.025814e+003,1.098472e-002
3.027743e+003,1.001537e-002
3.029671e+003,9.202618e-003
3.031600e+003,8.613341e-003
3.033528e+003,8.249126e-003
3.035457e+003,7.858720e-003
3.037385e+003,7.427007e-003
3.039314e+003,7.058825e-003
3.041242e+003,6.846976e-003
3.043171e+003,6.621841e-003
3.045099e+003,6.390613e-003
3.047028e+003,6.250739e-003
3.048956e+003,6.097429e-003
3.050885e+003,5.967230e-003
3.052813e+003,5.866755e-003
3.054742e+003,5.745754e-003
3.056670e+003,5.666144e-003
3.058599e+003,5.661700e-003
3.060527e+003,5.599935e-003
3.062456e+003,5.527399e-003
3.064384e+003,5.441226e-003
3.066313e+003,5.306672e-003
3.068241e+003,5.256262e-003
3.070170e+003,5.146101e-003
3.072098e+003,4.883081e-003
3.074027e+003,4.663516e-003
3.075955e+003,4.489359e-003
3.077884e+003,4.352368e-003
3.079812e+003,4.338305e-003
3.081741e+003,4.163630e-003
3.083669e+003,3.992438e-003
3.085598e+003,3.918715e-003
3.087526e+003,3.871284e-003
3.089455e+003,3.839307e-003
3.091383e+003,3.887594e-003
3.093312e+003,3.897659e-003
3.095240e+003,3.886558e-003
3.097169e+003,3.807783e-003
3.099097e+003,3.663544e-003
3.101026e+003,3.625855e-003
3.102954e+003,3.704771e-003
3.104883e+003,3.706951e-003
3.106811e+003,3.668774e-003
3.108740e+003,3.621180e-003
3.110668e+003,3.579788e-003
3.112597e+003,3.602918e-003
3.114525e+003,3.701214e-003
3.116454e+003,3.745418e-003
3.118382e+003,3.681682e-003
3.120311e+003,3.584489e-003
3.122239e+003,3.630266e-003
3.124168e+003,3.899183e-003
3.126096e+003,3.986027e-003
3.128025e+003,3.893096e-003
3.129953e+003,3.852479e-003
3.131882e+003,3.867477e-003
3.133810e+003,3.960580e-003
3.135739e+003,4.026357e-003
3.137667e+003,4.049603e-003
3.139596e+003,3.998280e-003
3.141524e+003,4.045799e-003
3.143453e+003,4.071768e-003
3.145381e+003,4.110448e-003
3.147310e+003,4.081156e-003
3.149238e+003,4.101571e-003
3.151167e+003,4.100658e-003
3.153095e+003,4.134774e-003
3.155024e+003,4.185114e-003
3.156952e+003,4.161555e-003
3.158881e+003,4.137207e-003
3.160809e+003,4.098874e-003
3.162738e+003,4.008692e-003
3.164666e+003,4.021935e-003
3.166594e+003,3.996111e-003
3.168523e+003,4.009884e-003
3.170452e+003,4.076451e-003
3.172380e+003,4.126068e-003
3.174309e+003,4.185937e-003
3.176237e+003,4.279867e-003
3.178166e+003,4.298478e-003
3.180094e+003,4.380297e-003
3.182022e+003,4.429668e-003
3.183951e+003,4.450012e-003
3.185880e+003,4.515264e-003
3.187808e+003,4.599892e-003
3.189737e+003,4.621983e-003
3.191665e+003,4.563320e-003
3.193594e+003,4.436858e-003
3.195522e+003,4.487712e-003
3.197450e+003,4.593197e-003
3.199379e+003,4.695188e-003
3.201308e+003,4.728090e-003
3.203236e+003,4.519455e-003
3.205165e+003,4.327785e-003
3.207093e+003,4.318818e-003
3.209021e+003,4.152700e-003
3.210950e+003,4.119340e-003
3.212878e+003,4.137661e-003
3.214807e+003,4.094996e-003
3.216736e+003,4.075918e-003
3.218664e+003,3.952496e-003
3.220593e+003,3.859524e-003
3.222521e+003,3.768757e-003
3.224449e+003,3.571749e-003
3.226378e+003,3.412671e-003
3.228307e+003,3.399469e-003
3.230235e+003,3.387894e-003
3.232164e+003,3.290590e-003
3.234092e+003,3.196374e-003
3.236021e+003,3.152236e-003
3.237949e+003,3.117446e-003
3.239877e+003,3.102425e-003
3.241806e+003,3.148839e-003
3.243735e+003,3.199290e-003
3.245663e+003,3.144231e-003
3.247592e+003,3.129259e-003
3.249520e+003,3.239166e-003
3.251448e+003,3.378093e-003
3.253377e+003,3.440142e-003
3.255305e+003,3.440294e-003
3.257234e+003,3.440768e-003
3.259163e+003,3.471643e-003
3.261091e+003,3.489725e-003
3.263020e+003,3.553543e-003
3.264948e+003,3.659844e-003
3.266876e+003,3.652021e-003
3.268805e+003,3.624756e-003
3.270733e+003,3.605947e-003
3.272662e+003,3.659692e-003
3.274591e+003,3.789045e-003
3.276519e+003,3.832202e-003
3.278448e+003,3.880896e-003
3.280376e+003,3.852263e-003
3.282304e+003,3.781732e-003
3.284233e+003,3.954068e-003
3.286161e+003,4.067395e-003
3.288090e+003,4.015043e-003
3.290019e+003,3.977031e-003
3.291947e+003,4.015133e-003
3.293875e+003,4.043378e-003
3.295804e+003,4.130013e-003
3.297732e+003,4.076142e-003
3.299661e+003,4.055828e-003
3.301589e+003,4.049465e-003
3.303518e+003,3.966417e-003
3.305447e+003,3.989358e-003
3.307375e+003,4.003499e-003
3.309303e+003,3.979534e-003
3.311232e+003,3.970798e-003
3.313160e+003,3.881644e-003
3.315089e+003,3.873393e-003
3.317018e+003,3.860142e-003
3.318946e+003,3.884874e-003
3.320875e+003,3.937662e-003
3.322803e+003,4.008796e-003
3.324731e+003,4.065569e-003
3.326660e+003,4.101932e-003
3.328588e+003,4.056733e-003
3.330517e+003,4.096083e-003
3.332446e+003,4.227411e-003
3.334374e+003,4.275318e-003
3.336302e+003,4.333545e-003
3.338231e+003,4.329961e-003
3.340159e+003,4.262861e-003
3.342088e+003,4.278872e-003
3.344016e+003,4.342698e-003
3.345945e+003,4.388615e-003
3.347874e+003,4.334640e-003
3.349802e+003,4.237290e-003
3.351730e+003,4.176386e-003
3.353659e+003,4.201520e-003
3.355587e+003,4.259609e-003
3.357516e+003,4.206054e-003
3.359444e+003,4.217658e-003
3.361373e+003,4.388478e-003
3.363302e+003,4.454717e-003
3.365230e+003,4.303738e-003
3.367158e+003,4.189219e-003
3.369087e+003,4.172597e-003
3.371015e+003,4.154902e-003
3.372944e+003,4.109275e-003
3.374872e+003,4.199050e-003
3.376801e+003,4.335351e-003
3.378729e+003,4.293174e-003
3.380658e+003,4.205059e-003
3.382586e+003,4.213296e-003
3.384515e+003,4.149318e-003
3.386443e+003,4.091986e-003
3.388372e+003,4.031442e-003
3.390300e+003,4.065532e-003
3.392229e+003,4.137110e-003
3.394157e+003,4.114412e-003
3.396086e+003,4.156936e-003
3.398014e+003,4.197404e-003
3.399943e+003,4.177593e-003
3.401871e+003,4.135765e-003
3.403800e+003,4.178949e-003
3.405728e+003,4.201099e-003
3.407657e+003,4.235838e-003
3.409585e+003,4.350491e-003
3.411514e+003,4.325382e-003
3.413442e+003,4.229043e-003
3.415371e+003,4.235476e-003
3.417299e+003,4.352216e-003
3.419228e+003,4.397299e-003
3.421156e+003,4.315831e-003
3.423085e+003,4.366428e-003
3.425013e+003,4.371505e-003
3.426942e+003,4.429437e-003
3.428870e+003,4.438534e-003
3.430799e+003,4.410427e-003
3.432727e+003,4.355758e-003
3.434656e+003,4.305139e-003
3.436584e+003,4.280303e-003
3.438513e+003,4.379123e-003
3.440441e+003,4.492644e-003
3.442370e+003,4.563678e-003
3.444298e+003,4.500963e-003
3.446227e+003,4.577242e-003
3.448155e+003,4.646894e-003
3.450084e+003,4.651930e-003
3.452012e+003,4.584130e-003
3.453941e+003,4.645485e-003
3.455869e+003,4.725449e-003
3.457798e+003,4.955370e-003
3.459726e+003,5.096328e-003
3.461655e+003,5.142219e-003
3.463583e+003,5.135421e-003
3.465512e+003,5.176976e-003
3.467440e+003,5.178593e-003
3.469369e+003,5.156696e-003
3.471297e+003,5.070630e-003
3.473226e+003,5.103901e-003
3.475154e+003,5.027443e-003
3.477083e+003,4.933178e-003
3.479011e+003,4.747767e-003
3.480940e+003,4.752420e-003
3.482868e+003,4.857745e-003
3.484797e+003,4.668511e-003
3.486725e+003,4.512232e-003
3.488654e+003,4.646190e-003
3.490582e+003,4.611723e-003
3.492511e+003,4.528828e-003
3.494439e+003,4.446205e-003
3.496368e+003,4.328806e-003
3.498296e+003,4.335202e-003
3.500225e+003,4.393555e-003
3.502153e+003,4.337229e-003
3.504082e+003,4.325286e-003
3.506010e+003,4.233610e-003
3.507939e+003,4.233819e-003
3.509867e+003,4.180014e-003
3.511796e+003,4.224610e-003
3.513724e+003,4.190665e-003
3.515653e+003,4.246961e-003
3.517581e+003,4.290078e-003
3.519510e+003,4.167523e-003
3.521438e+003,4.071567e-003
3.523367e+003,4.115462e-003
3.525295e+003,4.134472e-003
3.527224e+003,4.156623e-003
3.529152e+003,3.984027e-003
3.531081e+003,3.756337e-003
3.533009e+003,3.497630e-003
3.534938e+003,3.465202e-003
3.536866e+003,3.677268e-003
3.538795e+003,3.837701e-003
3.540723e+003,3.516346e-003
3.542652e+003,3.246516e-003
3.544580e+003,3.377587e-003
3.546509e+003,3.699131e-003
3.548437e+003,3.426109e-003
3.550366e+003,2.999015e-003
3.552294e+003,2.608091e-003
3.554223e+003,2.614755e-003
3.556151e+003,2.778128e-003
3.558080e+003,2.898056e-003
3.560008e+003,2.624296e-003
3.561937e+003,2.094947e-003
3.563865e+003,1.443442e-003
3.565794e+003,1.626186e-003
3.567722e+003,2.471190e-003
3.569651e+003,2.156761e-003
3.571579e+003,1.374703e-003
3.573508e+003,9.835772e-004
3.575436e+003,8.858666e-004
3.577365e+003,1.064647e-003
3.579293e+003,1.281027e-003
3.581222e+003,1.196109e-003
3.583150e+003,6.933287e-004
3.585079e+003,2.300106e-004
3.587007e+003,7.529333e-004
3.588936e+003,1.536418e-003
3.590864e+003,1.215678e-003
3.592793e+003,5.228668e-004
3.594721e+003,-2.218038e-005
3.596650e+003,3.712364e-004
3.598578e+003,9.437092e-004
3.600507e+003,1.158401e-003
3.602435e+003,7.970035e-004
3.604364e+003,1.285598e-004
3.606292e+003,-4.316382e-004
3.608221e+003,3.764369e-004
3.610149e+003,8.829795e-004
3.612078e+003,3.768280e-004
3.614006e+003,-1.236685e-004
3.615935e+003,-4.858635e-004
3.617863e+003,2.210103e-004
3.619792e+003,1.336019e-003
3.621720e+003,8.291975e-004
3.623649e+003,8.122995e-005
3.625577e+003,-7.679239e-004
3.627506e+003,-7.278249e-004
3.629434e+003,7.818490e-004
3.631363e+003,7.771254e-004
3.633291e+003,-1.672842e-004
3.635220e+003,-5.345866e-004
3.637148e+003,-4.630312e-004
3.639077e+003,-1.568645e-004
3.641005e+003,3.196932e-004
3.642934e+003,-2.265349e-004
3.644862e+003,-8.313134e-004
3.646791e+003,-1.016561e-003
3.648719e+003,-6.719306e-005
3.650648e+003,1.131430e-003
3.652576e+003,-6.264448e-005
3.654505e+003,-8.886494e-004
3.656433e+003,-1.086410e-003
3.658362e+003,-3.435798e-004
3.660290e+003,7.314235e-005
3.662219e+003,-3.487989e-005
3.664147e+003,-2.859607e-004
3.666076e+003,-7.517450e-004
3.668004e+003,-9.474792e-004
3.669933e+003,-2.883971e-004
3.671861e+003,-6.074719e-004
3.673790e+003,-1.674376e-003
3.675718e+003,-2.069376e-003
3.677647e+003,-6.534941e-004
3.679575e+003,-1.406111e-004
3.681504e+003,2.757534e-004
3.683432e+003,-3.028288e-004
3.685361e+003,-1.241427e-003
3.687289e+003,-1.850512e-003
3.689218e+003,-8.537285e-004
3.691146e+003,7.665604e-004
3.693075e+003,1.195073e-004
3.695003e+003,-7.903799e-004
3.696932e+003,-1.124091e-003
3.698860e+003,-9.820759e-004
3.700789e+003,-5.599372e-004
3.702717e+003,1.068600e-004
3.704646e+003,1.160167e-004
3.706574e+003,-5.838275e-004
3.708503e+003,-1.471777e-003
3.710431e+003,-1.441211e-003
3.712360e+003,3.307238e-004
3.714288e+003,6.767027e-004
3.716217e+003,1.804046e-004
3.718145e+003,-6.769560e-004
3.720074e+003,-9.156540e-004
3.722002e+003,-1.685619e-004
3.723931e+003,8.669682e-004
3.725859e+003,1.060762e-003
3.727788e+003,3.545098e-004
3.729716e+003,-2.893507e-004
3.731645e+003,-9.542443e-004
3.733573e+003,-4.545599e-004
3.735502e+003,9.906292e-005
3.737430e+003,5.572774e-004
3.739359e+003,4.284941e-004
3.741287e+003,-6.733537e-004
3.743216e+003,-1.411561e-003
3.745144e+003,-1.011584e-003
3.747073e+003,-5.971678e-004
3.749001e+003,-1.149207e-003
3.750930e+003,-3.019236e-004
3.752858e+003,-5.486794e-004
3.754787e+003,-6.320588e-004
3.756715e+003,-8.928999e-004
3.758644e+003,-5.253218e-004
3.760572e+003,1.521073e-004
3.762501e+003,-2.327189e-004
3.764429e+003,-6.394200e-004
3.766358e+003,-7.904023e-004
3.768286e+003,-5.307868e-004
3.770215e+003,-1.088567e-004
3.772143e+003,2.818406e-004
3.774072e+003,2.691895e-004
3.776000e+003,-7.890165e-005
3.777929e+003,-2.306588e-004
3.779857e+003,2.209321e-004
3.781786e+003,4.630350e-004
3.783714e+003,1.061335e-004
3.785643e+003,2.276450e-004
3.787571e+003,2.318099e-004
3.789500e+003,1.550540e-004
3.791428e+003,7.807910e-004
3.793357e+003,4.308149e-004
3.795285e+003,3.197044e-004
3.797214e+003,4.056506e-004
3.799142e+003,-1.391172e-004
3.801071e+003,8.942187e-005
3.802999e+003,2.201237e-004
3.804927e+003,-5.934760e-005
3.806856e+003,2.854243e-004
3.808785e+003,7.173084e-004
3.810713e+003,5.672053e-004
3.812642e+003,2.663583e-006
3.814570e+003,-2.859384e-004
3.816499e+003,-2.223253e-004
3.818427e+003,-1.943372e-004
3.820355e+003,-5.257986e-004
3.822284e+003,6.419607e-004
3.824213e+003,7.304661e-004
3.826141e+003,2.028197e-004
3.828070e+003,1.145750e-004
3.829998e+003,-1.318231e-004
3.831927e+003,2.291091e-004
3.833855e+003,5.847216e-004
3.835783e+003,-6.054081e-004
3.837712e+003,-9.891950e-004
3.839641e+003,-6.047264e-004
3.841569e+003,1.636520e-004
3.843498e+003,9.739622e-004
3.845426e+003,7.811598e-004
3.847354e+003,-2.839789e-005
3.849283e+003,-8.835346e-004
3.851211e+003,-1.572680e-003
3.853140e+003,-1.344383e-004
3.855069e+003,1.591586e-003
3.856997e+003,6.601848e-004
3.858926e+003,-2.328008e-004
3.860854e+003,-6.407201e-004
3.862782e+003,-7.502399e-004
3.864711e+003,5.860627e-005
3.866640e+003,-5.348958e-004
3.868568e+003,-9.136498e-004
3.870497e+003,-3.531650e-004
3.872425e+003,2.005436e-004
3.874354e+003,2.903752e-004
3.876282e+003,3.748760e-004
3.878210e+003,-4.567653e-004
3.880139e+003,-3.407151e-004
3.882068e+003,1.244359e-004
3.883996e+003,-8.160993e-005
3.885925e+003,8.891895e-005
3.887853e+003,4.102290e-005
3.889781e+003,-5.709641e-004
3.891710e+003,1.545846e-004
3.893638e+003,7.937141e-004
3.895567e+003,5.208142e-004
3.897496e+003,-1.656003e-004
3.899424e+003,-8.568093e-004
3.901353e+003,-7.063262e-004
3.903281e+003,3.122166e-005
3.905209e+003,6.362759e-004
3.907138e+003,3.700741e-004
3.909066e+003,-1.510829e-004
3.910995e+003,-9.509921e-005
3.912924e+003,1.674145e-005
3.914852e+003,1.448542e-004
3.916781e+003,1.832917e-004
3.918709e+003,3.022552e-004
3.920637e+003,1.924336e-004
3.922566e+003,1.243949e-004
3.924494e+003,9.392202e-005
3.926423e+003,1.784898e-004
3.928352e+003,-4.399568e-006
3.930280e+003,-1.425333e-004
3.932208e+003,3.539212e-004
3.934137e+003,5.170517e-004
3.936065e+003,3.726073e-004
3.937994e+003,2.426654e-004
3.939922e+003,1.083687e-005
3.941851e+003,-1.118556e-004
3.943780e+003,1.786873e-004
3.945708e+003,1.052022e-004
3.947636e+003,-1.146272e-004
3.949565e+003,8.806586e-005
3.951493e+003,1.950935e-004
3.953422e+003,1.624636e-004
3.955351e+003,1.308918e-004
3.957279e+003,1.183078e-004
3.959208e+003,2.505407e-004
3.961136e+003,3.499277e-004
3.963064e+003,4.100502e-004
3.964993e+003,4.373491e-004
3.966921e+003,2.954490e-004
3.968850e+003,2.025738e-004
3.970779e+003,3.547221e-004
3.972707e+003,5.896166e-004
3.974635e+003,6.203018e-004
3.976564e+003,4.534014e-004
3.978492e+003,3.762282e-004
3.980421e+003,4.409440e-004
3.982349e+003,4.020110e-004
3.984278e+003,5.026869e-004
3.986207e+003,6.347634e-004
3.988135e+003,6.986298e-004
3.990063e+003,6.443299e-004
3.991992e+003,5.368367e-004
3.993920e+003,4.432872e-004
3.995849e+003,5.842149e-004
3.997777e+003,7.607713e-004
3.999706e+003,7.190406e-004
4.001635e+003,0.000000e+000
