3.991992e+002,0.000000e+000
4.011277e+002,0.000000e+000
4.030562e+002,0.000000e+000
4.049846e+002,0.000000e+000
4.069131e+002,0.000000e+000
4.088416e+002,0.000000e+000
4.107701e+002,0.000000e+000
4.126986e+002,0.000000e+000
4.146271e+002,0.000000e+000
4.165556e+002,0.000000e+000
4.184841e+002,0.000000e+000
4.204126e+002,0.000000e+000
4.223411e+002,0.000000e+000
4.242697e+002,0.000000e+000
4.261982e+002,0.000000e+000
4.281266e+002,0.000000e+000
4.300551e+002,0.000000e+000
4.319836e+002,0.000000e+000
4.339121e+002,0.000000e+000
4.358406e+002,0.000000e+000
4.377691e+002,0.000000e+000
4.396976e+002,0.000000e+000
4.416261e+002,0.000000e+000
4.435546e+002,0.000000e+000
4.454831e+002,0.000000e+000
4.474116e+002,0.000000e+000
4.493401e+002,0.000000e+000
4.512686e+002,0.000000e+000
4.531971e+002,0.000000e+000
4.551256e+002,0.000000e+000
4.570541e+002,0.000000e+000
4.589826e+002,0.000000e+000
4.609111e+002,0.000000e+000
4.628396e+002,0.000000e+000
4.647681e+002,0.000000e+000
4.666966e+002,0.000000e+000
4.686251e+002,0.000000e+000
4.705536e+002,0.000000e+000
4.724821e+002,0.000000e+000
4.744106e+002,0.000000e+000
4.763391e+002,0.000000e+000
4.782676e+002,0.000000e+000
4.801961e+002,0.000000e+000
4.821246e+002,0.000000e+000
4.840531e+002,0.000000e+000
4.859816e+002,0.000000e+000
4.879101e+002,0.000000e+000
4.898386e+002,0.000000e+000
4.917671e+002,0.000000e+000
4.936956e+002,0.000000e+000
4.956241e+002,0.000000e+000
4.975526e+002,0.000000e+000
4.994811e+002,0.000000e+000
5.014096e+002,0.000000e+000
5.033381e+002,0.000000e+000
5.052666e+002,0.000000e+000
5.071951e+002,0.000000e+000
5.091236e+002,0.000000e+000
5.110521e+002,0.000000e+000
5.129806e+002,0.000000e+000
5.149091e+002,0.000000e+000
5.168376e+002,0.000000e+000
5.187661e+002,0.000000e+000
5.206946e+002,0.000000e+000
5.226230e+002,0.000000e+000
5.245516e+002,3.902046e-004
5.264800e+002,4.600538e-004
5.284086e+002,3.245333e-004
5.303370e+002,2.554981e-004
5.322656e+002,7.290114e-005
5.341940e+002,-2.329610e-005
5.361226e+002,-1.520347e-004
5.380510e+002,-1.247926e-004
5.399796e+002,-2.068914e-004
5.419081e+002,-2.974682e-004
5.438365e+002,-4.722588e-004
5.457650e+002,-5.420977e-004
5.476935e+002,-4.040878e-004
5.496221e+002,-2.097050e-004
5.515505e+002,-2.765507e-004
5.534790e+002,-2.608476e-004
5.554075e+002,-2.069501e-004
5.573361e+002,-2.955794e-004
5.592645e+002,-3.953585e-004
5.611931e+002,-2.947468e-004
5.631215e+002,-3.066892e-004
5.650500e+002,-3.249198e-004
5.669785e+002,-3.039632e-004
5.689070e+002,-2.815127e-004
5.708355e+002,-3.555929e-004
5.727640e+002,-2.897140e-004
5.746925e+002,-2.683271e-004
5.766210e+002,-2.785083e-004
5.785495e+002,-3.840635e-004
5.804780e+002,-3.751153e-004
5.824065e+002,-3.884472e-004
5.843350e+002,-2.640439e-004
5.862635e+002,-1.945617e-004
5.881920e+002,-2.510501e-004
5.901205e+002,-2.855482e-004
5.920490e+002,-2.393210e-004
5.939775e+002,-3.787028e-004
5.959060e+002,-3.774036e-004
5.978345e+002,-3.281590e-004
5.997630e+002,-2.422351e-004
6.016915e+002,-1.943000e-004
6.036200e+002,-1.077168e-004
6.055485e+002,-6.604008e-005
6.074770e+002,5.125068e-006
6.094055e+002,-3.964826e-005
6.113340e+002,-1.031617e-004
6.132625e+002,-1.631547e-004
6.151910e+002,-2.650786e-004
6.171195e+002,-3.840933e-004
6.190480e+002,-2.634125e-004
6.209765e+002,-1.180908e-004
6.229050e+002,7.382873e-005
6.248335e+002,8.436479e-005
6.267620e+002,2.676994e-005
6.286905e+002,3.403332e-005
6.306190e+002,1.153573e-004
6.325475e+002,1.005391e-004
6.344760e+002,1.479331e-004
6.364045e+002,1.962874e-004
6.383330e+002,2.505081e-004
6.402615e+002,2.469290e-004
6.421899e+002,2.533123e-004
6.441185e+002,1.380574e-004
6.460470e+002,1.723245e-004
6.479755e+002,2.372330e-004
6.499039e+002,2.470482e-004
6.518325e+002,1.872387e-004
6.537610e+002,2.043722e-004
6.556895e+002,1.906883e-004
6.576179e+002,2.412284e-004
6.595464e+002,2.224427e-004
6.614750e+002,1.979899e-004
6.634034e+002,1.991494e-004
6.653319e+002,2.154848e-004
6.672604e+002,1.554014e-004
6.691890e+002,1.406986e-004
6.711174e+002,1.265379e-004
6.730460e+002,2.250671e-004
6.749745e+002,1.557721e-004
6.769030e+002,1.392607e-004
6.788314e+002,1.514154e-004
6.807599e+002,2.075303e-004
6.826885e+002,2.170922e-004
6.846169e+002,1.898156e-004
6.865454e+002,2.048751e-004
6.884739e+002,3.315881e-004
6.904025e+002,3.664410e-004
6.923309e+002,4.402446e-004
6.942594e+002,5.190624e-004
6.961879e+002,7.275138e-004
6.981165e+002,8.878997e-004
7.000449e+002,1.007085e-003
7.019734e+002,1.092812e-003
7.039019e+002,1.117092e-003
7.058304e+002,9.916387e-004
7.077589e+002,8.720104e-004
7.096874e+002,7.336307e-004
7.116159e+002,6.743334e-004
7.135444e+002,6.452752e-004
7.154729e+002,6.701471e-004
7.174014e+002,6.502438e-004
7.193299e+002,6.514974e-004
7.212584e+002,6.899210e-004
7.231869e+002,7.190788e-004
7.251154e+002,6.999075e-004
7.270439e+002,7.133298e-004
7.289724e+002,6.404631e-004
7.309009e+002,6.197412e-004
7.328294e+002,5.815607e-004
7.347579e+002,6.408310e-004
7.366864e+002,6.298479e-004
7.386149e+002,7.211156e-004
7.405434e+002,7.916661e-004
7.424719e+002,8.459948e-004
7.444004e+002,8.500637e-004
7.463289e+002,8.403752e-004
7.482574e+002,8.155964e-004
7.501859e+002,8.816011e-004
7.521144e+002,9.280806e-004
7.540428e+002,9.414610e-004
7.559714e+002,9.262376e-004
7.578999e+002,1.093632e-003
7.598284e+002,1.180621e-003
7.617568e+002,1.253919e-003
7.636854e+002,1.241832e-003
7.656139e+002,1.273905e-003
7.675424e+002,1.242500e-003
7.694709e+002,1.240847e-003
7.713994e+002,1.260301e-003
7.733279e+002,1.317577e-003
7.752563e+002,1.319902e-003
7.771849e+002,1.332018e-003
7.791134e+002,1.342600e-003
7.810419e+002,1.497208e-003
7.829703e+002,1.627300e-003
7.848989e+002,1.860350e-003
7.868274e+002,2.053896e-003
7.887559e+002,2.324782e-003
7.906843e+002,2.565667e-003
7.926129e+002,2.850886e-003
7.945414e+002,3.196911e-003
7.964698e+002,3.611465e-003
7.983983e+002,3.962307e-003
8.003268e+002,4.445015e-003
8.022554e+002,5.164261e-003
8.041838e+002,6.522002e-003
8.061123e+002,8.573362e-003
8.080408e+002,1.032665e-002
8.099694e+002,1.020112e-002
8.118978e+002,8.412047e-003
8.138263e+002,6.211278e-003
8.157548e+002,4.833157e-003
8.176833e+002,4.169263e-003
8.196118e+002,3.907487e-003
8.215403e+002,3.822391e-003
8.234689e+002,3.939310e-003
8.253973e+002,4.025127e-003
8.273258e+002,4.291458e-003
8.292543e+002,4.645107e-003
8.311829e+002,5.284594e-003
8.331113e+002,6.073610e-003
8.350398e+002,7.586569e-003
8.369683e+002,1.145316e-002
8.388969e+002,2.004952e-002
8.408253e+002,2.531850e-002
8.427538e+002,1.855594e-002
8.446823e+002,1.022450e-002
8.466108e+002,6.544723e-003
8.485393e+002,5.048202e-003
8.504678e+002,4.336331e-003
8.523963e+002,3.901243e-003
8.543248e+002,3.643953e-003
8.562533e+002,3.414543e-003
8.581818e+002,3.273279e-003
8.601103e+002,3.123977e-003
8.620388e+002,3.076226e-003
8.639673e+002,2.958222e-003
8.658958e+002,2.885323e-003
8.678243e+002,2.795856e-003
8.697528e+002,2.795483e-003
8.716813e+002,2.788509e-003
8.736098e+002,2.765508e-003
8.755383e+002,2.706062e-003
8.774668e+002,2.701588e-003
8.793953e+002,2.721759e-003
8.813238e+002,2.779037e-003
8.832523e+002,2.850006e-003
8.851808e+002,2.991566e-003
8.871093e+002,3.196223e-003
8.890378e+002,3.417562e-003
8.909663e+002,3.661136e-003
8.928948e+002,4.397059e-003
8.948232e+002,5.885733e-003
8.967518e+002,8.110098e-003
8.986803e+002,9.619407e-003
9.006088e+002,8.863513e-003
9.025372e+002,6.499346e-003
9.044658e+002,4.560485e-003
9.063943e+002,3.567183e-003
9.083228e+002,3.158834e-003
9.102512e+002,2.962420e-003
9.121797e+002,2.904733e-003
9.141083e+002,2.817690e-003
9.160367e+002,2.734933e-003
9.179653e+002,2.652197e-003
9.198937e+002,2.711289e-003
9.218223e+002,2.758485e-003
9.237507e+002,2.793708e-003
9.256793e+002,2.757274e-003
9.276077e+002,2.778476e-003
9.295363e+002,2.809452e-003
9.314647e+002,2.928209e-003
9.333932e+002,3.138147e-003
9.353217e+002,3.606338e-003
9.372502e+002,4.287703e-003
9.391787e+002,4.962520e-003
9.411072e+002,4.948964e-003
9.430358e+002,4.513318e-003
9.449642e+002,4.189327e-003
9.468928e+002,4.114958e-003
9.488212e+002,4.133699e-003
9.507498e+002,4.326689e-003
9.526782e+002,4.468933e-003
9.546068e+002,4.736761e-003
9.565352e+002,5.198333e-003
9.584637e+002,5.851666e-003
9.603922e+002,6.580148e-003
9.623207e+002,7.617446e-003
9.642492e+002,9.177363e-003
9.661777e+002,1.194923e-002
9.681062e+002,1.724427e-002
9.700347e+002,2.585865e-002
9.719632e+002,3.241058e-002
9.738917e+002,3.029613e-002
9.758202e+002,2.280959e-002
9.777487e+002,1.588264e-002
9.796772e+002,1.111574e-002
9.816057e+002,8.536663e-003
9.835342e+002,7.398304e-003
9.854627e+002,7.166322e-003
9.873912e+002,7.599737e-003
9.893197e+002,8.928902e-003
9.912482e+002,1.142109e-002
9.931767e+002,1.616429e-002
9.951052e+002,2.330807e-002
9.970337e+002,2.877527e-002
9.989622e+002,2.637880e-002
1.000891e+003,1.867045e-002
1.002819e+003,1.229014e-002
1.004748e+003,8.888780e-003
1.006676e+003,7.176455e-003
1.008605e+003,6.256845e-003
1.010533e+003,5.690872e-003
1.012462e+003,5.354404e-003
1.014390e+003,5.117591e-003
1.016319e+003,4.973405e-003
1.018247e+003,4.824767e-003
1.020176e+003,4.732141e-003
1.022104e+003,4.641593e-003
1.024033e+003,4.694711e-003
1.025961e+003,4.655318e-003
1.027890e+003,4.696327e-003
1.029818e+003,4.736943e-003
1.031747e+003,4.850775e-003
1.033675e+003,4.995021e-003
1.035604e+003,5.123384e-003
1.037532e+003,5.165465e-003
1.039461e+003,5.378300e-003
1.041389e+003,5.847728e-003
1.043318e+003,6.417713e-003
1.045246e+003,6.388729e-003
1.047175e+003,5.889126e-003
1.049103e+003,5.328184e-003
1.051032e+003,4.986085e-003
1.052960e+003,4.786577e-003
1.054889e+003,4.710110e-003
1.056817e+003,4.559087e-003
1.058746e+003,4.518222e-003
1.060674e+003,4.487726e-003
1.062603e+003,4.488381e-003
1.064531e+003,4.443929e-003
1.066460e+003,4.485125e-003
1.068388e+003,4.522093e-003
1.070317e+003,4.584421e-003
1.072245e+003,4.598280e-003
1.074174e+003,4.683849e-003
1.076102e+003,4.747825e-003
1.078031e+003,4.822616e-003
1.079959e+003,4.848754e-003
1.081888e+003,4.972681e-003
1.083816e+003,5.076975e-003
1.085745e+003,5.162382e-003
1.087673e+003,5.233995e-003
1.089602e+003,5.438521e-003
1.091530e+003,5.616879e-003
1.093459e+003,5.888225e-003
1.095387e+003,6.252510e-003
1.097316e+003,6.850917e-003
1.099244e+003,7.560561e-003
1.101173e+003,8.286959e-003
1.103101e+003,8.370836e-003
1.105030e+003,7.752825e-003
1.106958e+003,6.905956e-003
1.108887e+003,6.361712e-003
1.110815e+003,5.971042e-003
1.112744e+003,5.705747e-003
1.114672e+003,5.468499e-003
1.116601e+003,5.368060e-003
1.118529e+003,5.250858e-003
1.120458e+003,5.233509e-003
1.122386e+003,5.209305e-003
1.124315e+003,5.192180e-003
1.126243e+003,5.143050e-003
1.128172e+003,5.238548e-003
1.130100e+003,5.346416e-003
1.132029e+003,5.512256e-003
1.133957e+003,5.711376e-003
1.135885e+003,6.118786e-003
1.137814e+003,6.600454e-003
1.139743e+003,7.292595e-003
1.141671e+003,8.071608e-003
1.143600e+003,9.105105e-003
1.145528e+003,1.033244e-002
1.147457e+003,1.188634e-002
1.149385e+003,1.362647e-002
1.151314e+003,1.518247e-002
1.153242e+003,1.606856e-002
1.155171e+003,1.673420e-002
1.157099e+003,1.753519e-002
1.159028e+003,1.884014e-002
1.160956e+003,2.089270e-002
1.162885e+003,2.412430e-002
1.164813e+003,2.804528e-002
1.166742e+003,3.062316e-002
1.168670e+003,2.852979e-002
1.170599e+003,2.221818e-002
1.172527e+003,1.558476e-002
1.174456e+003,1.108241e-002
1.176384e+003,8.454081e-003
1.178313e+003,7.031679e-003
1.180241e+003,6.190274e-003
1.182170e+003,5.762373e-003
1.184098e+003,5.476227e-003
1.186027e+003,5.392868e-003
1.187955e+003,5.360923e-003
1.189884e+003,5.435802e-003
1.191812e+003,5.461203e-003
1.193740e+003,5.577806e-003
1.195669e+003,5.691966e-003
1.197598e+003,5.832136e-003
1.199526e+003,5.944367e-003
1.201455e+003,6.135365e-003
1.203383e+003,6.276468e-003
1.205312e+003,6.483182e-003
1.207240e+003,6.706872e-003
1.209168e+003,7.001930e-003
1.211097e+003,7.271502e-003
1.213026e+003,7.669484e-003
1.214954e+003,8.085717e-003
1.216883e+003,8.520282e-003
1.218811e+003,8.721430e-003
1.220740e+003,8.695792e-003
1.222668e+003,8.342830e-003
1.224596e+003,8.036716e-003
1.226525e+003,7.814124e-003
1.228453e+003,7.749361e-003
1.230382e+003,7.729359e-003
1.232311e+003,7.815263e-003
1.234239e+003,7.798977e-003
1.236167e+003,7.854450e-003
1.238096e+003,7.864356e-003
1.240025e+003,7.899093e-003
1.241953e+003,7.944332e-003
1.243882e+003,8.092440e-003
1.245810e+003,8.180180e-003
1.247739e+003,8.436285e-003
1.249667e+003,8.882576e-003
1.251595e+003,9.937866e-003
1.253524e+003,1.148182e-002
1.255453e+003,1.217940e-002
1.257381e+003,1.093644e-002
1.259310e+003,9.306503e-003
1.261238e+003,8.107619e-003
1.263167e+003,7.388176e-003
1.265095e+003,6.882459e-003
1.267023e+003,6.620033e-003
1.268952e+003,6.404096e-003
1.270880e+003,6.317540e-003
1.272809e+003,6.216353e-003
1.274738e+003,6.247254e-003
1.276666e+003,6.238304e-003
1.278594e+003,6.377693e-003
1.280523e+003,6.487273e-003
1.282451e+003,6.694091e-003
1.284380e+003,6.896919e-003
1.286308e+003,7.227605e-003
1.288237e+003,7.609801e-003
1.290166e+003,8.228638e-003
1.292094e+003,8.901555e-003
1.294022e+003,9.664753e-003
1.295951e+003,1.001397e-002
1.297879e+003,1.009699e-002
1.299808e+003,1.032625e-002
1.301736e+003,1.162328e-002
1.303665e+003,1.310863e-002
1.305594e+003,1.240156e-002
1.307522e+003,9.741683e-003
1.309450e+003,8.037213e-003
1.311379e+003,7.402392e-003
1.313307e+003,7.371530e-003
1.315236e+003,7.395786e-003
1.317164e+003,7.743347e-003
1.319093e+003,8.031218e-003
1.321021e+003,8.462774e-003
1.322950e+003,9.060837e-003
1.324878e+003,1.006254e-002
1.326807e+003,1.074747e-002
1.328735e+003,1.121527e-002
1.330664e+003,1.094041e-002
1.332592e+003,1.037035e-002
1.334521e+003,9.795846e-003
1.336449e+003,9.827267e-003
1.338378e+003,1.006228e-002
1.340306e+003,1.054357e-002
1.342235e+003,1.078158e-002
1.344163e+003,1.164752e-002
1.346092e+003,1.275220e-002
1.348021e+003,1.453996e-002
1.349949e+003,1.672878e-002
1.351877e+003,2.017230e-002
1.353806e+003,2.513501e-002
1.355734e+003,3.220074e-002
1.357663e+003,3.732651e-002
1.359591e+003,3.783274e-002
1.361520e+003,3.387071e-002
1.363448e+003,3.042259e-002
1.365377e+003,3.011654e-002
1.367305e+003,3.560112e-002
1.369234e+003,5.059730e-002
1.371162e+003,7.801538e-002
1.373091e+003,1.183404e-001
1.375019e+003,1.556657e-001
1.376948e+003,1.386832e-001
1.378876e+003,9.402156e-002
1.380805e+003,5.775034e-002
1.382733e+003,3.521183e-002
1.384662e+003,2.237048e-002
1.386590e+003,1.541044e-002
1.388519e+003,1.162299e-002
1.390447e+003,9.912699e-003
1.392376e+003,9.388780e-003
1.394304e+003,8.867867e-003
1.396233e+003,8.625288e-003
1.398161e+003,8.372877e-003
1.400090e+003,8.223536e-003
1.402018e+003,7.979844e-003
1.403947e+003,8.159158e-003
1.405875e+003,8.091984e-003
1.407804e+003,8.194773e-003
1.409732e+003,8.376827e-003
1.411661e+003,8.657606e-003
1.413589e+003,8.769913e-003
1.415518e+003,9.220703e-003
1.417446e+003,9.749990e-003
1.419375e+003,1.017185e-002
1.421303e+003,1.049397e-002
1.423232e+003,1.127689e-002
1.425160e+003,1.220566e-002
1.427089e+003,1.342106e-002
1.429017e+003,1.599748e-002
1.430946e+003,2.111882e-002
1.432874e+003,2.849763e-002
1.434803e+003,3.480420e-002
1.436731e+003,3.612768e-002
1.438660e+003,3.561869e-002
1.440588e+003,3.850887e-002
1.442517e+003,4.542940e-002
1.444445e+003,5.684888e-002
1.446374e+003,7.096311e-002
1.448302e+003,8.632196e-002
1.450231e+003,9.337926e-002
1.452159e+003,9.561337e-002
1.454088e+003,9.553289e-002
1.456016e+003,9.557085e-002
1.457945e+003,9.129290e-002
1.459873e+003,8.721111e-002
1.461802e+003,8.214183e-002
1.463730e+003,7.469507e-002
1.465659e+003,5.991030e-002
1.467587e+003,4.799947e-002
1.469516e+003,3.840432e-002
1.471444e+003,3.024459e-002
1.473373e+003,2.030896e-002
1.475301e+003,1.572021e-002
1.477230e+003,1.227812e-002
1.479158e+003,1.030581e-002
1.481087e+003,8.803658e-003
1.483015e+003,7.665170e-003
1.484944e+003,6.950689e-003
1.486872e+003,6.667683e-003
1.488801e+003,6.358996e-003
1.490729e+003,5.779942e-003
1.492658e+003,5.343763e-003
1.494586e+003,5.379096e-003
1.496515e+003,5.143516e-003
1.498443e+003,4.768845e-003
1.500372e+003,4.431318e-003
1.502300e+003,4.256578e-003
1.504229e+003,4.344139e-003
1.506157e+003,4.730452e-003
1.508086e+003,4.436776e-003
1.510014e+003,4.201867e-003
1.511943e+003,4.004551e-003
1.513871e+003,4.024679e-003
1.515800e+003,4.234843e-003
1.517728e+003,4.193645e-003
1.519657e+003,4.224828e-003
1.521585e+003,4.248308e-003
1.523514e+003,4.004991e-003
1.525442e+003,4.121184e-003
1.527371e+003,3.936147e-003
1.529299e+003,3.752336e-003
1.531228e+003,3.876548e-003
1.533156e+003,4.111195e-003
1.535085e+003,3.915582e-003
1.537013e+003,4.171448e-003
1.538942e+003,4.723510e-003
1.540870e+003,4.778303e-003
1.542799e+003,4.616702e-003
1.544727e+003,4.421633e-003
1.546656e+003,3.958737e-003
1.548584e+003,4.023433e-003
1.550513e+003,4.100185e-003
1.552441e+003,4.092200e-003
1.554370e+003,4.237631e-003
1.556298e+003,4.467437e-003
1.558227e+003,4.926581e-003
1.560155e+003,4.056696e-003
1.562084e+003,3.840551e-003
1.564012e+003,3.822887e-003
1.565941e+003,3.743688e-003
1.567869e+003,3.965080e-003
1.569798e+003,4.006006e-003
1.571726e+003,3.652243e-003
1.573655e+003,3.750406e-003
1.575583e+003,4.021829e-003
1.577512e+003,3.759554e-003
1.579440e+003,3.589675e-003
1.581369e+003,3.565254e-003
1.583297e+003,3.520252e-003
1.585226e+003,3.514940e-003
1.587154e+003,3.574383e-003
1.589083e+003,3.612457e-003
1.591011e+003,3.586434e-003
1.592940e+003,3.602464e-003
1.594868e+003,3.721796e-003
1.596797e+003,3.735507e-003
1.598725e+003,3.739446e-003
1.600654e+003,3.850708e-003
1.602582e+003,3.949467e-003
1.604511e+003,3.919210e-003
1.606439e+003,3.990512e-003
1.608368e+003,4.046855e-003
1.610296e+003,3.945384e-003
1.612225e+003,3.892371e-003
1.614153e+003,4.087947e-003
1.616082e+003,4.360929e-003
1.618010e+003,4.125118e-003
1.619939e+003,4.129963e-003
1.621867e+003,4.369726e-003
1.623796e+003,4.345736e-003
1.625724e+003,4.319146e-003
1.627653e+003,4.430447e-003
1.629581e+003,4.287679e-003
1.631510e+003,4.341483e-003
1.633438e+003,4.688857e-003
1.635367e+003,5.059045e-003
1.637295e+003,4.774218e-003
1.639224e+003,4.639568e-003
1.641152e+003,4.585747e-003
1.643081e+003,4.668394e-003
1.645009e+003,5.126493e-003
1.646938e+003,5.461473e-003
1.648866e+003,4.976930e-003
1.650795e+003,5.112035e-003
1.652723e+003,5.433682e-003
1.654652e+003,4.852636e-003
1.656580e+003,4.639160e-003
1.658509e+003,4.577091e-003
1.660437e+003,4.619477e-003
1.662366e+003,4.685793e-003
1.664294e+003,4.414868e-003
1.666223e+003,4.452381e-003
1.668151e+003,4.719611e-003
1.670080e+003,4.620295e-003
1.672008e+003,4.395464e-003
1.673937e+003,4.404737e-003
1.675865e+003,4.208853e-003
1.677794e+003,4.117314e-003
1.679722e+003,4.301617e-003
1.681651e+003,4.400818e-003
1.683579e+003,4.452432e-003
1.685508e+003,3.937572e-003
1.687436e+003,3.992306e-003
1.689365e+003,3.908666e-003
1.691293e+003,3.659341e-003
1.693222e+003,3.794150e-003
1.695150e+003,4.052114e-003
1.697079e+003,4.018318e-003
1.699007e+003,4.086209e-003
1.700936e+003,3.646119e-003
1.702864e+003,3.540572e-003
1.704793e+003,3.615404e-003
1.706721e+003,3.352521e-003
1.708650e+003,3.230916e-003
1.710578e+003,3.257871e-003
1.712507e+003,3.320901e-003
1.714435e+003,3.646098e-003
1.716364e+003,3.781060e-003
1.718292e+003,3.287451e-003
1.720221e+003,2.950631e-003
1.722149e+003,3.055878e-003
1.724078e+003,3.025638e-003
1.726006e+003,2.931999e-003
1.727935e+003,2.979245e-003
1.729863e+003,3.213745e-003
1.731792e+003,3.388919e-003
1.733720e+003,3.373034e-003
1.735649e+003,2.905916e-003
1.737577e+003,3.062461e-003
1.739506e+003,3.169304e-003
1.741434e+003,3.139582e-003
1.743363e+003,3.290089e-003
1.745291e+003,3.266620e-003
1.747220e+003,3.343567e-003
1.749148e+003,3.290109e-003
1.751077e+003,2.864137e-003
1.753005e+003,2.479056e-003
1.754934e+003,2.405986e-003
1.756862e+003,2.335971e-003
1.758791e+003,2.216741e-003
1.760719e+003,2.307825e-003
1.762648e+003,2.082471e-003
1.764576e+003,1.926264e-003
1.766505e+003,2.012715e-003
1.768433e+003,2.063455e-003
1.770362e+003,2.184983e-003
1.772290e+003,2.115265e-003
1.774219e+003,1.649085e-003
1.776147e+003,1.583949e-003
1.778076e+003,1.700047e-003
1.780004e+003,1.809305e-003
1.781933e+003,1.639539e-003
1.783861e+003,1.754619e-003
1.785790e+003,1.674723e-003
1.787718e+003,1.574816e-003
1.789646e+003,1.779800e-003
1.791575e+003,1.992272e-003
1.793504e+003,1.719948e-003
1.795432e+003,1.670131e-003
1.797361e+003,1.559608e-003
1.799289e+003,1.547849e-003
1.801218e+003,1.449244e-003
1.803146e+003,1.307132e-003
1.805074e+003,1.137719e-003
1.807003e+003,1.078820e-003
1.808932e+003,1.037301e-003
1.810860e+003,9.958036e-004
1.812789e+003,6.785486e-004
1.814717e+003,1.820903e-004
1.816646e+003,-2.992712e-005
1.818574e+003,4.378017e-004
1.820502e+003,8.079149e-004
1.822431e+003,1.035310e-003
1.824360e+003,9.490233e-004
1.826288e+003,7.638764e-004
1.828217e+003,8.530840e-004
1.830145e+003,9.284113e-004
1.832073e+003,6.459467e-004
1.834002e+003,5.683936e-004
1.835931e+003,6.064624e-004
1.837859e+003,6.442852e-004
1.839788e+003,4.719459e-004
1.841716e+003,4.287828e-004
1.843645e+003,3.718082e-004
1.845573e+003,3.662743e-004
1.847501e+003,4.107151e-004
1.849430e+003,3.447551e-004
1.851359e+003,2.445746e-004
1.853287e+003,3.371648e-004
1.855216e+003,3.467165e-004
1.857144e+003,1.676735e-004
1.859073e+003,-8.989312e-005
1.861001e+003,2.501532e-006
1.862929e+003,1.285281e-004
1.864858e+003,3.990643e-004
1.866787e+003,4.846416e-004
1.868715e+003,2.018325e-004
1.870644e+003,-7.874519e-005
1.872572e+003,-2.370775e-004
1.874500e+003,-4.357807e-004
1.876429e+003,-3.898833e-004
1.878357e+003,-3.152955e-004
1.880286e+003,-3.052484e-004
1.882215e+003,-4.412364e-004
1.884143e+003,-2.814438e-004
1.886072e+003,-2.187826e-004
1.888000e+003,-1.423564e-004
1.889928e+003,-3.699362e-004
1.891857e+003,-7.539615e-004
1.893785e+003,-8.580703e-004
1.895714e+003,-6.878711e-004
1.897643e+003,-7.229224e-004
1.899571e+003,-7.681753e-004
1.901500e+003,-7.551983e-004
1.903428e+003,-7.422324e-004
1.905356e+003,-7.292796e-004
1.907285e+003,-7.163398e-004
1.909213e+003,-7.034149e-004
1.911142e+003,-6.904975e-004
1.913071e+003,-6.776005e-004
1.914999e+003,-6.647110e-004
1.916927e+003,-6.518345e-004
1.918856e+003,-6.389711e-004
1.920784e+003,-6.261244e-004
1.922713e+003,-6.132852e-004
1.924641e+003,-6.004646e-004
1.926570e+003,-5.876496e-004
1.928499e+003,-5.748533e-004
1.930427e+003,-5.620681e-004
1.932355e+003,-5.492941e-004
1.934284e+003,-5.365349e-004
1.936212e+003,-5.237870e-004
1.938141e+003,-5.110539e-004
1.940070e+003,-4.983321e-004
1.941998e+003,-4.856214e-004
1.943927e+003,-4.729275e-004
1.945855e+003,-4.602447e-004
1.947783e+003,-4.475750e-004
1.949712e+003,-4.349202e-004
1.951640e+003,-4.222747e-004
1.953569e+003,-4.096422e-004
1.955498e+003,-3.970228e-004
1.957426e+003,-3.844202e-004
1.959354e+003,-3.718249e-004
1.961283e+003,-3.592484e-004
1.963211e+003,-3.466774e-004
1.965140e+003,-3.341250e-004
1.967068e+003,-3.215838e-004
1.968997e+003,-3.090557e-004
1.970926e+003,-2.965387e-004
1.972854e+003,-2.840366e-004
1.974782e+003,-2.715476e-004
1.976711e+003,-2.590716e-004
1.978639e+003,-2.466030e-004
1.980568e+003,-2.341531e-004
1.982496e+003,-2.217144e-004
1.984425e+003,-2.092887e-004
1.986354e+003,-1.968779e-004
1.988282e+003,-1.844764e-004
1.990210e+003,-1.720879e-004
1.992139e+003,-1.597125e-004
1.994067e+003,-1.473539e-004
1.995996e+003,-1.350045e-004
1.997924e+003,-1.226682e-004
1.999853e+003,-1.103450e-004
2.001781e+003,-9.803474e-005
2.003710e+003,-8.573942e-005
2.005638e+003,-7.345527e-005
2.007567e+003,-6.118044e-005
2.009495e+003,-4.892237e-005
2.011424e+003,-3.667921e-005
2.013352e+003,-2.444535e-005
2.015281e+003,-1.222268e-005
2.017209e+003,-1.676381e-008
2.019138e+003,1.217797e-005
2.021066e+003,2.435967e-005
2.022995e+003,3.652833e-005
2.024923e+003,4.868582e-005
2.026852e+003,6.082840e-005
2.028781e+003,7.295981e-005
2.030709e+003,8.507445e-005
2.032637e+003,9.718165e-005
2.034566e+003,1.092721e-004
2.036494e+003,1.213532e-004
2.038423e+003,1.334175e-004
2.040351e+003,1.454707e-004
2.042280e+003,1.575127e-004
2.044208e+003,1.695380e-004
2.046137e+003,1.815539e-004
2.048065e+003,1.935530e-004
2.049994e+003,2.055429e-004
2.051922e+003,2.175178e-004
2.053851e+003,2.294853e-004
2.055779e+003,2.414342e-004
2.057708e+003,2.533719e-004
2.059636e+003,2.652965e-004
2.061565e+003,2.772063e-004
2.063493e+003,2.891086e-004
2.065422e+003,3.009923e-004
2.067350e+003,3.128648e-004
2.069279e+003,3.247280e-004
2.071207e+003,3.365763e-004
2.073136e+003,3.484096e-004
2.075064e+003,3.602318e-004
2.076993e+003,3.720410e-004
2.078921e+003,3.838371e-004
2.080850e+003,3.956221e-004
2.082778e+003,4.073903e-004
2.084707e+003,4.191510e-004
2.086635e+003,4.308932e-004
2.088564e+003,4.426278e-004
2.090492e+003,4.543457e-004
2.092421e+003,4.660524e-004
2.094349e+003,4.777461e-004
2.096278e+003,4.894249e-004
2.098206e+003,5.010962e-004
2.100135e+003,5.127490e-004
2.102063e+003,5.243924e-004
2.103992e+003,5.360227e-004
2.105920e+003,5.476363e-004
2.107849e+003,5.592406e-004
2.109777e+003,5.708300e-004
2.111706e+003,5.824063e-004
2.113634e+003,5.939752e-004
2.115563e+003,6.055273e-004
2.117491e+003,6.170645e-004
2.119420e+003,6.285943e-004
2.121348e+003,6.401073e-004
2.123277e+003,6.516073e-004
2.125205e+003,6.630942e-004
2.127134e+003,6.745681e-004
2.129062e+003,6.860346e-004
2.130991e+003,6.974824e-004
2.132919e+003,7.089190e-004
2.134848e+003,7.203426e-004
2.136776e+003,7.317532e-004
2.138705e+003,7.431488e-004
2.140633e+003,7.545352e-004
2.142562e+003,7.659104e-004
2.144490e+003,7.772688e-004
2.146419e+003,7.886179e-004
2.148347e+003,7.999483e-004
2.150276e+003,8.112714e-004
2.152204e+003,8.225795e-004
2.154133e+003,8.338727e-004
2.156061e+003,8.451585e-004
2.157990e+003,8.564275e-004
2.159918e+003,8.676853e-004
2.161847e+003,8.789264e-004
2.163775e+003,8.901563e-004
2.165704e+003,9.013750e-004
2.167632e+003,9.125806e-004
2.169561e+003,9.237714e-004
2.171489e+003,9.349510e-004
2.173418e+003,9.461213e-004
2.175346e+003,9.572748e-004
2.177275e+003,9.684153e-004
2.179203e+003,9.795427e-004
2.181132e+003,9.906590e-004
2.183060e+003,1.001760e-003
2.184989e+003,1.012851e-003
2.186917e+003,1.023931e-003
2.188846e+003,1.034994e-003
2.190774e+003,1.046043e-003
2.192703e+003,1.057079e-003
2.194631e+003,1.068106e-003
2.196560e+003,1.079120e-003
2.198488e+003,1.090119e-003
2.200417e+003,1.101106e-003
2.202345e+003,1.112083e-003
2.204274e+003,1.123043e-003
2.206202e+003,1.133990e-003
2.208131e+003,1.144925e-003
2.210059e+003,1.155850e-003
2.211988e+003,1.166759e-003
2.213916e+003,1.177654e-003
2.215845e+003,1.188535e-003
2.217773e+003,1.199411e-003
2.219702e+003,1.210270e-003
2.221630e+003,1.221118e-003
2.223559e+003,1.231948e-003
2.225487e+003,1.242766e-003
2.227416e+003,1.253575e-003
2.229344e+003,1.264371e-003
2.231273e+003,1.275152e-003
2.233201e+003,1.285922e-003
2.235130e+003,1.296675e-003
2.237058e+003,1.307420e-003
2.238987e+003,1.318147e-003
2.240915e+003,1.328863e-003
2.242844e+003,1.339566e-003
2.244772e+003,1.350263e-003
2.246701e+003,1.360940e-003
2.248629e+003,1.371607e-003
2.250558e+003,1.382258e-003
2.252486e+003,1.392899e-003
2.254415e+003,1.403525e-003
2.256343e+003,1.414141e-003
2.258272e+003,1.424739e-003
2.260200e+003,1.435328e-003
2.262129e+003,1.445908e-003
2.264057e+003,1.456473e-003
2.265986e+003,1.467017e-003
2.267914e+003,1.477556e-003
2.269843e+003,1.488080e-003
2.271771e+003,1.498593e-003
2.273700e+003,1.509089e-003
2.275628e+003,1.519581e-003
2.277557e+003,1.530053e-003
2.279485e+003,1.540514e-003
2.281414e+003,1.550959e-003
2.283342e+003,1.561394e-003
2.285271e+003,1.571814e-003
2.287199e+003,1.582220e-003
2.289128e+003,1.592621e-003
2.291056e+003,1.603005e-003
2.292985e+003,1.613373e-003
2.294913e+003,1.623731e-003
2.296842e+003,1.634076e-003
2.298770e+003,1.644408e-003
2.300699e+003,1.654726e-003
2.302627e+003,1.665033e-003
2.304556e+003,1.675326e-003
2.306484e+003,1.685608e-003
2.308413e+003,1.695875e-003
2.310341e+003,1.706131e-003
2.312270e+003,1.716368e-003
2.314198e+003,1.726598e-003
2.316127e+003,1.736814e-003
2.318055e+003,1.747016e-003
2.319984e+003,1.757210e-003
2.321912e+003,1.767386e-003
2.323841e+003,1.777550e-003
2.325769e+003,1.787705e-003
2.327698e+003,1.797844e-003
2.329626e+003,1.807969e-003
2.331555e+003,1.818080e-003
2.333483e+003,1.828184e-003
2.335412e+003,1.838274e-003
2.337340e+003,1.848347e-003
2.339269e+003,1.858406e-003
2.341197e+003,1.868457e-003
2.343126e+003,1.878494e-003
2.345054e+003,1.888517e-003
2.346983e+003,1.898531e-003
2.348911e+003,1.908526e-003
2.350840e+003,1.918511e-003
2.352768e+003,1.928484e-003
2.354697e+003,1.938442e-003
2.356625e+003,1.948386e-003
2.358554e+003,1.958322e-003
2.360482e+003,1.968240e-003
2.362411e+003,1.978146e-003
2.364339e+003,1.988048e-003
2.366268e+003,1.997929e-003
2.368196e+003,2.007795e-003
2.370125e+003,2.017656e-003
2.372053e+003,2.027495e-003
2.373982e+003,2.037324e-003
2.375910e+003,2.047144e-003
2.377839e+003,2.056954e-003
2.379767e+003,2.066746e-003
2.381696e+003,2.076523e-003
2.383624e+003,2.086289e-003
2.385553e+003,2.096042e-003
2.387481e+003,2.105784e-003
2.389410e+003,2.115509e-003
2.391338e+003,2.125232e-003
2.393267e+003,2.134930e-003
2.395195e+003,2.144620e-003
2.397124e+003,2.154298e-003
2.399052e+003,2.163960e-003
2.400981e+003,2.089569e-003
2.402909e+003,2.163930e-003
2.404838e+003,2.087677e-003
2.406766e+003,2.274921e-003
2.408695e+003,2.604660e-003
2.410623e+003,2.593460e-003
2.412552e+003,2.678500e-003
2.414480e+003,2.727445e-003
2.416409e+003,2.752533e-003
2.418337e+003,2.715763e-003
2.420266e+003,2.716398e-003
2.422194e+003,2.806854e-003
2.424123e+003,3.008820e-003
2.426051e+003,3.011124e-003
2.427979e+003,2.966985e-003
2.429908e+003,2.887944e-003
2.431837e+003,2.993654e-003
2.433765e+003,3.208226e-003
2.435694e+003,3.233347e-003
2.437622e+003,3.107395e-003
2.439551e+003,3.132118e-003
2.441479e+003,3.191603e-003
2.443407e+003,3.290016e-003
2.445336e+003,3.340289e-003
2.447265e+003,3.379302e-003
2.449193e+003,3.359076e-003
2.451122e+003,3.456391e-003
2.453050e+003,3.552772e-003
2.454979e+003,3.564101e-003
2.456907e+003,3.325729e-003
2.458836e+003,3.199924e-003
2.460764e+003,3.218500e-003
2.462693e+003,3.146129e-003
2.464621e+003,3.045876e-003
2.466550e+003,3.097491e-003
2.468478e+003,3.008779e-003
2.470406e+003,2.949182e-003
2.472335e+003,2.947781e-003
2.474264e+003,3.077397e-003
2.476192e+003,3.019610e-003
2.478121e+003,2.986515e-003
2.480049e+003,3.117783e-003
2.481978e+003,3.270710e-003
2.483906e+003,3.319455e-003
2.485835e+003,3.308173e-003
2.487763e+003,3.243502e-003
2.489692e+003,3.313227e-003
2.491620e+003,3.285844e-003
2.493549e+003,3.394989e-003
2.495477e+003,3.438711e-003
2.497406e+003,3.446262e-003
2.499334e+003,3.492014e-003
2.501263e+003,3.528297e-003
2.503191e+003,3.473839e-003
2.505120e+003,3.484115e-003
2.507048e+003,3.456837e-003
2.508977e+003,3.386697e-003
2.510905e+003,3.273629e-003
2.512833e+003,3.261231e-003
2.514762e+003,3.358800e-003
2.516691e+003,3.478970e-003
2.518619e+003,3.661504e-003
2.520548e+003,3.904516e-003
2.522476e+003,3.996784e-003
2.524405e+003,3.987107e-003
2.526333e+003,4.057270e-003
2.528261e+003,4.174214e-003
2.530190e+003,4.275385e-003
2.532119e+003,4.364541e-003
2.534047e+003,4.394408e-003
2.535976e+003,4.517993e-003
2.537904e+003,4.424321e-003
2.539833e+003,4.468720e-003
2.541761e+003,4.751496e-003
2.543689e+003,4.829668e-003
2.545618e+003,4.808664e-003
2.547547e+003,4.996400e-003
2.549475e+003,5.126026e-003
2.551404e+003,5.240873e-003
2.553332e+003,5.253740e-003
2.555260e+003,5.418520e-003
2.557189e+003,5.525984e-003
2.559117e+003,5.418513e-003
2.561046e+003,5.588569e-003
2.562975e+003,5.854212e-003
2.564903e+003,5.885024e-003
2.566832e+003,5.981468e-003
2.568760e+003,6.190620e-003
2.570688e+003,6.489716e-003
2.572617e+003,6.670285e-003
2.574546e+003,7.182397e-003
2.576474e+003,7.710285e-003
2.578403e+003,7.939819e-003
2.580331e+003,7.973272e-003
2.582260e+003,7.976659e-003
2.584188e+003,7.839493e-003
2.586116e+003,7.746227e-003
2.588045e+003,7.519349e-003
2.589974e+003,7.351365e-003
2.591902e+003,7.244498e-003
2.593831e+003,7.287923e-003
2.595759e+003,7.370859e-003
2.597688e+003,7.363640e-003
2.599616e+003,7.285971e-003
2.601544e+003,7.500861e-003
2.603473e+003,7.787097e-003
2.605402e+003,8.047003e-003
2.607330e+003,8.328736e-003
2.609259e+003,8.664388e-003
2.611187e+003,8.960236e-003
2.613115e+003,9.124771e-003
2.615044e+003,9.174552e-003
2.616972e+003,9.237476e-003
2.618901e+003,9.312935e-003
2.620830e+003,9.406243e-003
2.622758e+003,9.477600e-003
2.624687e+003,9.525321e-003
2.626615e+003,9.554219e-003
2.628543e+003,9.596091e-003
2.630472e+003,9.640265e-003
2.632400e+003,9.618796e-003
2.634329e+003,9.600427e-003
2.636258e+003,9.703398e-003
2.638186e+003,9.839293e-003
2.640115e+003,1.004101e-002
2.642043e+003,1.016052e-002
2.643971e+003,1.034069e-002
2.645900e+003,1.054805e-002
2.647828e+003,1.064350e-002
2.649757e+003,1.066564e-002
2.651686e+003,1.072994e-002
2.653614e+003,1.093163e-002
2.655542e+003,1.114164e-002
2.657471e+003,1.119254e-002
2.659399e+003,1.110140e-002
2.661328e+003,1.082023e-002
2.663256e+003,1.046070e-002
2.665185e+003,1.009273e-002
2.667114e+003,9.886939e-003
2.669042e+003,9.820383e-003
2.670970e+003,9.852204e-003
2.672899e+003,9.884693e-003
2.674827e+003,9.949900e-003
2.676756e+003,1.000721e-002
2.678685e+003,1.005350e-002
2.680613e+003,1.007275e-002
2.682542e+003,1.009633e-002
2.684470e+003,1.007057e-002
2.686398e+003,1.006360e-002
2.688327e+003,1.012490e-002
2.690255e+003,1.018638e-002
2.692184e+003,1.018229e-002
2.694113e+003,1.020584e-002
2.696041e+003,1.020911e-002
2.697969e+003,1.028895e-002
2.699898e+003,1.048198e-002
2.701826e+003,1.072427e-002
2.703755e+003,1.097898e-002
2.705683e+003,1.124920e-002
2.707612e+003,1.160998e-002
2.709541e+003,1.202517e-002
2.711469e+003,1.241140e-002
2.713397e+003,1.298183e-002
2.715326e+003,1.372715e-002
2.717254e+003,1.455009e-002
2.719183e+003,1.543674e-002
2.721111e+003,1.612374e-002
2.723040e+003,1.610050e-002
2.724969e+003,1.554600e-002
2.726897e+003,1.476250e-002
2.728825e+003,1.401495e-002
2.730754e+003,1.352839e-002
2.732682e+003,1.313739e-002
2.734611e+003,1.275128e-002
2.736539e+003,1.242436e-002
2.738468e+003,1.211367e-002
2.740396e+003,1.182187e-002
2.742325e+003,1.152916e-002
2.744253e+003,1.132373e-002
2.746182e+003,1.121517e-002
2.748110e+003,1.121926e-002
2.750039e+003,1.118997e-002
2.751967e+003,1.115252e-002
2.753896e+003,1.125552e-002
2.755824e+003,1.144452e-002
2.757753e+003,1.168153e-002
2.759681e+003,1.192458e-002
2.761610e+003,1.215947e-002
2.763538e+003,1.241472e-002
2.765467e+003,1.262063e-002
2.767395e+003,1.278307e-002
2.769324e+003,1.297758e-002
2.771252e+003,1.323182e-002
2.773181e+003,1.353272e-002
2.775109e+003,1.383846e-002
2.777038e+003,1.427282e-002
2.778966e+003,1.483914e-002
2.780895e+003,1.535543e-002
2.782823e+003,1.607100e-002
2.784752e+003,1.689694e-002
2.786680e+003,1.774128e-002
2.788609e+003,1.871917e-002
2.790537e+003,1.976425e-002
2.792466e+003,2.071047e-002
2.794394e+003,2.144400e-002
2.796323e+003,2.202116e-002
2.798251e+003,2.268501e-002
2.800180e+003,2.359436e-002
2.802108e+003,2.491852e-002
2.804037e+003,2.659828e-002
2.805965e+003,2.830748e-002
2.807894e+003,2.987488e-002
2.809822e+003,3.125267e-002
2.811751e+003,3.265991e-002
2.813679e+003,3.428385e-002
2.815608e+003,3.616056e-002
2.817536e+003,3.846935e-002
2.819465e+003,4.136617e-002
2.821393e+003,4.499117e-002
2.823322e+003,4.960437e-002
2.825250e+003,5.584897e-002
2.827179e+003,6.478538e-002
2.829107e+003,7.805841e-002
2.831036e+003,9.757258e-002
2.832964e+003,1.234064e-001
2.834893e+003,1.500292e-001
2.836821e+003,1.672623e-001
2.838750e+003,1.686376e-001
2.840678e+003,1.553908e-001
2.842607e+003,1.339530e-001
2.844535e+003,1.119327e-001
2.846464e+003,9.403735e-002
2.848392e+003,8.149941e-002
2.850321e+003,7.351746e-002
2.852249e+003,6.916925e-002
2.854178e+003,6.853913e-002
2.856106e+003,7.257289e-002
2.858035e+003,8.283608e-002
2.859963e+003,1.013442e-001
2.861892e+003,1.275234e-001
2.863820e+003,1.533764e-001
2.865749e+003,1.668876e-001
2.867677e+003,1.657081e-001
2.869606e+003,1.582878e-001
2.871534e+003,1.521860e-001
2.873463e+003,1.505361e-001
2.875391e+003,1.530037e-001
2.877320e+003,1.550092e-001
2.879248e+003,1.528612e-001
2.881177e+003,1.481289e-001
2.883105e+003,1.437186e-001
2.885034e+003,1.407509e-001
2.886962e+003,1.391409e-001
2.888891e+003,1.389550e-001
2.890819e+003,1.407468e-001
2.892748e+003,1.455827e-001
2.894676e+003,1.541820e-001
2.896605e+003,1.664814e-001
2.898533e+003,1.816846e-001
2.900462e+003,1.985817e-001
2.902390e+003,2.160573e-001
2.904319e+003,2.329315e-001
2.906247e+003,2.476620e-001
2.908176e+003,2.604858e-001
2.910104e+003,2.755705e-001
2.912033e+003,2.983128e-001
2.913961e+003,3.274577e-001
2.915890e+003,3.504473e-001
2.917818e+003,3.524539e-001
2.919747e+003,3.336277e-001
2.921675e+003,3.069713e-001
2.923604e+003,2.810515e-001
2.925532e+003,2.549574e-001
2.927461e+003,2.263617e-001
2.929389e+003,1.965715e-001
2.931318e+003,1.691487e-001
2.933246e+003,1.474979e-001
2.935175e+003,1.332917e-001
2.937103e+003,1.273485e-001
2.939032e+003,1.309258e-001
2.940960e+003,1.462330e-001
2.942889e+003,1.748356e-001
2.944817e+003,2.136862e-001
2.946746e+003,2.533143e-001
2.948674e+003,2.789649e-001
2.950603e+003,2.787833e-001
2.952531e+003,2.572731e-001
2.954460e+003,2.328057e-001
2.956388e+003,2.196304e-001
2.958317e+003,2.175710e-001
2.960245e+003,2.147037e-001
2.962174e+003,1.988434e-001
2.964102e+003,1.713979e-001
2.966031e+003,1.421944e-001
2.967959e+003,1.157707e-001
2.969888e+003,9.240538e-002
2.971816e+003,7.252259e-002
2.973745e+003,5.644524e-002
2.975673e+003,4.399658e-002
2.977602e+003,3.450731e-002
2.979530e+003,2.726622e-002
2.981459e+003,2.173332e-002
2.983387e+003,1.755524e-002
2.985316e+003,1.434394e-002
2.987244e+003,1.183986e-002
2.989173e+003,9.776238e-003
2.991101e+003,8.170519e-003
2.993030e+003,6.886579e-003
2.994958e+003,5.804121e-003
2.996887e+003,4.928447e-003
2.998815e+003,4.305635e-003
3.000744e+003,3.864348e-003
3.002672e+003,3.409658e-003
3.004601e+003,2.868298e-003
3.006529e+003,2.464361e-003
3.008458e+003,2.161045e-003
3.010386e+003,1.886882e-003
3.012315e+003,1.638234e-003
3.014243e+003,1.490258e-003
3.016172e+003,1.347538e-003
3.018100e+003,1.078963e-003
3.020029e+003,9.048246e-004
3.021957e+003,9.098090e-004
3.023886e+003,9.571277e-004
3.025814e+003,9.628609e-004
3.027743e+003,8.486919e-004
3.029671e+003,7.616691e-004
3.031600e+003,6.483644e-004
3.033528e+003,6.203763e-004
3.035457e+003,5.661435e-004
3.037385e+003,4.479513e-004
3.039314e+003,3.621355e-004
3.041242e+003,3.862604e-004
3.043171e+003,4.394613e-004
3.045099e+003,4.357137e-004
3.047028e+003,4.507974e-004
3.048956e+003,4.625842e-004
3.050885e+003,4.974902e-004
3.052813e+003,5.547404e-004
3.054742e+003,6.229542e-004
3.056670e+003,6.353743e-004
3.058599e+003,7.053800e-004
3.060527e+003,7.755794e-004
3.062456e+003,7.326193e-004
3.064384e+003,6.809533e-004
3.066313e+003,5.537756e-004
3.068241e+003,6.280802e-004
3.070170e+003,7.129163e-004
3.072098e+003,6.392598e-004
3.074027e+003,5.695820e-004
3.075955e+003,5.332567e-004
3.077884e+003,5.926937e-004
3.079812e+003,6.545000e-004
3.081741e+003,7.093661e-004
3.083669e+003,7.846355e-004
3.085598e+003,8.251630e-004
3.087526e+003,8.608103e-004
3.089455e+003,8.343272e-004
3.091383e+003,8.776858e-004
3.093312e+003,8.575767e-004
3.095240e+003,9.022504e-004
3.097169e+003,9.408668e-004
3.099097e+003,1.041058e-003
3.101026e+003,1.036786e-003
3.102954e+003,9.375587e-004
3.104883e+003,9.534657e-004
3.106811e+003,9.444691e-004
3.108740e+003,8.780584e-004
3.110668e+003,9.081103e-004
3.112597e+003,1.001678e-003
3.114525e+003,1.101401e-003
3.116454e+003,1.203470e-003
3.118382e+003,1.239296e-003
3.120311e+003,1.248419e-003
3.122239e+003,1.363821e-003
3.124168e+003,1.518477e-003
3.126096e+003,1.564875e-003
3.128025e+003,1.493338e-003
3.129953e+003,1.637492e-003
3.131882e+003,1.839899e-003
3.133810e+003,1.826141e-003
3.135739e+003,1.784634e-003
3.137667e+003,1.911175e-003
3.139596e+003,1.976781e-003
3.141524e+003,2.093662e-003
3.143453e+003,2.034631e-003
3.145381e+003,1.923300e-003
3.147310e+003,1.902737e-003
3.149238e+003,1.940105e-003
3.151167e+003,1.981162e-003
3.153095e+003,1.906611e-003
3.155024e+003,1.874473e-003
3.156952e+003,1.954962e-003
3.158881e+003,2.098743e-003
3.160809e+003,2.154291e-003
3.162738e+003,2.105508e-003
3.164666e+003,2.093595e-003
3.166594e+003,2.042335e-003
3.168523e+003,2.041459e-003
3.170452e+003,2.111990e-003
3.172380e+003,2.065368e-003
3.174309e+003,2.011444e-003
3.176237e+003,2.268299e-003
3.178166e+003,2.411269e-003
3.180094e+003,2.418261e-003
3.182022e+003,2.393734e-003
3.183951e+003,2.493896e-003
3.185880e+003,2.538987e-003
3.187808e+003,2.509795e-003
3.189737e+003,2.582293e-003
3.191665e+003,2.684001e-003
3.193594e+003,2.715044e-003
3.195522e+003,2.736218e-003
3.197450e+003,2.730530e-003
3.199379e+003,2.729181e-003
3.201308e+003,2.710268e-003
3.203236e+003,2.719358e-003
3.205165e+003,2.621189e-003
3.207093e+003,2.515908e-003
3.209021e+003,2.434209e-003
3.210950e+003,2.354920e-003
3.212878e+003,2.289530e-003
3.214807e+003,2.269354e-003
3.216736e+003,2.259873e-003
3.218664e+003,2.256401e-003
3.220593e+003,2.241623e-003
3.222521e+003,2.122961e-003
3.224449e+003,2.006359e-003
3.226378e+003,1.939241e-003
3.228307e+003,1.841389e-003
3.230235e+003,1.807708e-003
3.232164e+003,1.803566e-003
3.234092e+003,1.843646e-003
3.236021e+003,1.798328e-003
3.237949e+003,1.701504e-003
3.239877e+003,1.731437e-003
3.241806e+003,1.794040e-003
3.243735e+003,1.854952e-003
3.245663e+003,1.869880e-003
3.247592e+003,1.790334e-003
3.249520e+003,1.693007e-003
3.251448e+003,1.722440e-003
3.253377e+003,1.858510e-003
3.255305e+003,1.919527e-003
3.257234e+003,1.917988e-003
3.259163e+003,1.870412e-003
3.261091e+003,1.944732e-003
3.263020e+003,2.076328e-003
3.264948e+003,2.119072e-003
3.266876e+003,2.083696e-003
3.268805e+003,2.073199e-003
3.270733e+003,2.101526e-003
3.272662e+003,2.193149e-003
3.274591e+003,2.217334e-003
3.276519e+003,2.269763e-003
3.278448e+003,2.272137e-003
3.280376e+003,2.241451e-003
3.282304e+003,2.336755e-003
3.284233e+003,2.358045e-003
3.286161e+003,2.353631e-003
3.288090e+003,2.396990e-003
3.290019e+003,2.323244e-003
3.291947e+003,2.413690e-003
3.293875e+003,2.449855e-003
3.295804e+003,2.450604e-003
3.297732e+003,2.450556e-003
3.299661e+003,2.411522e-003
3.301589e+003,2.283983e-003
3.303518e+003,2.212979e-003
3.305447e+003,2.291746e-003
3.307375e+003,2.351582e-003
3.309303e+003,2.283163e-003
3.311232e+003,2.328508e-003
3.313160e+003,2.432551e-003
3.315089e+003,2.411209e-003
3.317018e+003,2.284255e-003
3.318946e+003,2.201561e-003
3.320875e+003,2.248533e-003
3.322803e+003,2.281640e-003
3.324731e+003,2.296556e-003
3.326660e+003,2.392571e-003
3.328588e+003,2.421841e-003
3.330517e+003,2.431862e-003
3.332446e+003,2.482388e-003
3.334374e+003,2.470635e-003
3.336302e+003,2.586663e-003
3.338231e+003,2.615415e-003
3.340159e+003,2.471216e-003
3.342088e+003,2.445068e-003
3.344016e+003,2.577268e-003
3.345945e+003,2.625074e-003
3.347874e+003,2.583675e-003
3.349802e+003,2.482798e-003
3.351730e+003,2.507217e-003
3.353659e+003,2.541248e-003
3.355587e+003,2.501961e-003
3.357516e+003,2.530530e-003
3.359444e+003,2.536818e-003
3.361373e+003,2.520215e-003
3.363302e+003,2.464537e-003
3.365230e+003,2.417728e-003
3.367158e+003,2.403531e-003
3.369087e+003,2.316825e-003
3.371015e+003,2.250776e-003
3.372944e+003,2.259634e-003
3.374872e+003,2.272632e-003
3.376801e+003,2.316568e-003
3.378729e+003,2.372503e-003
3.380658e+003,2.296716e-003
3.382586e+003,2.248354e-003
3.384515e+003,2.179198e-003
3.386443e+003,2.079409e-003
3.388372e+003,2.121374e-003
3.390300e+003,2.195116e-003
3.392229e+003,2.181873e-003
3.394157e+003,2.069812e-003
3.396086e+003,2.148025e-003
3.398014e+003,2.117697e-003
3.399943e+003,2.148222e-003
3.401871e+003,2.102681e-003
3.403800e+003,2.088372e-003
3.405728e+003,2.090845e-003
3.407657e+003,2.049234e-003
3.409585e+003,2.054460e-003
3.411514e+003,2.080135e-003
3.413442e+003,1.974866e-003
3.415371e+003,1.916561e-003
3.417299e+003,1.952060e-003
3.419228e+003,1.969673e-003
3.421156e+003,1.908220e-003
3.423085e+003,1.874194e-003
3.425013e+003,1.807243e-003
3.426942e+003,1.750953e-003
3.428870e+003,1.682572e-003
3.430799e+003,1.578849e-003
3.432727e+003,1.564838e-003
3.434656e+003,1.611710e-003
3.436584e+003,1.487762e-003
3.438513e+003,1.511689e-003
3.440441e+003,1.673449e-003
3.442370e+003,1.653217e-003
3.444298e+003,1.672924e-003
3.446227e+003,1.762450e-003
3.448155e+003,1.462325e-003
3.450084e+003,1.292329e-003
3.452012e+003,1.193456e-003
3.453941e+003,1.192123e-003
3.455869e+003,1.158565e-003
3.457798e+003,1.174618e-003
3.459726e+003,1.219522e-003
3.461655e+003,1.225129e-003
3.463583e+003,1.065165e-003
3.465512e+003,1.022343e-003
3.467440e+003,9.615310e-004
3.469369e+003,8.631162e-004
3.471297e+003,9.775087e-004
3.473226e+003,1.001868e-003
3.475154e+003,9.362809e-004
3.477083e+003,8.418709e-004
3.479011e+003,9.468980e-004
3.480940e+003,1.088880e-003
3.482868e+003,9.899810e-004
3.484797e+003,8.306392e-004
3.486725e+003,7.840395e-004
3.488654e+003,6.712824e-004
3.490582e+003,4.775599e-004
3.492511e+003,4.243851e-004
3.494439e+003,5.270801e-004
3.496368e+003,5.137026e-004
3.498296e+003,4.016683e-004
3.500225e+003,6.628484e-004
3.502153e+003,9.462908e-004
3.504082e+003,5.982369e-004
3.506010e+003,4.052445e-004
3.507939e+003,6.730780e-004
3.509867e+003,6.346181e-004
3.511796e+003,4.411787e-004
3.513724e+003,4.222579e-004
3.515653e+003,3.856234e-004
3.517581e+003,3.289506e-004
3.519510e+003,3.045388e-004
3.521438e+003,4.387908e-004
3.523367e+003,4.991293e-004
3.525295e+003,4.666001e-004
3.527224e+003,5.195737e-004
3.529152e+003,2.937503e-004
3.531081e+003,7.922947e-005
3.533009e+003,-3.422797e-005
3.534938e+003,4.054606e-005
3.536866e+003,-6.139651e-005
3.538795e+003,-2.391376e-004
3.540723e+003,-1.569130e-004
3.542652e+003,1.089945e-004
3.544580e+003,5.126894e-004
3.546509e+003,2.373233e-004
3.548437e+003,-3.254525e-004
3.550366e+003,-1.626760e-004
3.552294e+003,-2.005883e-004
3.554223e+003,-5.637109e-004
3.556151e+003,-7.381141e-004
3.558080e+003,-7.400028e-004
3.560008e+003,-7.070526e-004
3.561937e+003,-5.579405e-004
3.563865e+003,8.225068e-005
3.565794e+003,7.837005e-004
3.567722e+003,-3.788620e-005
3.569651e+003,-7.947832e-004
3.571579e+003,-7.884838e-004
3.573508e+003,-8.001588e-004
3.575436e+003,-1.005556e-003
3.577365e+003,-1.092751e-003
3.579293e+003,-1.101580e-003
3.581222e+003,-1.254391e-003
3.583150e+003,-1.125731e-003
3.585079e+003,-4.240237e-004
3.587007e+003,1.049042e-004
3.588936e+003,-8.492768e-004
3.590864e+003,-8.624196e-004
3.592793e+003,-3.773831e-004
3.594721e+003,-5.057938e-004
3.596650e+003,-7.522032e-004
3.598578e+003,-5.604364e-004
3.600507e+003,-6.334595e-004
3.602435e+003,-1.189742e-003
3.604364e+003,-1.092289e-003
3.606292e+003,-5.327985e-004
3.608221e+003,-5.974062e-004
3.610149e+003,-5.403236e-004
3.612078e+003,-4.503876e-006
3.614006e+003,-2.370961e-004
3.615935e+003,-1.556240e-004
3.617863e+003,1.817606e-004
3.619792e+003,-5.030297e-004
3.621720e+003,-9.522736e-004
3.623649e+003,-7.569976e-004
3.625577e+003,-8.054078e-005
3.627506e+003,9.367615e-004
3.629434e+003,6.228685e-006
3.631363e+003,-7.922873e-004
3.633291e+003,-6.917678e-004
3.635220e+003,-9.533614e-004
3.637148e+003,-9.879768e-004
3.639077e+003,-9.955391e-004
3.641005e+003,-8.893684e-004
3.642934e+003,-7.911325e-004
3.644862e+003,-1.357906e-004
3.646791e+003,1.181152e-003
3.648719e+003,1.692578e-003
3.650648e+003,1.177862e-004
3.652576e+003,-6.011650e-004
3.654505e+003,9.487197e-005
3.656433e+003,-3.183633e-004
3.658362e+003,-1.074944e-003
3.660290e+003,-1.042832e-003
3.662219e+003,-1.092721e-003
3.664147e+003,-1.271572e-003
3.666076e+003,-9.106509e-004
3.668004e+003,2.476946e-004
3.669933e+003,4.567914e-004
3.671861e+003,-6.893277e-005
3.673790e+003,1.037024e-003
3.675718e+003,7.391274e-004
3.677647e+003,-3.295578e-004
3.679575e+003,-5.335286e-004
3.681504e+003,-9.911619e-004
3.683432e+003,-8.525178e-004
3.685361e+003,-3.288686e-005
3.687289e+003,8.512773e-004
3.689218e+003,7.235520e-004
3.691146e+003,-1.031868e-004
3.693075e+003,-4.529245e-004
3.695003e+003,-4.405826e-004
3.696932e+003,-5.818717e-004
3.698860e+003,-2.037659e-004
3.700789e+003,3.842115e-004
3.702717e+003,-1.182295e-004
3.704646e+003,-2.794676e-004
3.706574e+003,7.089227e-006
3.708503e+003,6.358549e-004
3.710431e+003,1.467414e-003
3.712360e+003,4.057884e-004
3.714288e+003,-3.115274e-004
3.716217e+003,-2.135336e-005
3.718145e+003,5.710535e-004
3.720074e+003,7.163957e-004
3.722002e+003,8.622855e-004
3.723931e+003,9.425431e-004
3.725859e+003,5.594753e-004
3.727788e+003,-4.724041e-005
3.729716e+003,5.223602e-004
3.731645e+003,1.292344e-003
3.733573e+003,1.723062e-003
3.735502e+003,2.090834e-003
3.737430e+003,1.083907e-003
3.739359e+003,1.124106e-003
3.741287e+003,1.737900e-003
3.743216e+003,2.728842e-003
3.745144e+003,1.968231e-003
3.747073e+003,2.319939e-003
3.749001e+003,3.589168e-003
3.750930e+003,3.205977e-003
3.752858e+003,1.483079e-003
3.754787e+003,1.330417e-003
3.756715e+003,1.896109e-003
3.758644e+003,1.958031e-003
3.760572e+003,1.183297e-003
3.762501e+003,1.114581e-003
3.764429e+003,1.629438e-003
3.766358e+003,1.264073e-003
3.768286e+003,1.438320e-003
3.770215e+003,1.195613e-003
3.772143e+003,5.570650e-004
3.774072e+003,4.799850e-004
3.776000e+003,6.497130e-004
3.777929e+003,8.848384e-004
3.779857e+003,6.426871e-004
3.781786e+003,4.317239e-004
3.783714e+003,5.553961e-004
3.785643e+003,1.572445e-004
3.787571e+003,3.894046e-005
3.789500e+003,-3.036112e-005
3.791428e+003,-1.829378e-004
3.793357e+003,3.116578e-004
3.795285e+003,1.042854e-003
3.797214e+003,8.364469e-004
3.799142e+003,1.296394e-003
3.801071e+003,1.426276e-003
3.802999e+003,2.115518e-004
3.804927e+003,9.012334e-004
3.806856e+003,9.797402e-004
3.808785e+003,-8.940697e-006
3.810713e+003,6.472319e-005
3.812642e+003,5.333386e-004
3.814570e+003,1.263645e-003
3.816499e+003,1.003843e-003
3.818427e+003,1.537245e-003
3.820355e+003,2.189949e-003
3.822284e+003,3.976561e-004
3.824213e+003,6.195270e-004
3.826141e+003,6.715320e-004
3.828070e+003,1.514703e-005
3.829998e+003,6.537698e-004
3.831927e+003,9.896345e-004
3.833855e+003,9.808242e-004
3.835783e+003,1.616564e-003
3.837712e+003,1.722839e-003
3.839641e+003,1.313515e-003
3.841569e+003,8.800551e-004
3.843498e+003,6.161071e-004
3.845426e+003,1.872703e-004
3.847354e+003,4.843138e-004
3.849283e+003,1.357295e-003
3.851211e+003,2.447121e-003
3.853140e+003,2.505407e-003
3.855069e+003,8.423701e-004
3.856997e+003,6.306246e-004
3.858926e+003,5.706735e-004
3.860854e+003,1.047671e-003
3.862782e+003,1.339115e-003
3.864711e+003,1.149610e-003
3.866640e+003,8.689500e-004
3.868568e+003,1.637701e-003
3.870497e+003,1.069143e-003
3.872425e+003,1.108594e-003
3.874354e+003,6.776080e-004
3.876282e+003,1.324341e-004
3.878210e+003,1.182918e-003
3.880139e+003,1.479033e-003
3.882068e+003,9.125359e-004
3.883996e+003,1.651444e-003
3.885925e+003,8.010678e-004
3.887853e+003,1.017824e-004
3.889781e+003,1.011383e-003
3.891710e+003,9.067580e-004
3.893638e+003,1.687855e-004
3.895567e+003,4.693307e-004
3.897496e+003,1.268402e-003
3.899424e+003,1.610518e-003
3.901353e+003,1.789123e-003
3.903281e+003,1.856994e-003
3.905209e+003,6.826073e-004
3.907138e+003,2.167635e-004
3.909066e+003,2.955906e-004
3.910995e+003,2.771579e-004
3.912924e+003,2.890751e-004
3.914852e+003,8.755289e-004
3.916781e+003,1.045957e-003
3.918709e+003,4.823208e-004
3.920637e+003,2.918504e-004
3.922566e+003,7.875487e-004
3.924494e+003,8.783303e-004
3.926423e+003,3.272817e-004
3.928352e+003,7.579178e-004
3.930280e+003,9.752959e-004
3.932208e+003,7.009991e-004
3.934137e+003,2.682768e-004
3.936065e+003,1.870915e-004
3.937994e+003,2.443008e-004
3.939922e+003,5.498827e-004
3.941851e+003,9.449646e-004
3.943780e+003,4.732050e-004
3.945708e+003,3.139600e-004
3.947636e+003,6.395355e-004
3.949565e+003,4.493967e-004
3.951493e+003,8.554384e-005
3.953422e+003,9.444356e-005
3.955351e+003,2.400391e-004
3.957279e+003,2.525188e-004
3.959208e+003,1.919493e-004
3.961136e+003,2.305768e-004
3.963064e+003,8.830056e-005
3.964993e+003,-9.635091e-005
3.966921e+003,-1.339912e-004
3.968850e+003,7.909536e-005
3.970779e+003,3.209412e-004
3.972707e+003,2.770722e-004
3.974635e+003,1.208410e-004
3.976564e+003,-5.394965e-005
3.978492e+003,-9.575859e-005
3.980421e+003,6.694347e-006
3.982349e+003,7.305667e-005
3.984278e+003,-5.945563e-006
3.986207e+003,-3.385171e-005
3.988135e+003,1.985021e-004
3.990063e+003,2.922453e-004
3.991992e+003,1.327135e-004
3.993920e+003,1.236983e-004
3.995849e+003,1.546703e-004
3.997777e+003,1.490563e-004
3.999706e+003,6.880611e-005
4.001635e+003,0.000000e+000
