3.991992e+002,0.000000e+000
4.011277e+002,0.000000e+000
4.030562e+002,0.000000e+000
4.049846e+002,0.000000e+000
4.069131e+002,0.000000e+000
4.088416e+002,0.000000e+000
4.107701e+002,0.000000e+000
4.126986e+002,0.000000e+000
4.146271e+002,0.000000e+000
4.165556e+002,0.000000e+000
4.184841e+002,0.000000e+000
4.204126e+002,0.000000e+000
4.223411e+002,0.000000e+000
4.242697e+002,0.000000e+000
4.261982e+002,0.000000e+000
4.281266e+002,0.000000e+000
4.300551e+002,0.000000e+000
4.319836e+002,0.000000e+000
4.339121e+002,0.000000e+000
4.358406e+002,0.000000e+000
4.377691e+002,0.000000e+000
4.396976e+002,0.000000e+000
4.416261e+002,0.000000e+000
4.435546e+002,0.000000e+000
4.454831e+002,0.000000e+000
4.474116e+002,0.000000e+000
4.493401e+002,0.000000e+000
4.512686e+002,0.000000e+000
4.531971e+002,0.000000e+000
4.551256e+002,0.000000e+000
4.570541e+002,0.000000e+000
4.589826e+002,0.000000e+000
4.609111e+002,0.000000e+000
4.628396e+002,0.000000e+000
4.647681e+002,0.000000e+000
4.666966e+002,0.000000e+000
4.686251e+002,0.000000e+000
4.705536e+002,0.000000e+000
4.724821e+002,0.000000e+000
4.744106e+002,0.000000e+000
4.763391e+002,0.000000e+000
4.782676e+002,0.000000e+000
4.801961e+002,0.000000e+000
4.821246e+002,0.000000e+000
4.840531e+002,0.000000e+000
4.859816e+002,0.000000e+000
4.879101e+002,0.000000e+000
4.898386e+002,0.000000e+000
4.917671e+002,0.000000e+000
4.936956e+002,0.000000e+000
4.956241e+002,0.000000e+000
4.975526e+002,0.000000e+000
4.994811e+002,0.000000e+000
5.014096e+002,0.000000e+000
5.033381e+002,0.000000e+000
5.052666e+002,0.000000e+000
5.071951e+002,0.000000e+000
5.091236e+002,0.000000e+000
5.110521e+002,0.000000e+000
5.129806e+002,0.000000e+000
5.149091e+002,0.000000e+000
5.168376e+002,0.000000e+000
5.187661e+002,0.000000e+000
5.206946e+002,0.000000e+000
5.226230e+002,0.000000e+000
5.245516e+002,4.190356e-004
5.264800e+002,4.704120e-004
5.284086e+002,3.868127e-004
5.303370e+002,2.592867e-004
5.322656e+002,8.493382e-005
5.341940e+002,-2.626330e-005
5.361226e+002,-1.571560e-004
5.380510e+002,-2.227491e-004
5.399796e+002,-3.142226e-004
5.419081e+002,-3.835205e-004
5.438365e+002,-3.410410e-004
5.457650e+002,-2.769511e-004
5.476935e+002,-3.087725e-004
5.496221e+002,-2.246294e-004
5.515505e+002,-1.931842e-004
5.534790e+002,-3.247056e-005
5.554075e+002,7.075630e-005
5.573361e+002,9.825453e-006
5.592645e+002,-2.214611e-004
5.611931e+002,-3.493372e-004
5.631215e+002,-4.382161e-004
5.650500e+002,-3.298055e-004
5.669785e+002,-3.186818e-004
5.689070e+002,-3.850879e-004
5.708355e+002,-4.288498e-004
5.727640e+002,-3.638128e-004
5.746925e+002,-4.105298e-004
5.766210e+002,-3.798464e-004
5.785495e+002,-3.203871e-004
5.804780e+002,-2.627140e-004
5.824065e+002,-3.157211e-004
5.843350e+002,-3.531044e-004
5.862635e+002,-4.532319e-004
5.881920e+002,-3.301026e-004
5.901205e+002,-2.882928e-004
5.920490e+002,-3.150469e-004
5.939775e+002,-3.622910e-004
5.959060e+002,-3.168378e-004
5.978345e+002,-3.151791e-004
5.997630e+002,-2.804212e-004
6.016915e+002,-3.701849e-004
6.036200e+002,-3.445344e-004
6.055485e+002,-2.911035e-004
6.074770e+002,-2.656076e-004
6.094055e+002,-3.550295e-004
6.113340e+002,-3.518621e-004
6.132625e+002,-3.564600e-004
6.151910e+002,-3.564926e-004
6.171195e+002,-3.522914e-004
6.190480e+002,-2.540946e-004
6.209765e+002,-1.972504e-004
6.229050e+002,-1.202766e-004
6.248335e+002,-9.603519e-005
6.267620e+002,-5.080272e-005
6.286905e+002,-5.819090e-005
6.306190e+002,3.569294e-005
6.325475e+002,5.859137e-005
6.344760e+002,1.189942e-004
6.364045e+002,1.540259e-004
6.383330e+002,1.882277e-004
6.402615e+002,7.967092e-005
6.421899e+002,2.187397e-005
6.441185e+002,1.510605e-006
6.460470e+002,1.001414e-004
6.479755e+002,1.073238e-004
6.499039e+002,6.243493e-005
6.518325e+002,-2.035871e-005
6.537610e+002,-1.067575e-004
6.556895e+002,-2.004877e-004
6.576179e+002,-1.529949e-004
6.595464e+002,-1.441007e-004
6.614750e+002,-7.415377e-005
6.634034e+002,-6.364193e-005
6.653319e+002,-7.257052e-005
6.672604e+002,8.819625e-006
6.691890e+002,8.350238e-006
6.711174e+002,-1.910850e-004
6.730460e+002,-1.986492e-004
6.749745e+002,-1.397924e-004
6.769030e+002,-1.768218e-004
6.788314e+002,-2.850043e-004
6.807599e+002,-1.814226e-004
6.826885e+002,-1.442945e-004
6.846169e+002,-1.861071e-004
6.865454e+002,-1.638187e-004
6.884739e+002,-7.168576e-005
6.904025e+002,-4.577264e-005
6.923309e+002,-6.400049e-005
6.942594e+002,-7.550884e-005
6.961879e+002,-3.361981e-005
6.981165e+002,-7.666927e-005
7.000449e+002,1.231115e-005
7.019734e+002,1.097564e-005
7.039019e+002,-1.994241e-005
7.058304e+002,-6.093644e-005
7.077589e+002,1.263060e-005
7.096874e+002,7.330067e-005
7.116159e+002,1.084236e-004
7.135444e+002,6.305240e-005
7.154729e+002,9.890366e-005
7.174014e+002,1.284340e-004
7.193299e+002,7.814448e-005
7.212584e+002,5.846377e-005
7.231869e+002,1.667831e-004
7.251154e+002,1.447173e-004
7.270439e+002,1.242170e-004
7.289724e+002,1.335302e-004
7.309009e+002,1.257099e-004
7.328294e+002,1.127878e-004
7.347579e+002,1.966227e-004
7.366864e+002,1.937198e-004
7.386149e+002,2.244711e-004
7.405434e+002,2.206070e-004
7.424719e+002,2.495153e-004
7.444004e+002,2.007354e-004
7.463289e+002,1.906492e-004
7.482574e+002,1.571486e-004
7.501859e+002,1.885714e-004
7.521144e+002,2.049282e-004
7.540428e+002,3.044168e-004
7.559714e+002,3.356114e-004
7.578999e+002,3.721686e-004
7.598284e+002,4.063556e-004
7.617568e+002,4.814398e-004
7.636854e+002,4.349602e-004
7.656139e+002,3.999649e-004
7.675424e+002,4.586745e-004
7.694709e+002,5.757008e-004
7.713994e+002,5.866541e-004
7.733279e+002,5.735559e-004
7.752563e+002,5.939240e-004
7.771849e+002,7.077074e-004
7.791134e+002,7.620072e-004
7.810419e+002,8.760914e-004
7.829703e+002,9.822128e-004
7.848989e+002,1.190301e-003
7.868274e+002,1.429411e-003
7.887559e+002,1.693645e-003
7.906843e+002,1.865256e-003
7.926129e+002,2.166113e-003
7.945414e+002,2.456740e-003
7.964698e+002,2.786101e-003
7.983983e+002,3.100230e-003
8.003268e+002,3.547252e-003
8.022554e+002,4.258318e-003
8.041838e+002,5.628028e-003
8.061123e+002,7.708884e-003
8.080408e+002,9.431790e-003
8.099694e+002,9.207922e-003
8.118978e+002,7.360352e-003
8.138263e+002,5.164140e-003
8.157548e+002,3.829178e-003
8.176833e+002,3.285836e-003
8.196118e+002,3.066689e-003
8.215403e+002,2.886746e-003
8.234689e+002,2.890518e-003
8.253973e+002,2.963830e-003
8.273258e+002,3.270805e-003
8.292543e+002,3.620917e-003
8.311829e+002,4.089834e-003
8.331113e+002,4.758915e-003
8.350398e+002,6.118594e-003
8.369683e+002,9.632051e-003
8.388969e+002,1.732491e-002
8.408253e+002,2.182922e-002
8.427538e+002,1.575883e-002
8.446823e+002,8.383105e-003
8.466108e+002,5.045647e-003
8.485393e+002,3.715994e-003
8.504678e+002,3.146969e-003
8.523963e+002,2.758663e-003
8.543248e+002,2.547650e-003
8.562533e+002,2.351582e-003
8.581818e+002,2.147853e-003
8.601103e+002,1.994712e-003
8.620388e+002,2.007928e-003
8.639673e+002,1.920637e-003
8.658958e+002,1.842337e-003
8.678243e+002,1.762623e-003
8.697528e+002,1.753699e-003
8.716813e+002,1.663717e-003
8.736098e+002,1.643486e-003
8.755383e+002,1.654947e-003
8.774668e+002,1.687877e-003
8.793953e+002,1.688214e-003
8.813238e+002,1.763714e-003
8.832523e+002,1.786510e-003
8.851808e+002,1.943275e-003
8.871093e+002,2.153350e-003
8.890378e+002,2.379477e-003
8.909663e+002,2.633521e-003
8.928948e+002,3.351705e-003
8.948232e+002,4.736593e-003
8.967518e+002,6.877042e-003
8.986803e+002,8.262502e-003
9.006088e+002,7.592538e-003
9.025372e+002,5.444240e-003
9.044658e+002,3.560713e-003
9.063943e+002,2.432400e-003
9.083228e+002,2.008062e-003
9.102512e+002,1.862900e-003
9.121797e+002,1.784768e-003
9.141083e+002,1.725852e-003
9.160367e+002,1.708131e-003
9.179653e+002,1.608975e-003
9.198937e+002,1.561791e-003
9.218223e+002,1.547391e-003
9.237507e+002,1.668286e-003
9.256793e+002,1.749674e-003
9.276077e+002,1.796979e-003
9.295363e+002,1.763692e-003
9.314647e+002,1.887772e-003
9.333932e+002,2.100689e-003
9.353217e+002,2.507806e-003
9.372502e+002,3.087969e-003
9.391787e+002,3.644675e-003
9.411072e+002,3.625819e-003
9.430358e+002,3.263958e-003
9.449642e+002,2.871832e-003
9.468928e+002,2.760446e-003
9.488212e+002,2.768274e-003
9.507498e+002,2.922382e-003
9.526782e+002,3.104284e-003
9.546068e+002,3.412819e-003
9.565352e+002,3.801694e-003
9.584637e+002,4.333429e-003
9.603922e+002,4.948903e-003
9.623207e+002,5.837539e-003
9.642492e+002,7.163689e-003
9.661777e+002,9.610502e-003
9.681062e+002,1.433431e-002
9.700347e+002,2.200488e-002
9.719632e+002,2.784028e-002
9.738917e+002,2.593948e-002
9.758202e+002,1.917758e-002
9.777487e+002,1.299413e-002
9.796772e+002,8.866591e-003
9.816057e+002,6.595280e-003
9.835342e+002,5.551415e-003
9.854627e+002,5.407551e-003
9.873912e+002,5.787851e-003
9.893197e+002,6.936686e-003
9.912482e+002,9.199683e-003
9.931767e+002,1.341766e-002
9.951052e+002,1.971086e-002
9.970337e+002,2.445532e-002
9.989622e+002,2.222086e-002
1.000891e+003,1.538317e-002
1.002819e+003,9.794466e-003
1.004748e+003,6.867466e-003
1.006676e+003,5.361894e-003
1.008605e+003,4.532790e-003
1.010533e+003,4.023477e-003
1.012462e+003,3.795356e-003
1.014390e+003,3.615793e-003
1.016319e+003,3.512707e-003
1.018247e+003,3.438981e-003
1.020176e+003,3.402213e-003
1.022104e+003,3.354741e-003
1.024033e+003,3.377317e-003
1.025961e+003,3.377566e-003
1.027890e+003,3.423886e-003
1.029818e+003,3.447495e-003
1.031747e+003,3.616225e-003
1.033675e+003,3.760107e-003
1.035604e+003,3.908494e-003
1.037532e+003,4.010318e-003
1.039461e+003,4.255779e-003
1.041389e+003,4.683109e-003
1.043318e+003,5.155236e-003
1.045246e+003,5.102715e-003
1.047175e+003,4.639789e-003
1.049103e+003,4.206009e-003
1.051032e+003,3.933979e-003
1.052960e+003,3.744457e-003
1.054889e+003,3.719999e-003
1.056817e+003,3.633104e-003
1.058746e+003,3.641456e-003
1.060674e+003,3.678452e-003
1.062603e+003,3.667597e-003
1.064531e+003,3.592078e-003
1.066460e+003,3.656209e-003
1.068388e+003,3.714796e-003
1.070317e+003,3.780572e-003
1.072245e+003,3.782583e-003
1.074174e+003,3.858915e-003
1.076102e+003,3.920440e-003
1.078031e+003,4.039317e-003
1.079959e+003,4.171660e-003
1.081888e+003,4.342373e-003
1.083816e+003,4.399337e-003
1.085745e+003,4.560865e-003
1.087673e+003,4.664615e-003
1.089602e+003,4.821815e-003
1.091530e+003,5.044250e-003
1.093459e+003,5.415330e-003
1.095387e+003,5.809030e-003
1.097316e+003,6.391507e-003
1.099244e+003,7.125575e-003
1.101173e+003,7.880786e-003
1.103101e+003,7.996336e-003
1.105030e+003,7.439487e-003
1.106958e+003,6.573319e-003
1.108887e+003,5.955828e-003
1.110815e+003,5.594591e-003
1.112744e+003,5.417135e-003
1.114672e+003,5.257966e-003
1.116601e+003,5.132612e-003
1.118529e+003,4.953021e-003
1.120458e+003,4.854152e-003
1.122386e+003,4.739508e-003
1.124315e+003,4.743822e-003
1.126243e+003,4.733460e-003
1.128172e+003,4.800200e-003
1.130100e+003,4.855426e-003
1.132029e+003,5.031537e-003
1.133957e+003,5.247653e-003
1.135885e+003,5.591853e-003
1.137814e+003,6.022125e-003
1.139743e+003,6.694285e-003
1.141671e+003,7.542821e-003
1.143600e+003,8.694697e-003
1.145528e+003,1.007005e-002
1.147457e+003,1.189509e-002
1.149385e+003,1.404902e-002
1.151314e+003,1.614650e-002
1.153242e+003,1.753512e-002
1.155171e+003,1.841302e-002
1.157099e+003,1.915924e-002
1.159028e+003,2.030008e-002
1.160956e+003,2.199373e-002
1.162885e+003,2.462162e-002
1.164813e+003,2.771744e-002
1.166742e+003,2.949060e-002
1.168670e+003,2.704517e-002
1.170599e+003,2.099437e-002
1.172527e+003,1.489086e-002
1.174456e+003,1.073225e-002
1.176384e+003,8.161943e-003
1.178313e+003,6.706133e-003
1.180241e+003,5.811887e-003
1.182170e+003,5.346414e-003
1.184098e+003,5.120048e-003
1.186027e+003,5.080640e-003
1.187955e+003,5.092045e-003
1.189884e+003,5.234228e-003
1.191812e+003,5.357126e-003
1.193740e+003,5.608626e-003
1.195669e+003,5.824421e-003
1.197598e+003,6.108059e-003
1.199526e+003,6.427130e-003
1.201455e+003,6.946996e-003
1.203383e+003,7.483097e-003
1.205312e+003,8.097513e-003
1.207240e+003,8.660778e-003
1.209168e+003,9.231329e-003
1.211097e+003,9.717295e-003
1.213026e+003,1.029428e-002
1.214954e+003,1.085231e-002
1.216883e+003,1.135699e-002
1.218811e+003,1.160614e-002
1.220740e+003,1.160071e-002
1.222668e+003,1.131413e-002
1.224596e+003,1.104864e-002
1.226525e+003,1.089463e-002
1.228453e+003,1.092611e-002
1.230382e+003,1.091662e-002
1.232311e+003,1.101536e-002
1.234239e+003,1.106486e-002
1.236167e+003,1.118699e-002
1.238096e+003,1.126273e-002
1.240025e+003,1.135865e-002
1.241953e+003,1.135549e-002
1.243882e+003,1.139377e-002
1.245810e+003,1.128939e-002
1.247739e+003,1.125855e-002
1.249667e+003,1.131323e-002
1.251595e+003,1.183247e-002
1.253524e+003,1.263769e-002
1.255453e+003,1.263825e-002
1.257381e+003,1.095505e-002
1.259310e+003,8.949764e-003
1.261238e+003,7.385243e-003
1.263167e+003,6.369427e-003
1.265095e+003,5.568819e-003
1.267023e+003,5.071171e-003
1.268952e+003,4.704665e-003
1.270880e+003,4.539199e-003
1.272809e+003,4.370634e-003
1.274738e+003,4.368076e-003
1.276666e+003,4.374377e-003
1.278594e+003,4.510580e-003
1.280523e+003,4.578179e-003
1.282451e+003,4.749581e-003
1.284380e+003,4.912471e-003
1.286308e+003,5.177282e-003
1.288237e+003,5.513178e-003
1.290166e+003,6.084582e-003
1.292094e+003,6.732339e-003
1.294022e+003,7.426098e-003
1.295951e+003,7.726328e-003
1.297879e+003,7.786898e-003
1.299808e+003,7.942235e-003
1.301736e+003,9.023458e-003
1.303665e+003,1.026840e-002
1.305594e+003,9.588432e-003
1.307522e+003,7.192353e-003
1.309450e+003,5.665749e-003
1.311379e+003,5.113423e-003
1.313307e+003,5.109252e-003
1.315236e+003,5.139252e-003
1.317164e+003,5.384924e-003
1.319093e+003,5.660545e-003
1.321021e+003,6.147232e-003
1.322950e+003,6.701186e-003
1.324878e+003,7.597761e-003
1.326807e+003,8.214803e-003
1.328735e+003,8.679617e-003
1.330664e+003,8.466985e-003
1.332592e+003,7.950572e-003
1.334521e+003,7.381935e-003
1.336449e+003,7.327328e-003
1.338378e+003,7.411858e-003
1.340306e+003,7.959366e-003
1.342235e+003,8.346120e-003
1.344163e+003,9.152401e-003
1.346092e+003,1.013546e-002
1.348021e+003,1.174005e-002
1.349949e+003,1.373176e-002
1.351877e+003,1.688643e-002
1.353806e+003,2.139069e-002
1.355734e+003,2.789803e-002
1.357663e+003,3.258307e-002
1.359591e+003,3.290875e-002
1.361520e+003,2.912923e-002
1.363448e+003,2.607983e-002
1.365377e+003,2.594169e-002
1.367305e+003,3.103169e-002
1.369234e+003,4.510168e-002
1.371162e+003,7.080714e-002
1.373091e+003,1.073767e-001
1.375019e+003,1.390620e-001
1.376948e+003,1.223648e-001
1.378876e+003,8.192521e-002
1.380805e+003,4.940248e-002
1.382733e+003,2.926855e-002
1.384662e+003,1.781899e-002
1.386590e+003,1.165127e-002
1.388519e+003,8.519186e-003
1.390447e+003,7.057009e-003
1.392376e+003,6.461870e-003
1.394304e+003,5.886830e-003
1.396233e+003,5.791184e-003
1.398161e+003,5.594226e-003
1.400090e+003,5.661873e-003
1.402018e+003,5.511897e-003
1.403947e+003,5.549762e-003
1.405875e+003,5.572554e-003
1.407804e+003,5.720736e-003
1.409732e+003,5.779991e-003
1.411661e+003,6.028054e-003
1.413589e+003,6.186627e-003
1.415518e+003,6.426884e-003
1.417446e+003,6.692134e-003
1.419375e+003,7.313557e-003
1.421303e+003,7.725067e-003
1.423232e+003,8.326484e-003
1.425160e+003,9.311195e-003
1.427089e+003,1.041374e-002
1.429017e+003,1.264730e-002
1.430946e+003,1.738661e-002
1.432874e+003,2.415134e-002
1.434803e+003,2.962321e-002
1.436731e+003,3.058467e-002
1.438660e+003,3.006802e-002
1.440588e+003,3.248134e-002
1.442517e+003,3.855622e-002
1.444445e+003,4.856195e-002
1.446374e+003,6.093747e-002
1.448302e+003,7.461023e-002
1.450231e+003,8.085254e-002
1.452159e+003,8.275060e-002
1.454088e+003,8.275389e-002
1.456016e+003,8.286218e-002
1.457945e+003,7.986311e-002
1.459873e+003,7.678504e-002
1.461802e+003,7.233997e-002
1.463730e+003,6.557517e-002
1.465659e+003,5.217192e-002
1.467587e+003,4.125079e-002
1.469516e+003,3.230967e-002
1.471444e+003,2.470028e-002
1.473373e+003,1.594581e-002
1.475301e+003,1.191323e-002
1.477230e+003,8.983424e-003
1.479158e+003,7.330284e-003
1.481087e+003,5.967336e-003
1.483015e+003,4.996778e-003
1.484944e+003,4.260741e-003
1.486872e+003,3.827579e-003
1.488801e+003,3.479747e-003
1.490729e+003,3.188411e-003
1.492658e+003,2.773110e-003
1.494586e+003,2.574254e-003
1.496515e+003,2.434945e-003
1.498443e+003,2.392169e-003
1.500372e+003,2.148110e-003
1.502300e+003,1.946799e-003
1.504229e+003,1.775172e-003
1.506157e+003,2.012277e-003
1.508086e+003,2.238346e-003
1.510014e+003,2.009716e-003
1.511943e+003,1.872079e-003
1.513871e+003,1.782941e-003
1.515800e+003,1.726929e-003
1.517728e+003,1.752133e-003
1.519657e+003,1.740666e-003
1.521585e+003,1.868820e-003
1.523514e+003,1.755225e-003
1.525442e+003,1.723863e-003
1.527371e+003,1.713628e-003
1.529299e+003,1.539124e-003
1.531228e+003,1.419913e-003
1.533156e+003,1.522185e-003
1.535085e+003,1.496950e-003
1.537013e+003,1.394188e-003
1.538942e+003,1.448229e-003
1.540870e+003,1.978172e-003
1.542799e+003,1.943624e-003
1.544727e+003,1.751363e-003
1.546656e+003,1.539718e-003
1.548584e+003,1.450134e-003
1.550513e+003,1.487844e-003
1.552441e+003,1.478501e-003
1.554370e+003,1.519449e-003
1.556298e+003,1.486411e-003
1.558227e+003,1.829326e-003
1.560155e+003,1.970839e-003
1.562084e+003,1.565138e-003
1.564012e+003,1.429971e-003
1.565941e+003,1.362175e-003
1.567869e+003,1.336193e-003
1.569798e+003,1.437964e-003
1.571726e+003,1.337074e-003
1.573655e+003,1.262622e-003
1.575583e+003,1.357423e-003
1.577512e+003,1.475349e-003
1.579440e+003,1.376541e-003
1.581369e+003,1.328556e-003
1.583297e+003,1.332944e-003
1.585226e+003,1.330268e-003
1.587154e+003,1.339220e-003
1.589083e+003,1.387121e-003
1.591011e+003,1.413124e-003
1.592940e+003,1.436146e-003
1.594868e+003,1.466634e-003
1.596797e+003,1.516270e-003
1.598725e+003,1.553224e-003
1.600654e+003,1.574954e-003
1.602582e+003,1.605891e-003
1.604511e+003,1.631182e-003
1.606439e+003,1.626872e-003
1.608368e+003,1.729919e-003
1.610296e+003,1.796264e-003
1.612225e+003,1.765821e-003
1.614153e+003,1.751939e-003
1.616082e+003,1.911849e-003
1.618010e+003,2.018960e-003
1.619939e+003,1.928747e-003
1.621867e+003,1.979792e-003
1.623796e+003,2.167935e-003
1.625724e+003,2.217788e-003
1.627653e+003,2.347847e-003
1.629581e+003,2.429333e-003
1.631510e+003,2.354367e-003
1.633438e+003,2.342468e-003
1.635367e+003,2.680143e-003
1.637295e+003,2.845634e-003
1.639224e+003,2.689730e-003
1.641152e+003,2.615681e-003
1.643081e+003,2.584377e-003
1.645009e+003,2.784612e-003
1.646938e+003,3.242869e-003
1.648866e+003,2.960086e-003
1.650795e+003,2.704091e-003
1.652723e+003,2.989817e-003
1.654652e+003,3.118388e-003
1.656580e+003,2.798464e-003
1.658509e+003,2.550730e-003
1.660437e+003,2.512805e-003
1.662366e+003,2.646290e-003
1.664294e+003,2.520148e-003
1.666223e+003,2.365656e-003
1.668151e+003,2.448561e-003
1.670080e+003,2.589459e-003
1.672008e+003,2.427617e-003
1.673937e+003,2.306432e-003
1.675865e+003,2.374576e-003
1.677794e+003,2.279468e-003
1.679722e+003,2.209578e-003
1.681651e+003,2.116770e-003
1.683579e+003,2.446089e-003
1.685508e+003,2.388278e-003
1.687436e+003,2.063235e-003
1.689365e+003,1.941519e-003
1.691293e+003,1.822969e-003
1.693222e+003,1.746643e-003
1.695150e+003,1.912624e-003
1.697079e+003,1.931859e-003
1.699007e+003,1.918478e-003
1.700936e+003,2.015440e-003
1.702864e+003,1.629500e-003
1.704793e+003,1.550047e-003
1.706721e+003,1.548106e-003
1.708650e+003,1.366438e-003
1.710578e+003,1.276545e-003
1.712507e+003,1.253709e-003
1.714435e+003,1.360983e-003
1.716364e+003,1.590161e-003
1.718292e+003,1.595302e-003
1.720221e+003,1.254566e-003
1.722149e+003,1.098774e-003
1.724078e+003,1.015332e-003
1.726006e+003,9.514820e-004
1.727935e+003,9.670909e-004
1.729863e+003,1.047948e-003
1.731792e+003,1.030385e-003
1.733720e+003,1.243625e-003
1.735649e+003,1.125524e-003
1.737577e+003,1.006564e-003
1.739506e+003,1.123596e-003
1.741434e+003,1.033427e-003
1.743363e+003,8.809846e-004
1.745291e+003,8.249488e-004
1.747220e+003,8.339733e-004
1.749148e+003,8.749310e-004
1.751077e+003,8.409601e-004
1.753005e+003,6.660596e-004
1.754934e+003,5.290844e-004
1.756862e+003,5.034823e-004
1.758791e+003,3.414005e-004
1.760719e+003,2.748612e-004
1.762648e+003,2.792962e-004
1.764576e+003,1.811404e-004
1.766505e+003,1.545846e-004
1.768433e+003,2.380516e-004
1.770362e+003,2.891142e-004
1.772290e+003,4.724246e-004
1.774219e+003,1.926925e-004
1.776147e+003,5.582348e-006
1.778076e+003,7.133931e-006
1.780004e+003,2.245363e-004
1.781933e+003,3.370102e-004
1.783861e+003,2.636481e-004
1.785790e+003,1.541916e-004
1.787718e+003,2.476759e-005
1.789646e+003,-1.306087e-005
1.791575e+003,1.520943e-004
1.793504e+003,2.723336e-004
1.795432e+003,1.179464e-004
1.797361e+003,-1.265481e-004
1.799289e+003,-1.176614e-004
1.801218e+003,7.729977e-006
1.803146e+003,-1.402870e-004
1.805074e+003,-3.012028e-004
1.807003e+003,-2.836995e-004
1.808932e+003,-3.098845e-004
1.810860e+003,-3.424864e-004
1.812789e+003,-5.984884e-004
1.814717e+003,-9.885393e-004
1.816646e+003,-1.103941e-003
1.818574e+003,-7.077549e-004
1.820502e+003,-4.026517e-004
1.822431e+003,-2.972092e-004
1.824360e+003,-1.513381e-004
1.826288e+003,-1.041740e-004
1.828217e+003,-1.966972e-004
1.830145e+003,-1.177900e-004
1.832073e+003,-2.376251e-004
1.834002e+003,-3.311764e-004
1.835931e+003,-3.065523e-004
1.837859e+003,-3.021006e-004
1.839788e+003,-4.413035e-004
1.841716e+003,-5.195383e-004
1.843645e+003,-3.710072e-004
1.845573e+003,-2.575498e-004
1.847501e+003,-3.599506e-004
1.849430e+003,-3.984403e-004
1.851359e+003,-4.152022e-004
1.853287e+003,-5.476512e-004
1.855216e+003,-5.810037e-004
1.857144e+003,-5.429722e-004
1.859073e+003,-6.203465e-004
1.861001e+003,-5.629882e-004
1.862929e+003,-5.560890e-004
1.864858e+003,-4.692785e-004
1.866787e+003,-4.785825e-004
1.868715e+003,-2.431665e-004
1.870644e+003,-4.106928e-004
1.872572e+003,-5.762242e-004
1.874500e+003,-6.380770e-004
1.876429e+003,-6.500352e-004
1.878357e+003,-5.857013e-004
1.880286e+003,-5.240776e-004
1.882215e+003,-5.958807e-004
1.884143e+003,-7.290021e-004
1.886072e+003,-7.652119e-004
1.888000e+003,-4.421715e-004
1.889928e+003,-4.661139e-004
1.891857e+003,-7.179901e-004
1.893785e+003,-8.048620e-004
1.895714e+003,-5.412456e-004
1.897643e+003,-6.184317e-004
1.899571e+003,-6.556530e-004
1.901500e+003,-6.476436e-004
1.903428e+003,-6.396398e-004
1.905356e+003,-6.316472e-004
1.907285e+003,-6.236602e-004
1.909213e+003,-6.156787e-004
1.911142e+003,-6.077066e-004
1.913071e+003,-5.997401e-004
1.914999e+003,-5.917810e-004
1.916927e+003,-5.838294e-004
1.918856e+003,-5.758870e-004
1.920784e+003,-5.679503e-004
1.922713e+003,-5.600210e-004
1.924641e+003,-5.520992e-004
1.926570e+003,-5.441792e-004
1.928499e+003,-5.362742e-004
1.930427e+003,-5.283747e-004
1.932355e+003,-5.204808e-004
1.934284e+003,-5.125906e-004
1.936212e+003,-5.047135e-004
1.938141e+003,-4.968401e-004
1.940070e+003,-4.889742e-004
1.941998e+003,-4.811157e-004
1.943927e+003,-4.732646e-004
1.945855e+003,-4.654210e-004
1.947783e+003,-4.575849e-004
1.949712e+003,-4.497562e-004
1.951640e+003,-4.419331e-004
1.953569e+003,-4.341193e-004
1.955498e+003,-4.263129e-004
1.957426e+003,-4.185103e-004
1.959354e+003,-4.107207e-004
1.961283e+003,-4.029330e-004
1.963211e+003,-3.951527e-004
1.965140e+003,-3.873836e-004
1.967068e+003,-3.796183e-004
1.968997e+003,-3.718585e-004
1.970926e+003,-3.641099e-004
1.972854e+003,-3.563669e-004
1.974782e+003,-3.486294e-004
1.976711e+003,-3.409050e-004
1.978639e+003,-3.331751e-004
1.980568e+003,-3.254674e-004
1.982496e+003,-3.177598e-004
1.984425e+003,-3.100596e-004
1.986354e+003,-3.023669e-004
1.988282e+003,-2.946816e-004
1.990210e+003,-2.870038e-004
1.992139e+003,-2.793297e-004
1.994067e+003,-2.716668e-004
1.995996e+003,-2.640113e-004
1.997924e+003,-2.563633e-004
1.999853e+003,-2.487190e-004
2.001781e+003,-2.410859e-004
2.003710e+003,-2.334565e-004
2.005638e+003,-2.258345e-004
2.007567e+003,-2.182201e-004
2.009495e+003,-2.106130e-004
2.011424e+003,-2.030171e-004
2.013352e+003,-1.954250e-004
2.015281e+003,-1.878366e-004
2.017209e+003,-1.802631e-004
2.019138e+003,-1.726896e-004
2.021066e+003,-1.651272e-004
2.022995e+003,-1.575723e-004
2.024923e+003,-1.500249e-004
2.026852e+003,-1.424812e-004
2.028781e+003,-1.349486e-004
2.030709e+003,-1.274198e-004
2.032637e+003,-1.198985e-004
2.034566e+003,-1.123846e-004
2.036494e+003,-1.048818e-004
2.038423e+003,-9.737909e-005
2.040351e+003,-8.988753e-005
2.042280e+003,-8.240342e-005
2.044208e+003,-7.492304e-005
2.046137e+003,-6.745756e-005
2.048065e+003,-5.999953e-005
2.049994e+003,-5.254149e-005
2.051922e+003,-4.509091e-005
2.053851e+003,-3.765151e-005
2.055779e+003,-3.021583e-005
2.057708e+003,-2.278760e-005
2.059636e+003,-1.536682e-005
2.061565e+003,-7.953495e-006
2.063493e+003,-5.550683e-007
2.065422e+003,6.843358e-006
2.067350e+003,1.423433e-005
2.069279e+003,2.162158e-005
2.071207e+003,2.899766e-005
2.073136e+003,3.636628e-005
2.075064e+003,4.372746e-005
2.076993e+003,5.108491e-005
2.078921e+003,5.843118e-005
2.080850e+003,6.576627e-005
2.082778e+003,7.310510e-005
2.084707e+003,8.043274e-005
2.086635e+003,8.774921e-005
2.088564e+003,9.506196e-005
2.090492e+003,1.023710e-004
2.092421e+003,1.096651e-004
2.094349e+003,1.169518e-004
2.096278e+003,1.242347e-004
2.098206e+003,1.315176e-004
2.100135e+003,1.387820e-004
2.102063e+003,1.460463e-004
2.103992e+003,1.532994e-004
2.105920e+003,1.605451e-004
2.107849e+003,1.677833e-004
2.109777e+003,1.750179e-004
2.111706e+003,1.822412e-004
2.113634e+003,1.894645e-004
2.115563e+003,1.966767e-004
2.117491e+003,2.038740e-004
2.119420e+003,2.110712e-004
2.121348e+003,2.182648e-004
2.123277e+003,2.254471e-004
2.125205e+003,2.326183e-004
2.127134e+003,2.397858e-004
2.129062e+003,2.469569e-004
2.130991e+003,2.541058e-004
2.132919e+003,2.612509e-004
2.134848e+003,2.683885e-004
2.136776e+003,2.755225e-004
2.138705e+003,2.826452e-004
2.140633e+003,2.897680e-004
2.142562e+003,2.968758e-004
2.144490e+003,3.039800e-004
2.146419e+003,3.110766e-004
2.148347e+003,3.181659e-004
2.150276e+003,3.252439e-004
2.152204e+003,3.323182e-004
2.154133e+003,3.393888e-004
2.156061e+003,3.464520e-004
2.157990e+003,3.535002e-004
2.159918e+003,3.605485e-004
2.161847e+003,3.675856e-004
2.163775e+003,3.746189e-004
2.165704e+003,3.816411e-004
2.167632e+003,3.886558e-004
2.169561e+003,3.956668e-004
2.171489e+003,4.026741e-004
2.173418e+003,4.096702e-004
2.175346e+003,4.166588e-004
2.177275e+003,4.236400e-004
2.179203e+003,4.306138e-004
2.181132e+003,4.375763e-004
2.183060e+003,4.445352e-004
2.184989e+003,4.514903e-004
2.186917e+003,4.584379e-004
2.188846e+003,4.653744e-004
2.190774e+003,4.723072e-004
2.192703e+003,4.792251e-004
2.194631e+003,4.861467e-004
2.196560e+003,4.930533e-004
2.198488e+003,4.999563e-004
2.200417e+003,5.068518e-004
2.202345e+003,5.137436e-004
2.204274e+003,5.206242e-004
2.206202e+003,5.274937e-004
2.208131e+003,5.343594e-004
2.210059e+003,5.412214e-004
2.211988e+003,5.480684e-004
2.213916e+003,5.549118e-004
2.215845e+003,5.617514e-004
2.217773e+003,5.685836e-004
2.219702e+003,5.754083e-004
2.221630e+003,5.822219e-004
2.223559e+003,5.890355e-004
2.225487e+003,5.958341e-004
2.227416e+003,6.026290e-004
2.229344e+003,6.094165e-004
2.231273e+003,6.162003e-004
2.233201e+003,6.229728e-004
2.235130e+003,6.297305e-004
2.237058e+003,6.364882e-004
2.238987e+003,6.432422e-004
2.240915e+003,6.499849e-004
2.242844e+003,6.567203e-004
2.244772e+003,6.634556e-004
2.246701e+003,6.701760e-004
2.248629e+003,6.768927e-004
2.250558e+003,6.836019e-004
2.252486e+003,6.903000e-004
2.254415e+003,6.969944e-004
2.256343e+003,7.036813e-004
2.258272e+003,7.103607e-004
2.260200e+003,7.170327e-004
2.262129e+003,7.236972e-004
2.264057e+003,7.303581e-004
2.265986e+003,7.370040e-004
2.267914e+003,7.436499e-004
2.269843e+003,7.502846e-004
2.271771e+003,7.569119e-004
2.273700e+003,7.635318e-004
2.275628e+003,7.701516e-004
2.277557e+003,7.767603e-004
2.279485e+003,7.833615e-004
2.281414e+003,7.899515e-004
2.283342e+003,7.965341e-004
2.285271e+003,8.031167e-004
2.287199e+003,8.096881e-004
2.289128e+003,8.162595e-004
2.291056e+003,8.228123e-004
2.292985e+003,8.293614e-004
2.294913e+003,8.359067e-004
2.296842e+003,8.424409e-004
2.298770e+003,8.489639e-004
2.300699e+003,8.554906e-004
2.302627e+003,8.620061e-004
2.304556e+003,8.685142e-004
2.306484e+003,8.750111e-004
2.308413e+003,8.815005e-004
2.310341e+003,8.879900e-004
2.312270e+003,8.944683e-004
2.314198e+003,9.009354e-004
2.316127e+003,9.073988e-004
2.318055e+003,9.138584e-004
2.319984e+003,9.203069e-004
2.321912e+003,9.267479e-004
2.323841e+003,9.331852e-004
2.325769e+003,9.396151e-004
2.327698e+003,9.460300e-004
2.329626e+003,9.524487e-004
2.331555e+003,9.588487e-004
2.333483e+003,9.652562e-004
2.335412e+003,9.716488e-004
2.337340e+003,9.780303e-004
2.339269e+003,9.844117e-004
2.341197e+003,9.907782e-004
2.343126e+003,9.971373e-004
2.345054e+003,1.003493e-003
2.346983e+003,1.009844e-003
2.348911e+003,1.016192e-003
2.350840e+003,1.022521e-003
2.352768e+003,1.028847e-003
2.354697e+003,1.035169e-003
2.356625e+003,1.041479e-003
2.358554e+003,1.047786e-003
2.360482e+003,1.054082e-003
2.362411e+003,1.060374e-003
2.364339e+003,1.066662e-003
2.366268e+003,1.072939e-003
2.368196e+003,1.079209e-003
2.370125e+003,1.085468e-003
2.372053e+003,1.091726e-003
2.373982e+003,1.097977e-003
2.375910e+003,1.104210e-003
2.377839e+003,1.110449e-003
2.379767e+003,1.116678e-003
2.381696e+003,1.122896e-003
2.383624e+003,1.129109e-003
2.385553e+003,1.135312e-003
2.387481e+003,1.141515e-003
2.389410e+003,1.147702e-003
2.391338e+003,1.153890e-003
2.393267e+003,1.160063e-003
2.395195e+003,1.166232e-003
2.397124e+003,1.172394e-003
2.399052e+003,1.178551e-003
2.400981e+003,1.263235e-003
2.402909e+003,1.308195e-003
2.404838e+003,1.341388e-003
2.406766e+003,1.512207e-003
2.408695e+003,1.726184e-003
2.410623e+003,1.703933e-003
2.412552e+003,1.661126e-003
2.414480e+003,1.626875e-003
2.416409e+003,1.664020e-003
2.418337e+003,1.707289e-003
2.420266e+003,1.762617e-003
2.422194e+003,1.953211e-003
2.424123e+003,2.124500e-003
2.426051e+003,2.124391e-003
2.427979e+003,2.199613e-003
2.429908e+003,2.196029e-003
2.431837e+003,2.114039e-003
2.433765e+003,2.102315e-003
2.435694e+003,2.106916e-003
2.437622e+003,1.981754e-003
2.439551e+003,2.058741e-003
2.441479e+003,2.114151e-003
2.443407e+003,2.162576e-003
2.445336e+003,2.257213e-003
2.447265e+003,2.373077e-003
2.449193e+003,2.269786e-003
2.451122e+003,2.268314e-003
2.453050e+003,2.373960e-003
2.454979e+003,2.484497e-003
2.456907e+003,2.398178e-003
2.458836e+003,2.184197e-003
2.460764e+003,2.028719e-003
2.462693e+003,2.022993e-003
2.464621e+003,1.925617e-003
2.466550e+003,1.805071e-003
2.468478e+003,1.677286e-003
2.470406e+003,1.739006e-003
2.472335e+003,1.859721e-003
2.474264e+003,1.941938e-003
2.476192e+003,1.857284e-003
2.478121e+003,1.820687e-003
2.480049e+003,1.922432e-003
2.481978e+003,1.874875e-003
2.483906e+003,1.905229e-003
2.485835e+003,2.185285e-003
2.487763e+003,2.293013e-003
2.489692e+003,2.217166e-003
2.491620e+003,2.135359e-003
2.493549e+003,1.986884e-003
2.495477e+003,1.949705e-003
2.497406e+003,2.147809e-003
2.499334e+003,2.137862e-003
2.501263e+003,2.081905e-003
2.503191e+003,2.089713e-003
2.505120e+003,2.098992e-003
2.507048e+003,2.184257e-003
2.508977e+003,2.280958e-003
2.510905e+003,2.397783e-003
2.512833e+003,2.433613e-003
2.514762e+003,2.354026e-003
2.516691e+003,2.298400e-003
2.518619e+003,2.284143e-003
2.520548e+003,2.470136e-003
2.522476e+003,2.687272e-003
2.524405e+003,2.752740e-003
2.526333e+003,2.787068e-003
2.528261e+003,3.022403e-003
2.530190e+003,3.197085e-003
2.532119e+003,3.114250e-003
2.534047e+003,3.125768e-003
2.535976e+003,3.217705e-003
2.537904e+003,3.208045e-003
2.539833e+003,3.333881e-003
2.541761e+003,3.381480e-003
2.543689e+003,3.484141e-003
2.545618e+003,3.646016e-003
2.547547e+003,3.812365e-003
2.549475e+003,3.908906e-003
2.551404e+003,4.049052e-003
2.553332e+003,4.111644e-003
2.555260e+003,4.176177e-003
2.557189e+003,4.293293e-003
2.559117e+003,4.548244e-003
2.561046e+003,4.555527e-003
2.562975e+003,4.576966e-003
2.564903e+003,4.653655e-003
2.566832e+003,4.716542e-003
2.568760e+003,4.893627e-003
2.570688e+003,5.078986e-003
2.572617e+003,5.276088e-003
2.574546e+003,5.606361e-003
2.576474e+003,5.916558e-003
2.578403e+003,6.110828e-003
2.580331e+003,6.108977e-003
2.582260e+003,6.209899e-003
2.584188e+003,6.266933e-003
2.586116e+003,6.076053e-003
2.588045e+003,5.747762e-003
2.589974e+003,5.475581e-003
2.591902e+003,5.266238e-003
2.593831e+003,5.311307e-003
2.595759e+003,5.487565e-003
2.597688e+003,5.601645e-003
2.599616e+003,5.578797e-003
2.601544e+003,5.665157e-003
2.603473e+003,5.843196e-003
2.605402e+003,6.065443e-003
2.607330e+003,6.389875e-003
2.609259e+003,6.658655e-003
2.611187e+003,6.768912e-003
2.613115e+003,6.871451e-003
2.615044e+003,6.941676e-003
2.616972e+003,7.012721e-003
2.618901e+003,7.084679e-003
2.620830e+003,7.155102e-003
2.622758e+003,7.186063e-003
2.624687e+003,7.200897e-003
2.626615e+003,7.230818e-003
2.628543e+003,7.246587e-003
2.630472e+003,7.303305e-003
2.632400e+003,7.387701e-003
2.634329e+003,7.354736e-003
2.636258e+003,7.338956e-003
2.638186e+003,7.454630e-003
2.640115e+003,7.657330e-003
2.642043e+003,7.822957e-003
2.643971e+003,7.962391e-003
2.645900e+003,8.096345e-003
2.647828e+003,8.280817e-003
2.649757e+003,8.460715e-003
2.651686e+003,8.548051e-003
2.653614e+003,8.662071e-003
2.655542e+003,8.754626e-003
2.657471e+003,8.809216e-003
2.659399e+003,8.767448e-003
2.661328e+003,8.574471e-003
2.663256e+003,8.269686e-003
2.665185e+003,8.008432e-003
2.667114e+003,7.890530e-003
2.669042e+003,7.870529e-003
2.670970e+003,7.894840e-003
2.672899e+003,7.941563e-003
2.674827e+003,8.005280e-003
2.676756e+003,8.073796e-003
2.678685e+003,8.169763e-003
2.680613e+003,8.133270e-003
2.682542e+003,8.063566e-003
2.684470e+003,8.037142e-003
2.686398e+003,8.121938e-003
2.688327e+003,8.227512e-003
2.690255e+003,8.197840e-003
2.692184e+003,8.115381e-003
2.694113e+003,8.135900e-003
2.696041e+003,8.254793e-003
2.697969e+003,8.380298e-003
2.699898e+003,8.581210e-003
2.701826e+003,8.788887e-003
2.703755e+003,8.981910e-003
2.705683e+003,9.258714e-003
2.707612e+003,9.529404e-003
2.709541e+003,9.849165e-003
2.711469e+003,1.026090e-002
2.713397e+003,1.079268e-002
2.715326e+003,1.143860e-002
2.717254e+003,1.221248e-002
2.719183e+003,1.300608e-002
2.721111e+003,1.354824e-002
2.723040e+003,1.349223e-002
2.724969e+003,1.298609e-002
2.726897e+003,1.234506e-002
2.728825e+003,1.175820e-002
2.730754e+003,1.131802e-002
2.732682e+003,1.098724e-002
2.734611e+003,1.071807e-002
2.736539e+003,1.047791e-002
2.738468e+003,1.017612e-002
2.740396e+003,9.851541e-003
2.742325e+003,9.600893e-003
2.744253e+003,9.443175e-003
2.746182e+003,9.452395e-003
2.748110e+003,9.515677e-003
2.750039e+003,9.515777e-003
2.751967e+003,9.546380e-003
2.753896e+003,9.612497e-003
2.755824e+003,9.773504e-003
2.757753e+003,9.983014e-003
2.759681e+003,1.019428e-002
2.761610e+003,1.044338e-002
2.763538e+003,1.072420e-002
2.765467e+003,1.092738e-002
2.767395e+003,1.109419e-002
2.769324e+003,1.123972e-002
2.771252e+003,1.140603e-002
2.773181e+003,1.166331e-002
2.775109e+003,1.208149e-002
2.777038e+003,1.252273e-002
2.778966e+003,1.297488e-002
2.780895e+003,1.352213e-002
2.782823e+003,1.413219e-002
2.784752e+003,1.478038e-002
2.786680e+003,1.555939e-002
2.788609e+003,1.642604e-002
2.790537e+003,1.732958e-002
2.792466e+003,1.816419e-002
2.794394e+003,1.884849e-002
2.796323e+003,1.938157e-002
2.798251e+003,1.999006e-002
2.800180e+003,2.083872e-002
2.802108e+003,2.203306e-002
2.804037e+003,2.353983e-002
2.805965e+003,2.510680e-002
2.807894e+003,2.649795e-002
2.809822e+003,2.773141e-002
2.811751e+003,2.900852e-002
2.813679e+003,3.039850e-002
2.815608e+003,3.199073e-002
2.817536e+003,3.402776e-002
2.819465e+003,3.661460e-002
2.821393e+003,3.981794e-002
2.823322e+003,4.386955e-002
2.825250e+003,4.936518e-002
2.827179e+003,5.720649e-002
2.829107e+003,6.876440e-002
2.831036e+003,8.567037e-002
2.832964e+003,1.081004e-001
2.834893e+003,1.311927e-001
2.836821e+003,1.460035e-001
2.838750e+003,1.466624e-001
2.840678e+003,1.343124e-001
2.842607e+003,1.149408e-001
2.844535e+003,9.520271e-002
2.846464e+003,7.915691e-002
2.848392e+003,6.780283e-002
2.850321e+003,6.077470e-002
2.852249e+003,5.758511e-002
2.854178e+003,5.788082e-002
2.856106e+003,6.230193e-002
2.858035e+003,7.219063e-002
2.859963e+003,8.925319e-002
2.861892e+003,1.128212e-001
2.863820e+003,1.354399e-001
2.865749e+003,1.465626e-001
2.867677e+003,1.448434e-001
2.869606e+003,1.379338e-001
2.871534e+003,1.324426e-001
2.873463e+003,1.310502e-001
2.875391e+003,1.333162e-001
2.877320e+003,1.350716e-001
2.879248e+003,1.331301e-001
2.881177e+003,1.289644e-001
2.883105e+003,1.250158e-001
2.885034e+003,1.222462e-001
2.886962e+003,1.206101e-001
2.888891e+003,1.201568e-001
2.890819e+003,1.215754e-001
2.892748e+003,1.256728e-001
2.894676e+003,1.330431e-001
2.896605e+003,1.438294e-001
2.898533e+003,1.572788e-001
2.900462e+003,1.721444e-001
2.902390e+003,1.877236e-001
2.904319e+003,2.028170e-001
2.906247e+003,2.159595e-001
2.908176e+003,2.276829e-001
2.910104e+003,2.416604e-001
2.912033e+003,2.622764e-001
2.913961e+003,2.878317e-001
2.915890e+003,3.066053e-001
2.917818e+003,3.060981e-001
2.919747e+003,2.879091e-001
2.921675e+003,2.639680e-001
2.923604e+003,2.411889e-001
2.925532e+003,2.184434e-001
2.927461e+003,1.933180e-001
2.929389e+003,1.668480e-001
2.931318e+003,1.426570e-001
2.933246e+003,1.237654e-001
2.935175e+003,1.117081e-001
2.937103e+003,1.071599e-001
2.939032e+003,1.111364e-001
2.940960e+003,1.256664e-001
2.942889e+003,1.517738e-001
2.944817e+003,1.868253e-001
2.946746e+003,2.222210e-001
2.948674e+003,2.442130e-001
2.950603e+003,2.420948e-001
2.952531e+003,2.207079e-001
2.954460e+003,1.971571e-001
2.956388e+003,1.844248e-001
2.958317e+003,1.824207e-001
2.960245e+003,1.803422e-001
2.962174e+003,1.668065e-001
2.964102e+003,1.429924e-001
2.966031e+003,1.178027e-001
2.967959e+003,9.501530e-002
2.969888e+003,7.484122e-002
2.971816e+003,5.779443e-002
2.973745e+003,4.406592e-002
2.975673e+003,3.343162e-002
2.977602e+003,2.540182e-002
2.979530e+003,1.932891e-002
2.981459e+003,1.468294e-002
2.983387e+003,1.113457e-002
2.985316e+003,8.531574e-003
2.987244e+003,6.567754e-003
2.989173e+003,4.949857e-003
2.991101e+003,3.693312e-003
2.993030e+003,2.675716e-003
2.994958e+003,1.860369e-003
2.996887e+003,1.221403e-003
2.998815e+003,6.213188e-004
3.000744e+003,5.733967e-005
3.002672e+003,-3.080815e-004
3.004601e+003,-6.049201e-004
3.006529e+003,-8.065477e-004
3.008458e+003,-9.862930e-004
3.010386e+003,-1.205441e-003
3.012315e+003,-1.405694e-003
3.014243e+003,-1.560133e-003
3.016172e+003,-1.655426e-003
3.018100e+003,-1.654986e-003
3.020029e+003,-1.701724e-003
3.021957e+003,-1.782980e-003
3.023886e+003,-1.893807e-003
3.025814e+003,-1.956679e-003
3.027743e+003,-1.961444e-003
3.029671e+003,-1.946673e-003
3.031600e+003,-1.980685e-003
3.033528e+003,-2.001200e-003
3.035457e+003,-1.940072e-003
3.037385e+003,-1.918688e-003
3.039314e+003,-1.953404e-003
3.041242e+003,-1.924284e-003
3.043171e+003,-1.848858e-003
3.045099e+003,-1.812637e-003
3.047028e+003,-1.752105e-003
3.048956e+003,-1.652870e-003
3.050885e+003,-1.639187e-003
3.052813e+003,-1.640789e-003
3.054742e+003,-1.581054e-003
3.056670e+003,-1.516193e-003
3.058599e+003,-1.529921e-003
3.060527e+003,-1.485139e-003
3.062456e+003,-1.409471e-003
3.064384e+003,-1.303732e-003
3.066313e+003,-1.363501e-003
3.068241e+003,-1.482863e-003
3.070170e+003,-1.453105e-003
3.072098e+003,-1.407694e-003
3.074027e+003,-1.407403e-003
3.075955e+003,-1.410395e-003
3.077884e+003,-1.437072e-003
3.079812e+003,-1.417041e-003
3.081741e+003,-1.365025e-003
3.083669e+003,-1.283932e-003
3.085598e+003,-1.213439e-003
3.087526e+003,-1.259819e-003
3.089455e+003,-1.193468e-003
3.091383e+003,-1.070127e-003
3.093312e+003,-1.088038e-003
3.095240e+003,-1.068246e-003
3.097169e+003,-1.006506e-003
3.099097e+003,-1.011018e-003
3.101026e+003,-9.240396e-004
3.102954e+003,-8.451529e-004
3.104883e+003,-7.979646e-004
3.106811e+003,-7.168613e-004
3.108740e+003,-6.979443e-004
3.110668e+003,-7.397197e-004
3.112597e+003,-7.412136e-004
3.114525e+003,-6.294064e-004
3.116454e+003,-5.805269e-004
3.118382e+003,-6.168783e-004
3.120311e+003,-5.588271e-004
3.122239e+003,-4.295520e-004
3.124168e+003,-3.208481e-004
3.126096e+003,-3.135279e-004
3.128025e+003,-2.789125e-004
3.129953e+003,-9.545311e-005
3.131882e+003,-3.954768e-005
3.133810e+003,5.640090e-006
3.135739e+003,1.191385e-004
3.137667e+003,1.991093e-004
3.139596e+003,1.949854e-004
3.141524e+003,2.319925e-004
3.143453e+003,2.713315e-004
3.145381e+003,2.888516e-004
3.147310e+003,3.168955e-004
3.149238e+003,3.476702e-004
3.151167e+003,3.015548e-004
3.153095e+003,2.585128e-004
3.155024e+003,2.503544e-004
3.156952e+003,3.114343e-004
3.158881e+003,3.826879e-004
3.160809e+003,2.863109e-004
3.162738e+003,1.878738e-004
3.164666e+003,3.315248e-004
3.166594e+003,4.503205e-004
3.168523e+003,4.522279e-004
3.170452e+003,4.603527e-004
3.172380e+003,4.412048e-004
3.174309e+003,5.131848e-004
3.176237e+003,5.709343e-004
3.178166e+003,6.219782e-004
3.180094e+003,6.893836e-004
3.182022e+003,7.533692e-004
3.183951e+003,8.322112e-004
3.185880e+003,8.793622e-004
3.187808e+003,9.367764e-004
3.189737e+003,1.023442e-003
3.191665e+003,1.116470e-003
3.193594e+003,1.073133e-003
3.195522e+003,1.011170e-003
3.197450e+003,1.031857e-003
3.199379e+003,1.103628e-003
3.201308e+003,1.091003e-003
3.203236e+003,1.005840e-003
3.205165e+003,9.859689e-004
3.207093e+003,9.100139e-004
3.209021e+003,8.812211e-004
3.210950e+003,8.826517e-004
3.212878e+003,8.428544e-004
3.214807e+003,8.765459e-004
3.216736e+003,8.571595e-004
3.218664e+003,7.897988e-004
3.220593e+003,7.728785e-004
3.222521e+003,6.936342e-004
3.224449e+003,5.147047e-004
3.226378e+003,4.702844e-004
3.228307e+003,5.149469e-004
3.230235e+003,4.788972e-004
3.232164e+003,3.766678e-004
3.234092e+003,4.284680e-004
3.236021e+003,3.602393e-004
3.237949e+003,2.657697e-004
3.239877e+003,2.756938e-004
3.241806e+003,3.549457e-004
3.243735e+003,4.356392e-004
3.245663e+003,4.962385e-004
3.247592e+003,5.201474e-004
3.249520e+003,5.963817e-004
3.251448e+003,5.096607e-004
3.253377e+003,4.942194e-004
3.255305e+003,5.524270e-004
3.257234e+003,5.297028e-004
3.259163e+003,5.161390e-004
3.261091e+003,6.394014e-004
3.263020e+003,7.318258e-004
3.264948e+003,6.728694e-004
3.266876e+003,6.630421e-004
3.268805e+003,7.012151e-004
3.270733e+003,7.705949e-004
3.272662e+003,9.224676e-004
3.274591e+003,9.414814e-004
3.276519e+003,9.070747e-004
3.278448e+003,9.194314e-004
3.280376e+003,9.778552e-004
3.282304e+003,1.031358e-003
3.284233e+003,9.841509e-004
3.286161e+003,9.051003e-004
3.288090e+003,9.258352e-004
3.290019e+003,9.662956e-004
3.291947e+003,9.742826e-004
3.293875e+003,9.720922e-004
3.295804e+003,1.033165e-003
3.297732e+003,1.111086e-003
3.299661e+003,1.201939e-003
3.301589e+003,1.182586e-003
3.303518e+003,1.086354e-003
3.305447e+003,9.726100e-004
3.307375e+003,9.125620e-004
3.309303e+003,1.013666e-003
3.311232e+003,1.043569e-003
3.313160e+003,9.783022e-004
3.315089e+003,9.374991e-004
3.317018e+003,9.409077e-004
3.318946e+003,9.545945e-004
3.320875e+003,9.263642e-004
3.322803e+003,9.756014e-004
3.324731e+003,1.163319e-003
3.326660e+003,1.240581e-003
3.328588e+003,1.196846e-003
3.330517e+003,1.206920e-003
3.332446e+003,1.219764e-003
3.334374e+003,1.169730e-003
3.336302e+003,1.284033e-003
3.338231e+003,1.327604e-003
3.340159e+003,1.282252e-003
3.342088e+003,1.259714e-003
3.344016e+003,1.263056e-003
3.345945e+003,1.289986e-003
3.347874e+003,1.304973e-003
3.349802e+003,1.362156e-003
3.351730e+003,1.366463e-003
3.353659e+003,1.248423e-003
3.355587e+003,1.213048e-003
3.357516e+003,1.246266e-003
3.359444e+003,1.286797e-003
3.361373e+003,1.373056e-003
3.363302e+003,1.374457e-003
3.365230e+003,1.302890e-003
3.367158e+003,1.202963e-003
3.369087e+003,1.103286e-003
3.371015e+003,1.093619e-003
3.372944e+003,1.086365e-003
3.374872e+003,1.059942e-003
3.376801e+003,1.047187e-003
3.378729e+003,1.069646e-003
3.380658e+003,1.007676e-003
3.382586e+003,8.834824e-004
3.384515e+003,9.091273e-004
3.386443e+003,9.443499e-004
3.388372e+003,9.631850e-004
3.390300e+003,8.994378e-004
3.392229e+003,1.001123e-003
3.394157e+003,1.085401e-003
3.396086e+003,1.047187e-003
3.398014e+003,9.985194e-004
3.399943e+003,8.589104e-004
3.401871e+003,7.675923e-004
3.403800e+003,8.954033e-004
3.405728e+003,9.729564e-004
3.407657e+003,1.018599e-003
3.409585e+003,1.101952e-003
3.411514e+003,1.129512e-003
3.413442e+003,1.064889e-003
3.415371e+003,9.934939e-004
3.417299e+003,8.016340e-004
3.419228e+003,6.742589e-004
3.421156e+003,7.401109e-004
3.423085e+003,8.014478e-004
3.425013e+003,7.840171e-004
3.426942e+003,6.928705e-004
3.428870e+003,6.798469e-004
3.430799e+003,7.564947e-004
3.432727e+003,7.219724e-004
3.434656e+003,6.236061e-004
3.436584e+003,4.808046e-004
3.438513e+003,3.817268e-004
3.440441e+003,3.537685e-004
3.442370e+003,4.889406e-004
3.444298e+003,5.999915e-004
3.446227e+003,6.369464e-004
3.448155e+003,6.795265e-004
3.450084e+003,5.416125e-004
3.452012e+003,4.242100e-004
3.453941e+003,3.418550e-004
3.455869e+003,3.594831e-004
3.457798e+003,4.564673e-004
3.459726e+003,4.111044e-004
3.461655e+003,4.199781e-004
3.463583e+003,4.602000e-004
3.465512e+003,3.147423e-004
3.467440e+003,2.021678e-004
3.469369e+003,1.869500e-004
3.471297e+003,1.650192e-004
3.473226e+003,1.470111e-004
3.475154e+003,2.251938e-004
3.477083e+003,1.742989e-004
3.479011e+003,3.313646e-005
3.480940e+003,2.541393e-005
3.482868e+003,7.492304e-005
3.484797e+003,-3.740564e-005
3.486725e+003,-8.344650e-005
3.488654e+003,-3.152341e-005
3.490582e+003,-1.389384e-004
3.492511e+003,-2.144091e-004
3.494439e+003,-1.612827e-004
3.496368e+003,-1.876988e-004
3.498296e+003,-1.924820e-004
3.500225e+003,-1.842864e-004
3.502153e+003,-1.099706e-004
3.504082e+003,-6.122887e-005
3.506010e+003,-2.399385e-004
3.507939e+003,-3.359728e-004
3.509867e+003,-2.128333e-004
3.511796e+003,-1.669675e-004
3.513724e+003,-3.315099e-004
3.515653e+003,-4.802644e-004
3.517581e+003,-4.242025e-004
3.519510e+003,-4.306398e-004
3.521438e+003,-4.340671e-004
3.523367e+003,-2.200417e-004
3.525295e+003,-3.172942e-004
3.527224e+003,-3.307350e-004
3.529152e+003,-3.085174e-004
3.531081e+003,-5.345531e-004
3.533009e+003,-5.333200e-004
3.534938e+003,-4.701130e-004
3.536866e+003,-4.360229e-004
3.538795e+003,-6.862096e-004
3.540723e+003,-8.830950e-004
3.542652e+003,-9.375997e-004
3.544580e+003,-7.616580e-004
3.546509e+003,-5.575754e-004
3.548437e+003,-7.808320e-004
3.550366e+003,-1.021862e-003
3.552294e+003,-8.007847e-004
3.554223e+003,-7.513575e-004
3.556151e+003,-9.950958e-004
3.558080e+003,-1.037572e-003
3.560008e+003,-9.183288e-004
3.561937e+003,-1.071233e-003
3.563865e+003,-1.294956e-003
3.565794e+003,-1.012210e-003
3.567722e+003,-5.363077e-004
3.569651e+003,-8.587204e-004
3.571579e+003,-1.349811e-003
3.573508e+003,-1.487091e-003
3.575436e+003,-1.342203e-003
3.577365e+003,-1.467232e-003
3.579293e+003,-1.608606e-003
3.581222e+003,-1.534078e-003
3.583150e+003,-1.545887e-003
3.585079e+003,-1.509309e-003
3.587007e+003,-9.538345e-004
3.588936e+003,-8.931980e-004
3.590864e+003,-1.368232e-003
3.592793e+003,-1.359392e-003
3.594721e+003,-8.133501e-004
3.596650e+003,-8.908622e-004
3.598578e+003,-1.143835e-003
3.600507e+003,-1.073472e-003
3.602435e+003,-1.270849e-003
3.604364e+003,-1.630019e-003
3.606292e+003,-1.435682e-003
3.608221e+003,-1.061056e-003
3.610149e+003,-1.205746e-003
3.612078e+003,-1.011681e-003
3.614006e+003,-7.816181e-004
3.615935e+003,-1.031213e-003
3.617863e+003,-9.801239e-004
3.619792e+003,-5.330034e-004
3.621720e+003,-8.264892e-004
3.623649e+003,-1.337171e-003
3.625577e+003,-1.540683e-003
3.627506e+003,-9.650290e-004
3.629434e+003,2.210923e-004
3.631363e+003,-3.746301e-004
3.633291e+003,-7.750727e-004
3.635220e+003,-1.053520e-003
3.637148e+003,-1.089446e-003
3.639077e+003,-9.389296e-004
3.641005e+003,-9.410642e-004
3.642934e+003,-1.135271e-003
3.644862e+003,-1.519814e-003
3.646791e+003,-1.402967e-003
3.648719e+003,-3.589019e-004
3.650648e+003,-8.843467e-005
3.652576e+003,-9.707734e-004
3.654505e+003,-1.424368e-003
3.656433e+003,-9.678416e-004
3.658362e+003,-9.112917e-004
3.660290e+003,-1.080662e-003
3.662219e+003,-1.209795e-003
3.664147e+003,-1.219548e-003
3.666076e+003,-1.314487e-003
3.668004e+003,-1.153231e-003
3.669933e+003,-1.314580e-004
3.671861e+003,-3.742911e-004
3.673790e+003,-5.973838e-004
3.675718e+003,4.520677e-004
3.677647e+003,-1.485571e-004
3.679575e+003,-4.434101e-004
3.681504e+003,-6.399304e-004
3.683432e+003,-8.032024e-004
3.685361e+003,-1.087874e-003
3.687289e+003,-1.044545e-003
3.689218e+003,-3.224984e-005
3.691146e+003,2.791099e-004
3.693075e+003,-1.526289e-004
3.695003e+003,-4.354194e-004
3.696932e+003,-4.709661e-004
3.698860e+003,-4.901364e-004
3.700789e+003,-3.202148e-004
3.702717e+003,-1.166128e-004
3.704646e+003,-2.788566e-004
3.706574e+003,-7.245839e-004
3.708503e+003,-8.164980e-004
3.710431e+003,-1.385100e-004
3.712360e+003,3.443994e-004
3.714288e+003,3.254414e-005
3.716217e+003,-3.957562e-004
3.718145e+003,-5.563013e-004
3.720074e+003,-7.046089e-004
3.722002e+003,-5.617738e-004
3.723931e+003,-4.563145e-004
3.725859e+003,4.820526e-005
3.727788e+003,2.168380e-004
3.729716e+003,-2.562255e-004
3.731645e+003,-3.505908e-004
3.733573e+003,-2.245232e-005
3.735502e+003,1.007330e-003
3.737430e+003,8.816198e-004
3.739359e+003,2.847202e-004
3.741287e+003,-2.351254e-004
3.743216e+003,-2.275668e-004
3.745144e+003,1.127552e-003
3.747073e+003,6.176271e-004
3.749001e+003,1.341663e-004
3.750930e+003,9.164698e-004
3.752858e+003,1.456767e-003
3.754787e+003,5.628243e-004
3.756715e+003,1.410283e-004
3.758644e+003,4.728585e-004
3.760572e+003,7.179976e-004
3.762501e+003,3.006123e-004
3.764429e+003,2.180487e-004
3.766358e+003,3.474057e-004
3.768286e+003,4.398115e-004
3.770215e+003,7.074699e-004
3.772143e+003,4.522800e-004
3.774072e+003,8.466467e-005
3.776000e+003,-1.954399e-004
3.777929e+003,-8.583069e-005
3.779857e+003,3.838502e-004
3.781786e+003,1.678057e-004
3.783714e+003,1.055561e-004
3.785643e+003,2.991632e-004
3.787571e+003,1.770929e-004
3.789500e+003,7.393584e-005
3.791428e+003,-3.154576e-005
3.793357e+003,-1.137741e-004
3.795285e+003,1.066960e-004
3.797214e+003,2.134666e-004
3.799142e+003,-1.733005e-004
3.801071e+003,6.906837e-004
3.802999e+003,9.313524e-004
3.804927e+003,2.461858e-004
3.806856e+003,6.280243e-004
3.808785e+003,7.288530e-004
3.810713e+003,2.303571e-004
3.812642e+003,-1.311861e-004
3.814570e+003,4.377216e-005
3.816499e+003,4.295632e-004
3.818427e+003,2.534688e-005
3.820355e+003,6.991699e-004
3.822284e+003,1.262493e-003
3.824213e+003,5.417168e-004
3.826141e+003,3.557652e-004
3.828070e+003,7.534027e-005
3.829998e+003,-6.224588e-005
3.831927e+003,3.006235e-004
3.833855e+003,2.722219e-004
3.835783e+003,3.530607e-004
3.837712e+003,7.488579e-004
3.839641e+003,9.956509e-004
3.841569e+003,6.506890e-004
3.843498e+003,5.755424e-004
3.845426e+003,5.854145e-004
3.847354e+003,2.838895e-004
3.849283e+003,-7.880479e-005
3.851211e+003,-2.483726e-004
3.853140e+003,8.794665e-004
3.855069e+003,1.254849e-003
3.856997e+003,7.477850e-004
3.858926e+003,1.467317e-004
3.860854e+003,1.042038e-004
3.862782e+003,4.894808e-004
3.864711e+003,6.490871e-004
3.866640e+003,2.546236e-004
3.868568e+003,1.649037e-004
3.870497e+003,6.426498e-004
3.872425e+003,4.675910e-004
3.874354e+003,5.626231e-004
3.876282e+003,1.576692e-004
3.878210e+003,-3.559887e-005
3.880139e+003,5.479753e-004
3.882068e+003,7.585660e-004
3.883996e+003,5.523860e-004
3.885925e+003,8.335263e-004
3.887853e+003,3.906116e-004
3.889781e+003,2.399310e-004
3.891710e+003,7.276908e-004
3.893638e+003,7.244200e-004
3.895567e+003,2.249479e-004
3.897496e+003,1.489744e-004
3.899424e+003,6.585643e-004
3.901353e+003,7.137731e-004
3.903281e+003,7.830188e-004
3.905209e+003,1.104817e-003
3.907138e+003,7.947385e-004
3.909066e+003,5.216822e-004
3.910995e+003,4.368275e-004
3.912924e+003,2.560094e-004
3.914852e+003,1.466870e-004
3.916781e+003,4.275888e-004
3.918709e+003,6.258711e-004
3.920637e+003,5.000830e-004
3.922566e+003,3.043786e-004
3.924494e+003,6.571338e-004
3.926423e+003,7.550940e-004
3.928352e+003,5.905628e-004
3.930280e+003,5.508736e-004
3.932208e+003,5.836710e-004
3.934137e+003,5.046651e-004
3.936065e+003,3.671944e-004
3.937994e+003,2.676845e-004
3.939922e+003,2.023578e-004
3.941851e+003,3.944561e-004
3.943780e+003,6.510839e-004
3.945708e+003,4.431158e-004
3.947636e+003,2.932400e-004
3.949565e+003,4.300177e-004
3.951493e+003,4.415363e-004
3.953422e+003,3.461242e-004
3.955351e+003,3.339276e-004
3.957279e+003,3.919974e-004
3.959208e+003,4.453436e-004
3.961136e+003,4.338548e-004
3.963064e+003,3.981888e-004
3.964993e+003,3.380850e-004
3.966921e+003,2.922490e-004
3.968850e+003,2.645105e-004
3.970779e+003,3.474578e-004
3.972707e+003,3.294349e-004
3.974635e+003,2.583191e-004
3.976564e+003,3.231689e-004
3.978492e+003,3.608316e-004
3.980421e+003,3.733188e-004
3.982349e+003,4.983470e-004
3.984278e+003,5.124211e-004
3.986207e+003,4.248396e-004
3.988135e+003,4.803315e-004
3.990063e+003,6.485134e-004
3.991992e+003,6.990880e-004
3.993920e+003,5.977899e-004
3.995849e+003,5.433038e-004
3.997777e+003,5.515143e-004
3.999706e+003,6.118789e-004
4.001635e+003,0.000000e+000
