3.991992e+002,0.000000e+000
4.011277e+002,0.000000e+000
4.030562e+002,0.000000e+000
4.049846e+002,0.000000e+000
4.069131e+002,0.000000e+000
4.088416e+002,0.000000e+000
4.107701e+002,0.000000e+000
4.126986e+002,0.000000e+000
4.146271e+002,0.000000e+000
4.165556e+002,0.000000e+000
4.184841e+002,0.000000e+000
4.204126e+002,0.000000e+000
4.223411e+002,0.000000e+000
4.242697e+002,0.000000e+000
4.261982e+002,0.000000e+000
4.281266e+002,0.000000e+000
4.300551e+002,0.000000e+000
4.319836e+002,0.000000e+000
4.339121e+002,0.000000e+000
4.358406e+002,0.000000e+000
4.377691e+002,0.000000e+000
4.396976e+002,0.000000e+000
4.416261e+002,0.000000e+000
4.435546e+002,0.000000e+000
4.454831e+002,0.000000e+000
4.474116e+002,0.000000e+000
4.493401e+002,0.000000e+000
4.512686e+002,0.000000e+000
4.531971e+002,0.000000e+000
4.551256e+002,0.000000e+000
4.570541e+002,0.000000e+000
4.589826e+002,0.000000e+000
4.609111e+002,0.000000e+000
4.628396e+002,0.000000e+000
4.647681e+002,0.000000e+000
4.666966e+002,0.000000e+000
4.686251e+002,0.000000e+000
4.705536e+002,0.000000e+000
4.724821e+002,0.000000e+000
4.744106e+002,0.000000e+000
4.763391e+002,0.000000e+000
4.782676e+002,0.000000e+000
4.801961e+002,0.000000e+000
4.821246e+002,0.000000e+000
4.840531e+002,0.000000e+000
4.859816e+002,0.000000e+000
4.879101e+002,0.000000e+000
4.898386e+002,0.000000e+000
4.917671e+002,0.000000e+000
4.936956e+002,0.000000e+000
4.956241e+002,0.000000e+000
4.975526e+002,0.000000e+000
4.994811e+002,0.000000e+000
5.014096e+002,0.000000e+000
5.033381e+002,0.000000e+000
5.052666e+002,0.000000e+000
5.071951e+002,0.000000e+000
5.091236e+002,0.000000e+000
5.110521e+002,0.000000e+000
5.129806e+002,0.000000e+000
5.149091e+002,0.000000e+000
5.168376e+002,0.000000e+000
5.187661e+002,0.000000e+000
5.206946e+002,0.000000e+000
5.226230e+002,0.000000e+000
5.245516e+002,1.185630e-004
5.264800e+002,2.154335e-005
5.284086e+002,-3.389828e-005
5.303370e+002,-8.578040e-005
5.322656e+002,-1.062844e-004
5.341940e+002,-4.665367e-005
5.361226e+002,-1.602005e-004
5.380510e+002,-2.320819e-004
5.399796e+002,-3.122538e-004
5.419081e+002,-4.418865e-004
5.438365e+002,-5.089324e-004
5.457650e+002,-4.401617e-004
5.476935e+002,-4.155450e-004
5.496221e+002,-4.087426e-004
5.515505e+002,-4.643220e-004
5.534790e+002,-3.774390e-004
5.554075e+002,-3.425870e-004
5.573361e+002,-2.929699e-004
5.592645e+002,-2.983604e-004
5.611931e+002,-3.528558e-004
5.631215e+002,-3.920086e-004
5.650500e+002,-4.167221e-004
5.669785e+002,-5.174726e-004
5.689070e+002,-5.264971e-004
5.708355e+002,-5.040839e-004
5.727640e+002,-4.357547e-004
5.746925e+002,-3.979970e-004
5.766210e+002,-3.501475e-004
5.785495e+002,-3.731512e-004
5.804780e+002,-4.238356e-004
5.824065e+002,-4.763100e-004
5.843350e+002,-3.751200e-004
5.862635e+002,-3.406499e-004
5.881920e+002,-2.793316e-004
5.901205e+002,-2.484489e-004
5.920490e+002,-3.339127e-004
5.939775e+002,-4.801266e-004
5.959060e+002,-4.488584e-004
5.978345e+002,-4.608594e-004
5.997630e+002,-4.525762e-004
6.016915e+002,-4.264563e-004
6.036200e+002,-4.651975e-004
6.055485e+002,-4.017707e-004
6.074770e+002,-2.093781e-004
6.094055e+002,-2.263952e-004
6.113340e+002,-2.941266e-004
6.132625e+002,-4.433542e-004
6.151910e+002,-5.171895e-004
6.171195e+002,-4.793182e-004
6.190480e+002,-3.767777e-004
6.209765e+002,-2.648830e-004
6.229050e+002,-1.488253e-004
6.248335e+002,-1.313835e-004
6.267620e+002,-7.121824e-005
6.286905e+002,-1.344457e-004
6.306190e+002,-1.959633e-004
6.325475e+002,-2.175458e-004
6.344760e+002,-1.392663e-004
6.364045e+002,-3.731437e-005
6.383330e+002,5.325302e-005
6.402615e+002,2.351776e-005
6.421899e+002,5.116686e-006
6.441185e+002,-4.561618e-005
6.460470e+002,-6.604195e-005
6.479755e+002,-1.628008e-004
6.499039e+002,-1.080018e-004
6.518325e+002,-3.083795e-005
6.537610e+002,-4.317611e-005
6.556895e+002,-9.672157e-005
6.576179e+002,-5.210377e-005
6.595464e+002,-4.922226e-005
6.614750e+002,-4.631653e-005
6.634034e+002,-5.467236e-005
6.653319e+002,2.985820e-006
6.672604e+002,8.366816e-005
6.691890e+002,6.400794e-005
6.711174e+002,3.212318e-005
6.730460e+002,4.080497e-005
6.749745e+002,-5.356967e-006
6.769030e+002,-4.096329e-005
6.788314e+002,-7.347018e-005
6.807599e+002,-9.006448e-005
6.826885e+002,-9.561703e-005
6.846169e+002,-1.024492e-004
6.865454e+002,-7.706694e-005
6.884739e+002,5.474314e-006
6.904025e+002,-2.659485e-005
6.923309e+002,1.442246e-005
6.942594e+002,6.490573e-005
6.961879e+002,1.053903e-004
6.981165e+002,1.697969e-004
7.000449e+002,1.712870e-004
7.019734e+002,1.067147e-004
7.039019e+002,1.586620e-004
7.058304e+002,1.577605e-004
7.077589e+002,1.866203e-004
7.096874e+002,2.360698e-004
7.116159e+002,2.761912e-004
7.135444e+002,2.851449e-004
7.154729e+002,2.980027e-004
7.174014e+002,2.707317e-004
7.193299e+002,3.974233e-004
7.212584e+002,4.623421e-004
7.231869e+002,4.221871e-004
7.251154e+002,3.681909e-004
7.270439e+002,4.038811e-004
7.289724e+002,3.566984e-004
7.309009e+002,3.128108e-004
7.328294e+002,2.437439e-004
7.347579e+002,2.169702e-004
7.366864e+002,2.156105e-004
7.386149e+002,2.736375e-004
7.405434e+002,2.510976e-004
7.424719e+002,2.330933e-004
7.444004e+002,1.749638e-004
7.463289e+002,1.679901e-004
7.482574e+002,1.771543e-004
7.501859e+002,2.032593e-004
7.521144e+002,1.577511e-004
7.540428e+002,1.617391e-004
7.559714e+002,1.931861e-004
7.578999e+002,2.880450e-004
7.598284e+002,3.011674e-004
7.617568e+002,3.128592e-004
7.636854e+002,2.990905e-004
7.656139e+002,3.447123e-004
7.675424e+002,3.875010e-004
7.694709e+002,4.625805e-004
7.713994e+002,4.281569e-004
7.733279e+002,4.110876e-004
7.752563e+002,4.098658e-004
7.771849e+002,4.590545e-004
7.791134e+002,5.400460e-004
7.810419e+002,6.712377e-004
7.829703e+002,7.400941e-004
7.848989e+002,8.718111e-004
7.868274e+002,1.072202e-003
7.887559e+002,1.303686e-003
7.906843e+002,1.465354e-003
7.926129e+002,1.600362e-003
7.945414e+002,1.799244e-003
7.964698e+002,2.104225e-003
7.983983e+002,2.383806e-003
8.003268e+002,2.763269e-003
8.022554e+002,3.310148e-003
8.041838e+002,4.315754e-003
8.061123e+002,5.767900e-003
8.080408e+002,6.974071e-003
8.099694e+002,6.774504e-003
8.118978e+002,5.391419e-003
8.138263e+002,3.831033e-003
8.157548e+002,2.924751e-003
8.176833e+002,2.473440e-003
8.196118e+002,2.321735e-003
8.215403e+002,2.241140e-003
8.234689e+002,2.286665e-003
8.253973e+002,2.380410e-003
8.273258e+002,2.570014e-003
8.292543e+002,2.838871e-003
8.311829e+002,3.283542e-003
8.331113e+002,3.833484e-003
8.350398e+002,4.911309e-003
8.369683e+002,7.722694e-003
8.388969e+002,1.368803e-002
8.408253e+002,1.699133e-002
8.427538e+002,1.211216e-002
8.446823e+002,6.299224e-003
8.466108e+002,3.740685e-003
8.485393e+002,2.774240e-003
8.504678e+002,2.334256e-003
8.523963e+002,2.023865e-003
8.543248e+002,1.832681e-003
8.562533e+002,1.723487e-003
8.581818e+002,1.640303e-003
8.601103e+002,1.531526e-003
8.620388e+002,1.464389e-003
8.639673e+002,1.442699e-003
8.658958e+002,1.409160e-003
8.678243e+002,1.343749e-003
8.697528e+002,1.390718e-003
8.716813e+002,1.398761e-003
8.736098e+002,1.379248e-003
8.755383e+002,1.313495e-003
8.774668e+002,1.289248e-003
8.793953e+002,1.283891e-003
8.813238e+002,1.334125e-003
8.832523e+002,1.444692e-003
8.851808e+002,1.607945e-003
8.871093e+002,1.736991e-003
8.890378e+002,1.912473e-003
8.909663e+002,2.142711e-003
8.928948e+002,2.713526e-003
8.948232e+002,3.742287e-003
8.967518e+002,5.280755e-003
8.986803e+002,6.213084e-003
9.006088e+002,5.555935e-003
9.025372e+002,3.948037e-003
9.044658e+002,2.634330e-003
9.063943e+002,1.937669e-003
9.083228e+002,1.665851e-003
9.102512e+002,1.458412e-003
9.121797e+002,1.356943e-003
9.141083e+002,1.299415e-003
9.160367e+002,1.285467e-003
9.179653e+002,1.310889e-003
9.198937e+002,1.383185e-003
9.218223e+002,1.346655e-003
9.237507e+002,1.407133e-003
9.256793e+002,1.484210e-003
9.276077e+002,1.551194e-003
9.295363e+002,1.526237e-003
9.314647e+002,1.606293e-003
9.333932e+002,1.818346e-003
9.353217e+002,2.148189e-003
9.372502e+002,2.588380e-003
9.391787e+002,3.036253e-003
9.411072e+002,3.011294e-003
9.430358e+002,2.752423e-003
9.449642e+002,2.578441e-003
9.468928e+002,2.510769e-003
9.488212e+002,2.489714e-003
9.507498e+002,2.598085e-003
9.526782e+002,2.757277e-003
9.546068e+002,3.059939e-003
9.565352e+002,3.383655e-003
9.584637e+002,3.816336e-003
9.603922e+002,4.364893e-003
9.623207e+002,5.130924e-003
9.642492e+002,6.184828e-003
9.661777e+002,8.047029e-003
9.681062e+002,1.169879e-002
9.700347e+002,1.752121e-002
9.719632e+002,2.175763e-002
9.738917e+002,2.007076e-002
9.758202e+002,1.483275e-002
9.777487e+002,1.014462e-002
9.796772e+002,6.987140e-003
9.816057e+002,5.301621e-003
9.835342e+002,4.576828e-003
9.854627e+002,4.516222e-003
9.873912e+002,4.892517e-003
9.893197e+002,5.861260e-003
9.912482e+002,7.626891e-003
9.931767e+002,1.086311e-002
9.951052e+002,1.569074e-002
9.970337e+002,1.926188e-002
9.989622e+002,1.742556e-002
1.000891e+003,1.212237e-002
1.002819e+003,7.890690e-003
1.004748e+003,5.700298e-003
1.006676e+003,4.621014e-003
1.008605e+003,4.078731e-003
1.010533e+003,3.765825e-003
1.012462e+003,3.623556e-003
1.014390e+003,3.560778e-003
1.016319e+003,3.592391e-003
1.018247e+003,3.547411e-003
1.020176e+003,3.499590e-003
1.022104e+003,3.433231e-003
1.024033e+003,3.396586e-003
1.025961e+003,3.311072e-003
1.027890e+003,3.322322e-003
1.029818e+003,3.399108e-003
1.031747e+003,3.530726e-003
1.033675e+003,3.627140e-003
1.035604e+003,3.737222e-003
1.037532e+003,3.783260e-003
1.039461e+003,3.965262e-003
1.041389e+003,4.325286e-003
1.043318e+003,4.696969e-003
1.045246e+003,4.654422e-003
1.047175e+003,4.260462e-003
1.049103e+003,3.827602e-003
1.051032e+003,3.596533e-003
1.052960e+003,3.445730e-003
1.054889e+003,3.383599e-003
1.056817e+003,3.332093e-003
1.058746e+003,3.352199e-003
1.060674e+003,3.322951e-003
1.062603e+003,3.362335e-003
1.064531e+003,3.355600e-003
1.066460e+003,3.330488e-003
1.068388e+003,3.340062e-003
1.070317e+003,3.409009e-003
1.072245e+003,3.443331e-003
1.074174e+003,3.511246e-003
1.076102e+003,3.591366e-003
1.078031e+003,3.734685e-003
1.079959e+003,3.834661e-003
1.081888e+003,3.942899e-003
1.083816e+003,4.026633e-003
1.085745e+003,4.121676e-003
1.087673e+003,4.175805e-003
1.089602e+003,4.360754e-003
1.091530e+003,4.547328e-003
1.093459e+003,4.804231e-003
1.095387e+003,5.087558e-003
1.097316e+003,5.543776e-003
1.099244e+003,6.105226e-003
1.101173e+003,6.629925e-003
1.103101e+003,6.662879e-003
1.105030e+003,6.173853e-003
1.106958e+003,5.483810e-003
1.108887e+003,5.064771e-003
1.110815e+003,4.828852e-003
1.112744e+003,4.692584e-003
1.114672e+003,4.579883e-003
1.116601e+003,4.527465e-003
1.118529e+003,4.372701e-003
1.120458e+003,4.299209e-003
1.122386e+003,4.231073e-003
1.124315e+003,4.173506e-003
1.126243e+003,4.107527e-003
1.128172e+003,4.144449e-003
1.130100e+003,4.215047e-003
1.132029e+003,4.428543e-003
1.133957e+003,4.635289e-003
1.135885e+003,4.922334e-003
1.137814e+003,5.290199e-003
1.139743e+003,5.853664e-003
1.141671e+003,6.499883e-003
1.143600e+003,7.220235e-003
1.145528e+003,8.081228e-003
1.147457e+003,9.201042e-003
1.149385e+003,1.037095e-002
1.151314e+003,1.146292e-002
1.153242e+003,1.212867e-002
1.155171e+003,1.261685e-002
1.157099e+003,1.318328e-002
1.159028e+003,1.408950e-002
1.160956e+003,1.546035e-002
1.162885e+003,1.756253e-002
1.164813e+003,2.002289e-002
1.166742e+003,2.150311e-002
1.168670e+003,1.978622e-002
1.170599e+003,1.530527e-002
1.172527e+003,1.077738e-002
1.174456e+003,7.771149e-003
1.176384e+003,6.019499e-003
1.178313e+003,5.077410e-003
1.180241e+003,4.498754e-003
1.182170e+003,4.195653e-003
1.184098e+003,4.025728e-003
1.186027e+003,3.947861e-003
1.187955e+003,3.877155e-003
1.189884e+003,3.919140e-003
1.191812e+003,3.954746e-003
1.193740e+003,4.029561e-003
1.195669e+003,4.076608e-003
1.197598e+003,4.156079e-003
1.199526e+003,4.210055e-003
1.201455e+003,4.351608e-003
1.203383e+003,4.500862e-003
1.205312e+003,4.697539e-003
1.207240e+003,4.866943e-003
1.209168e+003,5.092185e-003
1.211097e+003,5.295053e-003
1.213026e+003,5.561981e-003
1.214954e+003,5.855203e-003
1.216883e+003,6.185133e-003
1.218811e+003,6.347645e-003
1.220740e+003,6.315038e-003
1.222668e+003,6.086051e-003
1.224596e+003,5.913429e-003
1.226525e+003,5.809512e-003
1.228453e+003,5.802602e-003
1.230382e+003,5.760819e-003
1.232311e+003,5.802028e-003
1.234239e+003,5.842756e-003
1.236167e+003,5.890016e-003
1.238096e+003,5.891550e-003
1.240025e+003,5.928431e-003
1.241953e+003,5.903739e-003
1.243882e+003,5.962584e-003
1.245810e+003,5.973883e-003
1.247739e+003,6.056789e-003
1.249667e+003,6.263539e-003
1.251595e+003,6.908298e-003
1.253524e+003,7.887542e-003
1.255453e+003,8.265920e-003
1.257381e+003,7.361442e-003
1.259310e+003,6.235089e-003
1.261238e+003,5.437225e-003
1.263167e+003,4.977040e-003
1.265095e+003,4.587349e-003
1.267023e+003,4.349574e-003
1.268952e+003,4.180282e-003
1.270880e+003,4.124235e-003
1.272809e+003,4.060842e-003
1.274738e+003,4.095461e-003
1.276666e+003,4.091538e-003
1.278594e+003,4.179489e-003
1.280523e+003,4.260406e-003
1.282451e+003,4.393663e-003
1.284380e+003,4.511062e-003
1.286308e+003,4.706036e-003
1.288237e+003,4.950885e-003
1.290166e+003,5.370177e-003
1.292094e+003,5.811740e-003
1.294022e+003,6.315485e-003
1.295951e+003,6.567787e-003
1.297879e+003,6.635319e-003
1.299808e+003,6.763063e-003
1.301736e+003,7.621292e-003
1.303665e+003,8.568060e-003
1.305594e+003,8.013908e-003
1.307522e+003,6.210934e-003
1.309450e+003,5.071461e-003
1.311379e+003,4.664004e-003
1.313307e+003,4.675046e-003
1.315236e+003,4.696384e-003
1.317164e+003,4.917558e-003
1.319093e+003,5.152959e-003
1.321021e+003,5.521167e-003
1.322950e+003,5.923003e-003
1.324878e+003,6.614722e-003
1.326807e+003,7.094085e-003
1.328735e+003,7.394996e-003
1.330664e+003,7.185731e-003
1.332592e+003,6.844755e-003
1.334521e+003,6.501336e-003
1.336449e+003,6.459747e-003
1.338378e+003,6.490935e-003
1.340306e+003,6.930802e-003
1.342235e+003,7.278576e-003
1.344163e+003,7.925879e-003
1.346092e+003,8.729532e-003
1.348021e+003,9.989072e-003
1.349949e+003,1.149284e-002
1.351877e+003,1.387087e-002
1.353806e+003,1.722825e-002
1.355734e+003,2.196143e-002
1.357663e+003,2.528862e-002
1.359591e+003,2.544113e-002
1.361520e+003,2.262178e-002
1.363448e+003,2.050725e-002
1.365377e+003,2.065397e-002
1.367305e+003,2.459302e-002
1.369234e+003,3.485799e-002
1.371162e+003,5.324970e-002
1.373091e+003,7.948215e-002
1.375019e+003,1.025694e-001
1.376948e+003,9.060217e-002
1.378876e+003,6.082855e-002
1.380805e+003,3.668606e-002
1.382733e+003,2.173915e-002
1.384662e+003,1.326108e-002
1.386590e+003,8.656364e-003
1.388519e+003,6.381378e-003
1.390447e+003,5.372465e-003
1.392376e+003,5.014826e-003
1.394304e+003,4.691254e-003
1.396233e+003,4.615214e-003
1.398161e+003,4.457813e-003
1.400090e+003,4.571948e-003
1.402018e+003,4.550096e-003
1.403947e+003,4.643045e-003
1.405875e+003,4.694857e-003
1.407804e+003,4.866529e-003
1.409732e+003,4.977234e-003
1.411661e+003,5.202681e-003
1.413589e+003,5.418699e-003
1.415518e+003,5.719628e-003
1.417446e+003,5.928703e-003
1.419375e+003,6.329488e-003
1.421303e+003,6.666847e-003
1.423232e+003,7.136416e-003
1.425160e+003,7.931862e-003
1.427089e+003,8.877724e-003
1.429017e+003,1.064888e-002
1.430946e+003,1.428530e-002
1.432874e+003,1.929002e-002
1.434803e+003,2.328946e-002
1.436731e+003,2.401650e-002
1.438660e+003,2.378741e-002
1.440588e+003,2.577559e-002
1.442517e+003,3.047933e-002
1.444445e+003,3.802214e-002
1.446374e+003,4.714445e-002
1.448302e+003,5.698659e-002
1.450231e+003,6.138073e-002
1.452159e+003,6.262888e-002
1.454088e+003,6.250197e-002
1.456016e+003,6.231293e-002
1.457945e+003,5.945892e-002
1.459873e+003,5.703179e-002
1.461802e+003,5.374192e-002
1.463730e+003,4.864360e-002
1.465659e+003,3.858877e-002
1.467587e+003,3.051841e-002
1.469516e+003,2.394246e-002
1.471444e+003,1.826667e-002
1.473373e+003,1.149780e-002
1.475301e+003,8.502904e-003
1.477230e+003,6.386131e-003
1.479158e+003,5.200710e-003
1.481087e+003,4.269563e-003
1.483015e+003,3.572684e-003
1.484944e+003,3.058616e-003
1.486872e+003,2.696685e-003
1.488801e+003,2.400041e-003
1.490729e+003,2.260592e-003
1.492658e+003,2.059054e-003
1.494586e+003,1.996208e-003
1.496515e+003,1.910586e-003
1.498443e+003,1.829986e-003
1.500372e+003,1.719289e-003
1.502300e+003,1.682855e-003
1.504229e+003,1.666009e-003
1.506157e+003,1.855925e-003
1.508086e+003,1.842357e-003
1.510014e+003,1.722112e-003
1.511943e+003,1.731258e-003
1.513871e+003,1.830369e-003
1.515800e+003,1.953300e-003
1.517728e+003,1.967575e-003
1.519657e+003,1.824599e-003
1.521585e+003,1.798224e-003
1.523514e+003,1.908176e-003
1.525442e+003,1.947105e-003
1.527371e+003,1.971710e-003
1.529299e+003,1.992345e-003
1.531228e+003,2.023913e-003
1.533156e+003,2.192535e-003
1.535085e+003,2.257355e-003
1.537013e+003,2.253562e-003
1.538942e+003,2.335299e-003
1.540870e+003,2.553858e-003
1.542799e+003,2.428900e-003
1.544727e+003,2.331659e-003
1.546656e+003,2.249788e-003
1.548584e+003,2.272289e-003
1.550513e+003,2.199281e-003
1.552441e+003,2.153452e-003
1.554370e+003,2.131164e-003
1.556298e+003,2.018549e-003
1.558227e+003,1.877107e-003
1.560155e+003,1.743730e-003
1.562084e+003,1.682136e-003
1.564012e+003,1.658969e-003
1.565941e+003,1.608379e-003
1.567869e+003,1.590732e-003
1.569798e+003,1.568846e-003
1.571726e+003,1.511890e-003
1.573655e+003,1.449041e-003
1.575583e+003,1.397386e-003
1.577512e+003,1.458962e-003
1.579440e+003,1.439072e-003
1.581369e+003,1.387712e-003
1.583297e+003,1.368586e-003
1.585226e+003,1.388650e-003
1.587154e+003,1.372233e-003
1.589083e+003,1.330182e-003
1.591011e+003,1.360051e-003
1.592940e+003,1.403216e-003
1.594868e+003,1.391783e-003
1.596797e+003,1.388766e-003
1.598725e+003,1.443259e-003
1.600654e+003,1.511279e-003
1.602582e+003,1.585566e-003
1.604511e+003,1.641273e-003
1.606439e+003,1.689248e-003
1.608368e+003,1.762837e-003
1.610296e+003,1.827963e-003
1.612225e+003,1.896758e-003
1.614153e+003,1.955193e-003
1.616082e+003,2.068959e-003
1.618010e+003,2.192799e-003
1.619939e+003,2.214726e-003
1.621867e+003,2.278268e-003
1.623796e+003,2.456136e-003
1.625724e+003,2.586104e-003
1.627653e+003,2.738476e-003
1.629581e+003,2.883404e-003
1.631510e+003,2.968919e-003
1.633438e+003,3.017493e-003
1.635367e+003,3.212932e-003
1.637295e+003,3.346838e-003
1.639224e+003,3.324691e-003
1.641152e+003,3.376730e-003
1.643081e+003,3.469318e-003
1.645009e+003,3.590710e-003
1.646938e+003,3.799640e-003
1.648866e+003,3.671061e-003
1.650795e+003,3.559630e-003
1.652723e+003,3.540095e-003
1.654652e+003,3.499009e-003
1.656580e+003,3.493175e-003
1.658509e+003,3.474470e-003
1.660437e+003,3.443215e-003
1.662366e+003,3.352545e-003
1.664294e+003,3.243420e-003
1.666223e+003,3.116552e-003
1.668151e+003,3.073830e-003
1.670080e+003,2.990011e-003
1.672008e+003,2.755262e-003
1.673937e+003,2.615962e-003
1.675865e+003,2.477963e-003
1.677794e+003,2.383478e-003
1.679722e+003,2.344742e-003
1.681651e+003,2.245348e-003
1.683579e+003,2.171233e-003
1.685508e+003,2.004985e-003
1.687436e+003,1.928426e-003
1.689365e+003,1.864824e-003
1.691293e+003,1.800835e-003
1.693222e+003,1.719363e-003
1.695150e+003,1.654666e-003
1.697079e+003,1.440838e-003
1.699007e+003,1.340639e-003
1.700936e+003,1.193780e-003
1.702864e+003,1.206417e-003
1.704793e+003,1.225628e-003
1.706721e+003,1.194123e-003
1.708650e+003,1.088545e-003
1.710578e+003,1.036037e-003
1.712507e+003,1.075950e-003
1.714435e+003,1.116041e-003
1.716364e+003,1.085050e-003
1.718292e+003,1.034047e-003
1.720221e+003,9.313114e-004
1.722149e+003,9.777248e-004
1.724078e+003,1.055911e-003
1.726006e+003,1.041904e-003
1.727935e+003,1.070902e-003
1.729863e+003,1.177896e-003
1.731792e+003,1.174621e-003
1.733720e+003,1.247384e-003
1.735649e+003,1.332190e-003
1.737577e+003,1.462139e-003
1.739506e+003,1.798239e-003
1.741434e+003,2.173662e-003
1.743363e+003,2.430271e-003
1.745291e+003,2.676014e-003
1.747220e+003,2.833158e-003
1.749148e+003,2.832968e-003
1.751077e+003,2.522409e-003
1.753005e+003,2.039634e-003
1.754934e+003,1.637384e-003
1.756862e+003,1.221724e-003
1.758791e+003,8.841343e-004
1.760719e+003,6.234758e-004
1.762648e+003,3.770776e-004
1.764576e+003,2.596192e-004
1.766505e+003,1.919121e-004
1.768433e+003,1.660995e-004
1.770362e+003,1.270436e-004
1.772290e+003,-6.157905e-006
1.774219e+003,-1.273900e-004
1.776147e+003,-1.233183e-004
1.778076e+003,-7.823482e-005
1.780004e+003,-2.062321e-005
1.781933e+003,-1.192503e-004
1.783861e+003,-1.427121e-004
1.785790e+003,-1.576133e-004
1.787718e+003,-1.621507e-004
1.789646e+003,-1.429841e-004
1.791575e+003,-7.884204e-005
1.793504e+003,-1.158193e-004
1.795432e+003,-1.965910e-004
1.797361e+003,-2.440661e-004
1.799289e+003,-2.507232e-004
1.801218e+003,-2.985038e-004
1.803146e+003,-3.046282e-004
1.805074e+003,-3.381558e-004
1.807003e+003,-3.983341e-004
1.808932e+003,-4.326925e-004
1.810860e+003,-5.501360e-004
1.812789e+003,-7.190667e-004
1.814717e+003,-8.465163e-004
1.816646e+003,-9.952188e-004
1.818574e+003,-7.529370e-004
1.820502e+003,-5.566329e-004
1.822431e+003,-4.292130e-004
1.824360e+003,-2.890974e-004
1.826288e+003,-2.959855e-004
1.828217e+003,-3.893487e-004
1.830145e+003,-4.583821e-004
1.832073e+003,-5.978532e-004
1.834002e+003,-5.927905e-004
1.835931e+003,-5.709790e-004
1.837859e+003,-5.393513e-004
1.839788e+003,-5.683675e-004
1.841716e+003,-4.146360e-004
1.843645e+003,-3.803000e-004
1.845573e+003,-4.612207e-004
1.847501e+003,-6.325692e-004
1.849430e+003,-7.396005e-004
1.851359e+003,-7.647835e-004
1.853287e+003,-6.633140e-004
1.855216e+003,-6.019250e-004
1.857144e+003,-5.799606e-004
1.859073e+003,-6.836280e-004
1.861001e+003,-7.108450e-004
1.862929e+003,-6.987453e-004
1.864858e+003,-6.378628e-004
1.866787e+003,-5.908795e-004
1.868715e+003,-4.689097e-004
1.870644e+003,-4.884750e-004
1.872572e+003,-4.473031e-004
1.874500e+003,-7.420182e-004
1.876429e+003,-8.890294e-004
1.878357e+003,-7.917397e-004
1.880286e+003,-6.034598e-004
1.882215e+003,-5.963631e-004
1.884143e+003,-6.602593e-004
1.886072e+003,-7.100590e-004
1.888000e+003,-7.844456e-004
1.889928e+003,-7.427223e-004
1.891857e+003,-5.762465e-004
1.893785e+003,-7.206574e-004
1.895714e+003,-7.204004e-004
1.897643e+003,-6.164238e-004
1.899571e+003,-5.167983e-004
1.901500e+003,-5.103052e-004
1.903428e+003,-5.038157e-004
1.905356e+003,-4.973263e-004
1.907285e+003,-4.908442e-004
1.909213e+003,-4.843697e-004
1.911142e+003,-4.778951e-004
1.913071e+003,-4.714243e-004
1.914999e+003,-4.649572e-004
1.916927e+003,-4.584976e-004
1.918856e+003,-4.520416e-004
1.920784e+003,-4.455857e-004
1.922713e+003,-4.391447e-004
1.924641e+003,-4.326999e-004
1.926570e+003,-4.262514e-004
1.928499e+003,-4.198179e-004
1.930427e+003,-4.133917e-004
1.932355e+003,-4.069619e-004
1.934284e+003,-4.005358e-004
1.936212e+003,-3.941171e-004
1.938141e+003,-3.877059e-004
1.940070e+003,-3.812909e-004
1.941998e+003,-3.748834e-004
1.943927e+003,-3.684834e-004
1.945855e+003,-3.620833e-004
1.947783e+003,-3.556907e-004
1.949712e+003,-3.493018e-004
1.951640e+003,-3.429130e-004
1.953569e+003,-3.365315e-004
1.955498e+003,-3.301539e-004
1.957426e+003,-3.237836e-004
1.959354e+003,-3.174134e-004
1.961283e+003,-3.110468e-004
1.963211e+003,-3.046878e-004
1.965140e+003,-2.983324e-004
1.967068e+003,-2.919808e-004
1.968997e+003,-2.856292e-004
1.970926e+003,-2.792850e-004
1.972854e+003,-2.729520e-004
1.974782e+003,-2.666153e-004
1.976711e+003,-2.602823e-004
1.978639e+003,-2.539493e-004
1.980568e+003,-2.476349e-004
1.982496e+003,-2.413169e-004
1.984425e+003,-2.350025e-004
1.986354e+003,-2.286881e-004
1.988282e+003,-2.223849e-004
1.990210e+003,-2.160855e-004
1.992139e+003,-2.097860e-004
1.994067e+003,-2.034903e-004
1.995996e+003,-1.972020e-004
1.997924e+003,-1.909174e-004
1.999853e+003,-1.846366e-004
2.001781e+003,-1.783594e-004
2.003710e+003,-1.720861e-004
2.005638e+003,-1.658201e-004
2.007567e+003,-1.595542e-004
2.009495e+003,-1.532920e-004
2.011424e+003,-1.470409e-004
2.013352e+003,-1.407824e-004
2.015281e+003,-1.345389e-004
2.017209e+003,-1.282953e-004
2.019138e+003,-1.220591e-004
2.021066e+003,-1.158230e-004
2.022995e+003,-1.095943e-004
2.024923e+003,-1.033656e-004
2.026852e+003,-9.714440e-005
2.028781e+003,-9.092316e-005
2.030709e+003,-8.471683e-005
2.032637e+003,-7.850304e-005
2.034566e+003,-7.230043e-005
2.036494e+003,-6.609410e-005
2.038423e+003,-5.990267e-005
2.040351e+003,-5.370751e-005
2.042280e+003,-4.751608e-005
2.044208e+003,-4.133582e-005
2.046137e+003,-3.515556e-005
2.048065e+003,-2.898276e-005
2.049994e+003,-2.280623e-005
2.051922e+003,-1.664087e-005
2.053851e+003,-1.047179e-005
2.055779e+003,-4.317611e-006
2.057708e+003,1.840293e-006
2.059636e+003,7.990748e-006
2.061565e+003,1.413748e-005
2.063493e+003,2.027303e-005
2.065422e+003,2.641231e-005
2.067350e+003,3.255159e-005
2.069279e+003,3.867969e-005
2.071207e+003,4.480779e-005
2.073136e+003,5.092472e-005
2.075064e+003,5.704165e-005
2.076993e+003,6.315857e-005
2.078921e+003,6.926060e-005
2.080850e+003,7.537007e-005
2.082778e+003,8.146465e-005
2.084707e+003,8.756667e-005
2.086635e+003,9.366497e-005
2.088564e+003,9.974465e-005
2.090492e+003,1.058318e-004
2.092421e+003,1.119077e-004
2.094349e+003,1.179837e-004
2.096278e+003,1.240559e-004
2.098206e+003,1.301244e-004
2.100135e+003,1.361892e-004
2.102063e+003,1.422465e-004
2.103992e+003,1.483001e-004
2.105920e+003,1.543500e-004
2.107849e+003,1.603961e-004
2.109777e+003,1.664348e-004
2.111706e+003,1.724735e-004
2.113634e+003,1.785122e-004
2.115563e+003,1.845434e-004
2.117491e+003,1.905598e-004
2.119420e+003,1.965836e-004
2.121348e+003,2.025999e-004
2.123277e+003,2.086088e-004
2.125205e+003,2.146177e-004
2.127134e+003,2.206191e-004
2.129062e+003,2.266243e-004
2.130991e+003,2.326220e-004
2.132919e+003,2.386123e-004
2.134848e+003,2.445988e-004
2.136776e+003,2.505779e-004
2.138705e+003,2.565570e-004
2.140633e+003,2.625324e-004
2.142562e+003,2.685077e-004
2.144490e+003,2.744719e-004
2.146419e+003,2.804324e-004
2.148347e+003,2.863929e-004
2.150276e+003,2.923459e-004
2.152204e+003,2.982952e-004
2.154133e+003,3.042370e-004
2.156061e+003,3.101863e-004
2.157990e+003,3.161244e-004
2.159918e+003,3.220513e-004
2.161847e+003,3.279783e-004
2.163775e+003,3.339052e-004
2.165704e+003,3.398210e-004
2.167632e+003,3.457405e-004
2.169561e+003,3.516451e-004
2.171489e+003,3.575534e-004
2.173418e+003,3.634654e-004
2.175346e+003,3.693663e-004
2.177275e+003,3.752597e-004
2.179203e+003,3.811456e-004
2.181132e+003,3.870316e-004
2.183060e+003,3.929138e-004
2.184989e+003,3.987886e-004
2.186917e+003,4.046708e-004
2.188846e+003,4.105382e-004
2.190774e+003,4.164018e-004
2.192703e+003,4.222617e-004
2.194631e+003,4.281215e-004
2.196560e+003,4.339740e-004
2.198488e+003,4.398227e-004
2.200417e+003,4.456714e-004
2.202345e+003,4.515164e-004
2.204274e+003,4.573502e-004
2.206202e+003,4.631802e-004
2.208131e+003,4.690066e-004
2.210059e+003,4.748255e-004
2.211988e+003,4.806519e-004
2.213916e+003,4.864596e-004
2.215845e+003,4.922673e-004
2.217773e+003,4.980825e-004
2.219702e+003,5.038865e-004
2.221630e+003,5.096868e-004
2.223559e+003,5.154759e-004
2.225487e+003,5.212650e-004
2.227416e+003,5.270541e-004
2.229344e+003,5.328320e-004
2.231273e+003,5.386174e-004
2.233201e+003,5.443878e-004
2.235130e+003,5.501546e-004
2.237058e+003,5.559176e-004
2.238987e+003,5.616806e-004
2.240915e+003,5.674362e-004
2.242844e+003,5.731843e-004
2.244772e+003,5.789362e-004
2.246701e+003,5.846806e-004
2.248629e+003,5.904250e-004
2.250558e+003,5.961619e-004
2.252486e+003,6.018877e-004
2.254415e+003,6.076135e-004
2.256343e+003,6.133430e-004
2.258272e+003,6.190576e-004
2.260200e+003,6.247722e-004
2.262129e+003,6.304868e-004
2.264057e+003,6.361902e-004
2.265986e+003,6.418936e-004
2.267914e+003,6.475896e-004
2.269843e+003,6.532818e-004
2.271771e+003,6.589666e-004
2.273700e+003,6.646551e-004
2.275628e+003,6.703474e-004
2.277557e+003,6.760210e-004
2.279485e+003,6.816909e-004
2.281414e+003,6.873570e-004
2.283342e+003,6.930232e-004
2.285271e+003,6.986782e-004
2.287199e+003,7.043332e-004
2.289128e+003,7.099882e-004
2.291056e+003,7.156394e-004
2.292985e+003,7.212795e-004
2.294913e+003,7.269196e-004
2.296842e+003,7.325523e-004
2.298770e+003,7.381849e-004
2.300699e+003,7.438064e-004
2.302627e+003,7.494390e-004
2.304556e+003,7.550530e-004
2.306484e+003,7.606708e-004
2.308413e+003,7.662773e-004
2.310341e+003,7.718801e-004
2.312270e+003,7.774830e-004
2.314198e+003,7.830821e-004
2.316127e+003,7.886663e-004
2.318055e+003,7.942505e-004
2.319984e+003,7.998459e-004
2.321912e+003,8.054301e-004
2.323841e+003,8.110069e-004
2.325769e+003,8.165725e-004
2.327698e+003,8.221455e-004
2.329626e+003,8.277111e-004
2.331555e+003,8.332618e-004
2.333483e+003,8.388199e-004
2.335412e+003,8.443706e-004
2.337340e+003,8.499250e-004
2.339269e+003,8.554608e-004
2.341197e+003,8.610040e-004
2.343126e+003,8.665323e-004
2.345054e+003,8.720607e-004
2.346983e+003,8.775890e-004
2.348911e+003,8.831173e-004
2.350840e+003,8.886307e-004
2.352768e+003,8.941442e-004
2.354697e+003,8.996651e-004
2.356625e+003,9.051636e-004
2.358554e+003,9.106547e-004
2.360482e+003,9.161532e-004
2.362411e+003,9.216443e-004
2.364339e+003,9.271428e-004
2.366268e+003,9.326264e-004
2.368196e+003,9.380952e-004
2.370125e+003,9.435713e-004
2.372053e+003,9.490401e-004
2.373982e+003,9.545162e-004
2.375910e+003,9.599775e-004
2.377839e+003,9.654462e-004
2.379767e+003,9.708926e-004
2.381696e+003,9.763464e-004
2.383624e+003,9.817854e-004
2.385553e+003,9.872317e-004
2.387481e+003,9.926707e-004
2.389410e+003,9.981021e-004
2.391338e+003,1.003541e-003
2.393267e+003,1.008965e-003
2.395195e+003,1.014382e-003
2.397124e+003,1.019791e-003
2.399052e+003,1.025207e-003
2.400981e+003,1.002885e-003
2.402909e+003,9.082630e-004
2.404838e+003,9.028390e-004
2.406766e+003,1.069099e-003
2.408695e+003,1.383588e-003
2.410623e+003,1.389146e-003
2.412552e+003,1.387700e-003
2.414480e+003,1.401924e-003
2.416409e+003,1.402535e-003
2.418337e+003,1.380518e-003
2.420266e+003,1.442648e-003
2.422194e+003,1.571454e-003
2.424123e+003,1.574963e-003
2.426051e+003,1.551852e-003
2.427979e+003,1.672894e-003
2.429908e+003,1.766667e-003
2.431837e+003,1.758635e-003
2.433765e+003,1.716241e-003
2.435694e+003,1.703143e-003
2.437622e+003,1.742594e-003
2.439551e+003,1.883417e-003
2.441479e+003,1.923129e-003
2.443407e+003,1.886055e-003
2.445336e+003,1.782559e-003
2.447265e+003,1.858264e-003
2.449193e+003,1.836061e-003
2.451122e+003,1.900576e-003
2.453050e+003,2.117082e-003
2.454979e+003,2.158687e-003
2.456907e+003,2.010331e-003
2.458836e+003,1.939505e-003
2.460764e+003,1.783371e-003
2.462693e+003,1.657426e-003
2.464621e+003,1.561545e-003
2.466550e+003,1.560196e-003
2.468478e+003,1.522422e-003
2.470406e+003,1.579590e-003
2.472335e+003,1.641616e-003
2.474264e+003,1.738831e-003
2.476192e+003,1.668714e-003
2.478121e+003,1.734786e-003
2.480049e+003,1.699716e-003
2.481978e+003,1.694687e-003
2.483906e+003,1.640841e-003
2.485835e+003,1.640581e-003
2.487763e+003,1.813829e-003
2.489692e+003,1.846187e-003
2.491620e+003,1.780897e-003
2.493549e+003,1.858830e-003
2.495477e+003,1.950696e-003
2.497406e+003,1.972467e-003
2.499334e+003,1.859836e-003
2.501263e+003,1.746520e-003
2.503191e+003,1.710109e-003
2.505120e+003,1.906551e-003
2.507048e+003,1.991317e-003
2.508977e+003,1.961879e-003
2.510905e+003,1.943916e-003
2.512833e+003,1.951188e-003
2.514762e+003,2.022088e-003
2.516691e+003,2.303086e-003
2.518619e+003,2.269275e-003
2.520548e+003,2.055071e-003
2.522476e+003,2.138160e-003
2.524405e+003,2.326876e-003
2.526333e+003,2.336919e-003
2.528261e+003,2.399251e-003
2.530190e+003,2.546258e-003
2.532119e+003,2.625465e-003
2.534047e+003,2.719015e-003
2.535976e+003,2.792016e-003
2.537904e+003,2.650648e-003
2.539833e+003,2.796516e-003
2.541761e+003,2.976179e-003
2.543689e+003,2.945893e-003
2.545618e+003,3.033511e-003
2.547547e+003,3.012002e-003
2.549475e+003,2.979480e-003
2.551404e+003,3.092878e-003
2.553332e+003,3.221780e-003
2.555260e+003,3.217727e-003
2.557189e+003,3.285296e-003
2.559117e+003,3.392652e-003
2.561046e+003,3.370859e-003
2.562975e+003,3.465027e-003
2.564903e+003,3.586784e-003
2.566832e+003,3.676072e-003
2.568760e+003,3.748968e-003
2.570688e+003,3.960371e-003
2.572617e+003,4.231036e-003
2.574546e+003,4.488610e-003
2.576474e+003,4.642978e-003
2.578403e+003,4.742958e-003
2.580331e+003,4.827201e-003
2.582260e+003,4.968651e-003
2.584188e+003,4.948579e-003
2.586116e+003,4.831210e-003
2.588045e+003,4.597686e-003
2.589974e+003,4.422560e-003
2.591902e+003,4.346162e-003
2.593831e+003,4.380904e-003
2.595759e+003,4.399054e-003
2.597688e+003,4.537567e-003
2.599616e+003,4.720248e-003
2.601544e+003,4.789919e-003
2.603473e+003,4.811347e-003
2.605402e+003,4.965328e-003
2.607330e+003,5.174428e-003
2.609259e+003,5.366787e-003
2.611187e+003,5.489483e-003
2.613115e+003,5.610958e-003
2.615044e+003,5.663283e-003
2.616972e+003,5.725034e-003
2.618901e+003,5.749501e-003
2.620830e+003,5.735286e-003
2.622758e+003,5.739257e-003
2.624687e+003,5.758353e-003
2.626615e+003,5.805448e-003
2.628543e+003,5.813241e-003
2.630472e+003,5.773358e-003
2.632400e+003,5.783446e-003
2.634329e+003,5.902000e-003
2.636258e+003,5.984604e-003
2.638186e+003,6.066382e-003
2.640115e+003,6.218195e-003
2.642043e+003,6.342456e-003
2.643971e+003,6.478876e-003
2.645900e+003,6.609030e-003
2.647828e+003,6.728679e-003
2.649757e+003,6.881647e-003
2.651686e+003,7.022239e-003
2.653614e+003,7.111609e-003
2.655542e+003,7.168524e-003
2.657471e+003,7.202901e-003
2.659399e+003,7.240899e-003
2.661328e+003,7.115297e-003
2.663256e+003,6.807953e-003
2.665185e+003,6.511852e-003
2.667114e+003,6.428860e-003
2.669042e+003,6.434858e-003
2.670970e+003,6.480582e-003
2.672899e+003,6.541520e-003
2.674827e+003,6.561495e-003
2.676756e+003,6.583005e-003
2.678685e+003,6.634541e-003
2.680613e+003,6.644629e-003
2.682542e+003,6.635599e-003
2.684470e+003,6.645486e-003
2.686398e+003,6.662980e-003
2.688327e+003,6.678857e-003
2.690255e+003,6.690472e-003
2.692184e+003,6.702848e-003
2.694113e+003,6.726570e-003
2.696041e+003,6.816238e-003
2.697969e+003,6.939754e-003
2.699898e+003,7.040292e-003
2.701826e+003,7.217169e-003
2.703755e+003,7.382832e-003
2.705683e+003,7.551506e-003
2.707612e+003,7.818148e-003
2.709541e+003,8.102603e-003
2.711469e+003,8.377999e-003
2.713397e+003,8.794196e-003
2.715326e+003,9.339124e-003
2.717254e+003,9.907715e-003
2.719183e+003,1.048007e-002
2.721111e+003,1.087194e-002
2.723040e+003,1.087484e-002
2.724969e+003,1.050215e-002
2.726897e+003,9.934478e-003
2.728825e+003,9.488888e-003
2.730754e+003,9.112999e-003
2.732682e+003,8.869722e-003
2.734611e+003,8.708015e-003
2.736539e+003,8.528233e-003
2.738468e+003,8.363351e-003
2.740396e+003,8.171827e-003
2.742325e+003,8.029819e-003
2.744253e+003,7.882558e-003
2.746182e+003,7.822633e-003
2.748110e+003,7.843450e-003
2.750039e+003,7.834755e-003
2.751967e+003,7.912673e-003
2.753896e+003,8.074641e-003
2.755824e+003,8.268908e-003
2.757753e+003,8.396856e-003
2.759681e+003,8.476622e-003
2.761610e+003,8.613706e-003
2.763538e+003,8.814789e-003
2.765467e+003,8.996256e-003
2.767395e+003,9.135358e-003
2.769324e+003,9.282723e-003
2.771252e+003,9.477012e-003
2.773181e+003,9.731337e-003
2.775109e+003,1.008668e-002
2.777038e+003,1.040522e-002
2.778966e+003,1.074795e-002
2.780895e+003,1.115777e-002
2.782823e+003,1.161537e-002
2.784752e+003,1.217636e-002
2.786680e+003,1.282259e-002
2.788609e+003,1.354580e-002
2.790537e+003,1.429645e-002
2.792466e+003,1.491864e-002
2.794394e+003,1.542676e-002
2.796323e+003,1.587012e-002
2.798251e+003,1.633528e-002
2.800180e+003,1.701043e-002
2.802108e+003,1.800539e-002
2.804037e+003,1.918165e-002
2.805965e+003,2.036552e-002
2.807894e+003,2.146970e-002
2.809822e+003,2.244873e-002
2.811751e+003,2.342702e-002
2.813679e+003,2.450454e-002
2.815608e+003,2.583262e-002
2.817536e+003,2.748827e-002
2.819465e+003,2.951560e-002
2.821393e+003,3.204821e-002
2.823322e+003,3.521762e-002
2.825250e+003,3.953116e-002
2.827179e+003,4.554347e-002
2.829107e+003,5.423985e-002
2.831036e+003,6.696334e-002
2.832964e+003,8.356617e-002
2.834893e+003,1.003524e-001
2.836821e+003,1.109217e-001
2.838750e+003,1.112575e-001
2.840678e+003,1.022370e-001
2.842607e+003,8.815403e-002
2.844535e+003,7.387764e-002
2.846464e+003,6.247887e-002
2.848392e+003,5.464407e-002
2.850321e+003,4.976492e-002
2.852249e+003,4.736185e-002
2.854178e+003,4.748069e-002
2.856106e+003,5.058170e-002
2.858035e+003,5.765022e-002
2.859963e+003,6.985604e-002
2.861892e+003,8.674137e-002
2.863820e+003,1.029186e-001
2.865749e+003,1.109275e-001
2.867677e+003,1.097783e-001
2.869606e+003,1.048174e-001
2.871534e+003,1.007266e-001
2.873463e+003,9.964461e-002
2.875391e+003,1.012026e-001
2.877320e+003,1.023954e-001
2.879248e+003,1.009834e-001
2.881177e+003,9.796014e-002
2.883105e+003,9.513894e-002
2.885034e+003,9.319206e-002
2.886962e+003,9.220597e-002
2.888891e+003,9.215157e-002
2.890819e+003,9.346803e-002
2.892748e+003,9.679525e-002
2.894676e+003,1.024800e-001
2.896605e+003,1.105819e-001
2.898533e+003,1.204813e-001
2.900462e+003,1.314207e-001
2.902390e+003,1.427692e-001
2.904319e+003,1.537182e-001
2.906247e+003,1.631434e-001
2.908176e+003,1.713458e-001
2.910104e+003,1.811730e-001
2.912033e+003,1.958184e-001
2.913961e+003,2.139734e-001
2.915890e+003,2.276365e-001
2.917818e+003,2.279127e-001
2.919747e+003,2.152548e-001
2.921675e+003,1.980204e-001
2.923604e+003,1.813531e-001
2.925532e+003,1.645313e-001
2.927461e+003,1.459813e-001
2.929389e+003,1.265251e-001
2.931318e+003,1.086629e-001
2.933246e+003,9.456342e-002
2.935175e+003,8.541376e-002
2.937103e+003,8.188438e-002
2.939032e+003,8.474335e-002
2.940960e+003,9.532072e-002
2.942889e+003,1.143484e-001
2.944817e+003,1.396453e-001
2.946746e+003,1.649597e-001
2.948674e+003,1.808068e-001
2.950603e+003,1.798718e-001
2.952531e+003,1.653142e-001
2.954460e+003,1.489562e-001
2.956388e+003,1.402874e-001
2.958317e+003,1.390671e-001
2.960245e+003,1.372370e-001
2.962174e+003,1.267344e-001
2.964102e+003,1.085061e-001
2.966031e+003,8.922199e-002
2.967959e+003,7.181330e-002
2.969888e+003,5.632304e-002
2.971816e+003,4.327481e-002
2.973745e+003,3.280825e-002
2.975673e+003,2.467757e-002
2.977602e+003,1.842273e-002
2.979530e+003,1.371374e-002
2.981459e+003,1.016086e-002
2.983387e+003,7.497385e-003
2.985316e+003,5.346641e-003
2.987244e+003,3.756002e-003
2.989173e+003,2.626836e-003
2.991101e+003,1.618259e-003
2.993030e+003,7.659569e-004
2.994958e+003,1.078919e-004
2.996887e+003,-3.037155e-004
2.998815e+003,-5.785301e-004
3.000744e+003,-8.703172e-004
3.002672e+003,-1.115084e-003
3.004601e+003,-1.295872e-003
3.006529e+003,-1.457632e-003
3.008458e+003,-1.668878e-003
3.010386e+003,-1.856342e-003
3.012315e+003,-1.990326e-003
3.014243e+003,-2.115257e-003
3.016172e+003,-2.202384e-003
3.018100e+003,-2.238475e-003
3.020029e+003,-2.306238e-003
3.021957e+003,-2.314940e-003
3.023886e+003,-2.363101e-003
3.025814e+003,-2.338126e-003
3.027743e+003,-2.327934e-003
3.029671e+003,-2.334341e-003
3.031600e+003,-2.314866e-003
3.033528e+003,-2.282463e-003
3.035457e+003,-2.182268e-003
3.037385e+003,-2.169289e-003
3.039314e+003,-2.256081e-003
3.041242e+003,-2.231486e-003
3.043171e+003,-2.158508e-003
3.045099e+003,-2.110802e-003
3.047028e+003,-2.101824e-003
3.048956e+003,-2.087690e-003
3.050885e+003,-1.998238e-003
3.052813e+003,-1.908578e-003
3.054742e+003,-1.859516e-003
3.056670e+003,-1.843803e-003
3.058599e+003,-1.889274e-003
3.060527e+003,-1.892962e-003
3.062456e+003,-1.846656e-003
3.064384e+003,-1.901291e-003
3.066313e+003,-1.827031e-003
3.068241e+003,-1.666903e-003
3.070170e+003,-1.640126e-003
3.072098e+003,-1.685388e-003
3.074027e+003,-1.648001e-003
3.075955e+003,-1.582116e-003
3.077884e+003,-1.553506e-003
3.079812e+003,-1.518793e-003
3.081741e+003,-1.477428e-003
3.083669e+003,-1.507051e-003
3.085598e+003,-1.531407e-003
3.087526e+003,-1.380734e-003
3.089455e+003,-1.282245e-003
3.091383e+003,-1.328371e-003
3.093312e+003,-1.341917e-003
3.095240e+003,-1.300290e-003
3.097169e+003,-1.291402e-003
3.099097e+003,-1.288936e-003
3.101026e+003,-1.299024e-003
3.102954e+003,-1.212843e-003
3.104883e+003,-1.132138e-003
3.106811e+003,-1.003765e-003
3.108740e+003,-1.064472e-003
3.110668e+003,-1.107417e-003
3.112597e+003,-1.034327e-003
3.114525e+003,-9.449422e-004
3.116454e+003,-8.804500e-004
3.118382e+003,-8.620620e-004
3.120311e+003,-8.290634e-004
3.122239e+003,-7.537156e-004
3.124168e+003,-7.194057e-004
3.126096e+003,-6.600693e-004
3.128025e+003,-5.490407e-004
3.129953e+003,-4.620999e-004
3.131882e+003,-4.209206e-004
3.133810e+003,-4.377216e-004
3.135739e+003,-3.955811e-004
3.137667e+003,-3.053695e-004
3.139596e+003,-1.877397e-004
3.141524e+003,-1.387596e-004
3.143453e+003,-4.567951e-005
3.145381e+003,-1.243502e-004
3.147310e+003,-2.046749e-004
3.149238e+003,-9.583682e-005
3.151167e+003,-1.190081e-004
3.153095e+003,-1.486614e-004
3.155024e+003,-7.803738e-005
3.156952e+003,-8.835644e-005
3.158881e+003,-1.371801e-004
3.160809e+003,-1.444444e-004
3.162738e+003,-1.397058e-004
3.164666e+003,-1.441017e-004
3.166594e+003,-1.358911e-004
3.168523e+003,-7.683039e-005
3.170452e+003,-2.069771e-005
3.172380e+003,5.716830e-005
3.174309e+003,1.515597e-004
3.176237e+003,2.456084e-004
3.178166e+003,2.241582e-004
3.180094e+003,1.800656e-004
3.182022e+003,2.489761e-004
3.183951e+003,3.304034e-004
3.185880e+003,3.962293e-004
3.187808e+003,5.331114e-004
3.189737e+003,5.523860e-004
3.191665e+003,4.874840e-004
3.193594e+003,4.683882e-004
3.195522e+003,5.366206e-004
3.197450e+003,5.394965e-004
3.199379e+003,4.484951e-004
3.201308e+003,4.387796e-004
3.203236e+003,5.849823e-004
3.205165e+003,6.944537e-004
3.207093e+003,6.118715e-004
3.209021e+003,4.950613e-004
3.210950e+003,4.520714e-004
3.212878e+003,4.565492e-004
3.214807e+003,4.596859e-004
3.216736e+003,4.844517e-004
3.218664e+003,4.610643e-004
3.220593e+003,3.746822e-004
3.222521e+003,2.878606e-004
3.224449e+003,2.478436e-004
3.226378e+003,2.378598e-004
3.228307e+003,2.017394e-004
3.230235e+003,1.503006e-004
3.232164e+003,8.013844e-005
3.234092e+003,5.453825e-005
3.236021e+003,3.460050e-005
3.237949e+003,1.726598e-004
3.239877e+003,1.721606e-004
3.241806e+003,1.299828e-004
3.243735e+003,1.257807e-004
3.245663e+003,1.485422e-004
3.247592e+003,2.447590e-004
3.249520e+003,3.260821e-004
3.251448e+003,3.700629e-004
3.253377e+003,4.246458e-004
3.255305e+003,5.101264e-004
3.257234e+003,5.571470e-004
3.259163e+003,5.584210e-004
3.261091e+003,5.776063e-004
3.263020e+003,5.995780e-004
3.264948e+003,6.534234e-004
3.266876e+003,6.901845e-004
3.268805e+003,7.282421e-004
3.270733e+003,7.110462e-004
3.272662e+003,7.718801e-004
3.274591e+003,8.431450e-004
3.276519e+003,9.633377e-004
3.278448e+003,9.631887e-004
3.280376e+003,9.336770e-004
3.282304e+003,9.717867e-004
3.284233e+003,9.855181e-004
3.286161e+003,9.391606e-004
3.288090e+003,9.280741e-004
3.290019e+003,9.339005e-004
3.291947e+003,9.923875e-004
3.293875e+003,1.021579e-003
3.295804e+003,9.970292e-004
3.297732e+003,9.998679e-004
3.299661e+003,1.002118e-003
3.301589e+003,9.656325e-004
3.303518e+003,8.752197e-004
3.305447e+003,8.910075e-004
3.307375e+003,9.893179e-004
3.309303e+003,9.797737e-004
3.311232e+003,9.045303e-004
3.313160e+003,9.107962e-004
3.315089e+003,1.012824e-003
3.317018e+003,1.021013e-003
3.318946e+003,9.726062e-004
3.320875e+003,9.262413e-004
3.322803e+003,8.564070e-004
3.324731e+003,8.985847e-004
3.326660e+003,1.006916e-003
3.328588e+003,1.002081e-003
3.330517e+003,9.491220e-004
3.332446e+003,9.421185e-004
3.334374e+003,9.220690e-004
3.336302e+003,9.317175e-004
3.338231e+003,9.452626e-004
3.340159e+003,9.296313e-004
3.342088e+003,9.571910e-004
3.344016e+003,1.000591e-003
3.345945e+003,1.000032e-003
3.347874e+003,1.003005e-003
3.349802e+003,9.453222e-004
3.351730e+003,9.640902e-004
3.353659e+003,9.543896e-004
3.355587e+003,9.241179e-004
3.357516e+003,9.014830e-004
3.359444e+003,8.981153e-004
3.361373e+003,8.731857e-004
3.363302e+003,7.694215e-004
3.365230e+003,7.405877e-004
3.367158e+003,8.616447e-004
3.369087e+003,8.520558e-004
3.371015e+003,7.447079e-004
3.372944e+003,6.422177e-004
3.374872e+003,6.629080e-004
3.376801e+003,6.749108e-004
3.378729e+003,6.299317e-004
3.380658e+003,6.617084e-004
3.382586e+003,6.240308e-004
3.384515e+003,5.534068e-004
3.386443e+003,4.938021e-004
3.388372e+003,5.367771e-004
3.390300e+003,5.970895e-004
3.392229e+003,5.666614e-004
3.394157e+003,5.499423e-004
3.396086e+003,5.340353e-004
3.398014e+003,4.786178e-004
3.399943e+003,5.214512e-004
3.401871e+003,4.700273e-004
3.403800e+003,4.656538e-004
3.405728e+003,4.692003e-004
3.407657e+003,5.382597e-004
3.409585e+003,6.361082e-004
3.411514e+003,6.434545e-004
3.413442e+003,5.793869e-004
3.415371e+003,5.451962e-004
3.417299e+003,4.854575e-004
3.419228e+003,3.981814e-004
3.421156e+003,3.215224e-004
3.423085e+003,3.159195e-004
3.425013e+003,2.431124e-004
3.426942e+003,1.843348e-004
3.428870e+003,1.577362e-004
3.430799e+003,1.814887e-004
3.432727e+003,2.164841e-004
3.434656e+003,2.528653e-004
3.436584e+003,3.243759e-004
3.438513e+003,2.661496e-004
3.440441e+003,2.291724e-004
3.442370e+003,2.204105e-004
3.444298e+003,7.516891e-005
3.446227e+003,5.990267e-006
3.448155e+003,-7.115304e-005
3.450084e+003,-1.242310e-004
3.452012e+003,-1.210943e-004
3.453941e+003,-7.380545e-005
3.455869e+003,-5.555898e-005
3.457798e+003,-1.123548e-005
3.459726e+003,-4.506111e-005
3.461655e+003,-7.151067e-005
3.463583e+003,-1.004189e-004
3.465512e+003,-1.779348e-004
3.467440e+003,-2.717674e-004
3.469369e+003,-2.362356e-004
3.471297e+003,-2.592281e-004
3.473226e+003,-2.950653e-004
3.475154e+003,-2.592653e-004
3.477083e+003,-2.127662e-004
3.479011e+003,-2.217144e-004
3.480940e+003,-2.473369e-004
3.482868e+003,-1.025647e-004
3.484797e+003,-1.741648e-004
3.486725e+003,-2.503991e-004
3.488654e+003,-2.719313e-004
3.490582e+003,-3.468245e-004
3.492511e+003,-2.891496e-004
3.494439e+003,-2.786443e-004
3.496368e+003,-3.041998e-004
3.498296e+003,-4.087240e-004
3.500225e+003,-3.201738e-004
3.502153e+003,-1.558065e-004
3.504082e+003,-3.152192e-004
3.506010e+003,-4.675016e-004
3.507939e+003,-4.215240e-004
3.509867e+003,-4.298687e-004
3.511796e+003,-5.274713e-004
3.513724e+003,-4.887581e-004
3.515653e+003,-4.370138e-004
3.517581e+003,-5.250126e-004
3.519510e+003,-5.229190e-004
3.521438e+003,-4.562438e-004
3.523367e+003,-4.815236e-004
3.525295e+003,-5.657673e-004
3.527224e+003,-6.281435e-004
3.529152e+003,-6.488487e-004
3.531081e+003,-6.201267e-004
3.533009e+003,-7.572323e-004
3.534938e+003,-8.424893e-004
3.536866e+003,-7.711425e-004
3.538795e+003,-7.424355e-004
3.540723e+003,-6.348267e-004
3.542652e+003,-5.926713e-004
3.544580e+003,-5.765557e-004
3.546509e+003,-5.926266e-004
3.548437e+003,-7.495955e-004
3.550366e+003,-7.994995e-004
3.552294e+003,-7.904693e-004
3.554223e+003,-9.000227e-004
3.556151e+003,-1.050964e-003
3.558080e+003,-1.080766e-003
3.560008e+003,-8.631796e-004
3.561937e+003,-7.838681e-004
3.563865e+003,-9.547919e-004
3.565794e+003,-1.032300e-003
3.567722e+003,-1.171634e-003
3.569651e+003,-1.265272e-003
3.571579e+003,-1.175322e-003
3.573508e+003,-1.075961e-003
3.575436e+003,-1.164690e-003
3.577365e+003,-1.334064e-003
3.579293e+003,-1.291566e-003
3.581222e+003,-1.063421e-003
3.583150e+003,-9.005666e-004
3.585079e+003,-8.504540e-004
3.587007e+003,-6.982759e-004
3.588936e+003,-1.007818e-003
3.590864e+003,-1.314096e-003
3.592793e+003,-1.295842e-003
3.594721e+003,-1.088992e-003
3.596650e+003,-1.256123e-003
3.598578e+003,-1.419984e-003
3.600507e+003,-1.245961e-003
3.602435e+003,-9.903610e-004
3.604364e+003,-1.019195e-003
3.606292e+003,-9.393170e-004
3.608221e+003,-6.959215e-004
3.610149e+003,-9.796396e-004
3.612078e+003,-1.101322e-003
3.614006e+003,-1.046896e-003
3.615935e+003,-1.138724e-003
3.617863e+003,-9.532720e-004
3.619792e+003,-8.779168e-004
3.621720e+003,-1.021296e-003
3.623649e+003,-1.136653e-003
3.625577e+003,-1.015745e-003
3.627506e+003,-2.744570e-004
3.629434e+003,-1.132488e-005
3.631363e+003,-8.647591e-004
3.633291e+003,-1.244359e-003
3.635220e+003,-1.151361e-003
3.637148e+003,-9.511337e-004
3.639077e+003,-9.344369e-004
3.641005e+003,-8.850619e-004
3.642934e+003,-9.396002e-004
3.644862e+003,-7.208586e-004
3.646791e+003,4.260987e-005
3.648719e+003,3.018156e-004
3.650648e+003,-5.096868e-004
3.652576e+003,-1.083128e-003
3.654505e+003,-9.887964e-004
3.656433e+003,-1.004115e-003
3.658362e+003,-1.095906e-003
3.660290e+003,-1.006335e-003
3.662219e+003,-8.672997e-004
3.664147e+003,-7.036328e-004
3.666076e+003,-8.218139e-004
3.668004e+003,-4.403740e-004
3.669933e+003,1.336783e-004
3.671861e+003,-4.374161e-004
3.673790e+003,-6.082430e-004
3.675718e+003,-5.713329e-004
3.677647e+003,-8.918941e-004
3.679575e+003,-1.024075e-003
3.681504e+003,-9.876192e-004
3.683432e+003,-7.450134e-004
3.685361e+003,-4.766807e-004
3.687289e+003,-3.090352e-004
3.689218e+003,-3.096536e-004
3.691146e+003,-4.849061e-004
3.693075e+003,-6.951541e-004
3.695003e+003,-6.476045e-004
3.696932e+003,-5.016401e-004
3.698860e+003,-3.683791e-004
3.700789e+003,-1.211315e-004
3.702717e+003,-2.721027e-004
3.704646e+003,-3.535748e-004
3.706574e+003,-2.236366e-004
3.708503e+003,1.560897e-005
3.710431e+003,3.398135e-004
3.712360e+003,3.594160e-005
3.714288e+003,-2.766997e-004
3.716217e+003,-3.373995e-004
3.718145e+003,-2.753884e-004
3.720074e+003,5.217642e-005
3.722002e+003,3.292933e-004
3.723931e+003,1.528114e-004
3.725859e+003,-1.727790e-005
3.727788e+003,-1.526028e-004
3.729716e+003,1.909956e-004
3.731645e+003,7.246807e-004
3.733573e+003,9.937510e-004
3.735502e+003,8.505285e-004
3.737430e+003,6.312132e-005
3.739359e+003,4.231930e-005
3.741287e+003,7.261336e-005
3.743216e+003,5.516708e-004
3.745144e+003,7.870048e-004
3.747073e+003,1.608878e-004
3.749001e+003,9.808689e-005
3.750930e+003,4.376993e-004
3.752858e+003,1.825243e-004
3.754787e+003,-1.079142e-004
3.756715e+003,-8.116663e-005
3.758644e+003,5.675852e-005
3.760572e+003,1.061112e-004
3.762501e+003,3.404915e-006
3.764429e+003,7.146597e-005
3.766358e+003,6.201118e-005
3.768286e+003,1.514032e-004
3.770215e+003,1.670495e-004
3.772143e+003,3.263354e-005
3.774072e+003,-9.171665e-006
3.776000e+003,7.674843e-005
3.777929e+003,2.139881e-004
3.779857e+003,2.268925e-004
3.781786e+003,-1.693517e-005
3.783714e+003,-9.032339e-005
3.785643e+003,-1.583993e-005
3.787571e+003,1.234040e-004
3.789500e+003,2.381057e-004
3.791428e+003,3.263578e-004
3.793357e+003,2.160594e-004
3.795285e+003,5.313531e-004
3.797214e+003,5.618408e-004
3.799142e+003,4.269704e-004
3.801071e+003,7.957742e-004
3.802999e+003,3.554672e-004
3.804927e+003,2.370328e-004
3.806856e+003,4.182607e-004
3.808785e+003,3.308505e-004
3.810713e+003,3.650784e-004
3.812642e+003,3.616065e-004
3.814570e+003,7.301793e-004
3.816499e+003,7.459745e-004
3.818427e+003,3.715977e-004
3.820355e+003,5.743802e-004
3.822284e+003,4.471391e-004
3.824213e+003,1.302734e-004
3.826141e+003,2.904907e-004
3.828070e+003,3.311485e-004
3.829998e+003,2.371147e-004
3.831927e+003,1.556724e-004
3.833855e+003,9.128451e-005
3.835783e+003,4.494935e-004
3.837712e+003,9.111688e-004
3.839641e+003,5.643368e-004
3.841569e+003,2.110004e-004
3.843498e+003,2.935901e-004
3.845426e+003,2.520680e-004
3.847354e+003,3.443807e-004
3.849283e+003,6.137118e-004
3.851211e+003,8.499846e-004
3.853140e+003,1.142584e-003
3.855069e+003,4.489273e-004
3.856997e+003,2.963617e-004
3.858926e+003,5.637333e-004
3.860854e+003,6.986856e-004
3.862782e+003,5.510151e-004
3.864711e+003,4.949495e-004
3.866640e+003,1.472607e-004
3.868568e+003,2.654493e-004
3.870497e+003,4.943311e-004
3.872425e+003,3.753752e-004
3.874354e+003,3.941059e-004
3.876282e+003,2.842695e-004
3.878210e+003,2.983212e-004
3.880139e+003,5.824342e-004
3.882068e+003,4.707202e-004
3.883996e+003,5.156696e-004
3.885925e+003,6.462038e-004
3.887853e+003,3.441349e-004
3.889781e+003,4.197508e-004
3.891710e+003,6.356910e-004
3.893638e+003,4.137978e-004
3.895567e+003,2.528951e-004
3.897496e+003,4.714876e-004
3.899424e+003,9.101480e-004
3.901353e+003,8.306876e-004
3.903281e+003,6.264374e-004
3.905209e+003,4.123896e-004
3.907138e+003,1.107678e-004
3.909066e+003,1.216382e-004
3.910995e+003,4.092082e-004
3.912924e+003,5.078837e-004
3.914852e+003,5.175620e-004
3.916781e+003,5.247742e-004
3.918709e+003,5.411133e-004
3.920637e+003,4.494637e-004
3.922566e+003,4.562214e-004
3.924494e+003,5.633533e-004
3.926423e+003,3.230423e-004
3.928352e+003,3.174245e-004
3.930280e+003,4.365295e-004
3.932208e+003,5.370453e-004
3.934137e+003,4.428253e-004
3.936065e+003,2.879575e-004
3.937994e+003,3.000423e-004
3.939922e+003,3.750026e-004
3.941851e+003,5.259737e-004
3.943780e+003,5.231872e-004
3.945708e+003,5.109459e-004
3.947636e+003,5.707145e-004
3.949565e+003,5.736500e-004
3.951493e+003,5.125403e-004
3.953422e+003,4.022196e-004
3.955351e+003,4.064664e-004
3.957279e+003,4.392713e-004
3.959208e+003,4.422516e-004
3.961136e+003,4.621223e-004
3.963064e+003,4.120842e-004
3.964993e+003,3.167391e-004
3.966921e+003,4.660934e-004
3.968850e+003,6.618649e-004
3.970779e+003,5.491301e-004
3.972707e+003,3.569722e-004
3.974635e+003,3.562644e-004
3.976564e+003,4.844069e-004
3.978492e+003,5.990863e-004
3.980421e+003,6.171390e-004
3.982349e+003,6.629825e-004
3.984278e+003,6.803647e-004
3.986207e+003,7.101372e-004
3.988135e+003,7.095709e-004
3.990063e+003,6.144121e-004
3.991992e+003,6.135181e-004
3.993920e+003,6.235912e-004
3.995849e+003,6.277636e-004
3.997777e+003,7.633269e-004
3.999706e+003,8.270144e-004
4.001635e+003,0.000000e+000
