3.991992e+002,0.000000e+000
4.011277e+002,0.000000e+000
4.030562e+002,0.000000e+000
4.049846e+002,0.000000e+000
4.069131e+002,0.000000e+000
4.088416e+002,0.000000e+000
4.107701e+002,0.000000e+000
4.126986e+002,0.000000e+000
4.146271e+002,0.000000e+000
4.165556e+002,0.000000e+000
4.184841e+002,0.000000e+000
4.204126e+002,0.000000e+000
4.223411e+002,0.000000e+000
4.242697e+002,0.000000e+000
4.261982e+002,0.000000e+000
4.281266e+002,0.000000e+000
4.300551e+002,0.000000e+000
4.319836e+002,0.000000e+000
4.339121e+002,0.000000e+000
4.358406e+002,0.000000e+000
4.377691e+002,0.000000e+000
4.396976e+002,0.000000e+000
4.416261e+002,0.000000e+000
4.435546e+002,0.000000e+000
4.454831e+002,0.000000e+000
4.474116e+002,0.000000e+000
4.493401e+002,0.000000e+000
4.512686e+002,0.000000e+000
4.531971e+002,0.000000e+000
4.551256e+002,0.000000e+000
4.570541e+002,0.000000e+000
4.589826e+002,0.000000e+000
4.609111e+002,0.000000e+000
4.628396e+002,0.000000e+000
4.647681e+002,0.000000e+000
4.666966e+002,0.000000e+000
4.686251e+002,0.000000e+000
4.705536e+002,0.000000e+000
4.724821e+002,0.000000e+000
4.744106e+002,0.000000e+000
4.763391e+002,0.000000e+000
4.782676e+002,0.000000e+000
4.801961e+002,0.000000e+000
4.821246e+002,0.000000e+000
4.840531e+002,0.000000e+000
4.859816e+002,0.000000e+000
4.879101e+002,0.000000e+000
4.898386e+002,0.000000e+000
4.917671e+002,0.000000e+000
4.936956e+002,0.000000e+000
4.956241e+002,0.000000e+000
4.975526e+002,0.000000e+000
4.994811e+002,0.000000e+000
5.014096e+002,0.000000e+000
5.033381e+002,0.000000e+000
5.052666e+002,0.000000e+000
5.071951e+002,0.000000e+000
5.091236e+002,0.000000e+000
5.110521e+002,0.000000e+000
5.129806e+002,0.000000e+000
5.149091e+002,0.000000e+000
5.168376e+002,0.000000e+000
5.187661e+002,0.000000e+000
5.206946e+002,0.000000e+000
5.226230e+002,0.000000e+000
5.245516e+002,-1.557849e-004
5.264800e+002,-2.714025e-005
5.284086e+002,4.405831e-005
5.303370e+002,3.874511e-005
5.322656e+002,-1.554037e-004
5.341940e+002,-3.612184e-004
5.361226e+002,-6.033658e-004
5.380510e+002,-5.608713e-004
5.399796e+002,-5.873489e-004
5.419081e+002,-5.524223e-004
5.438365e+002,-5.842084e-004
5.457650e+002,-5.869488e-004
5.476935e+002,-5.476129e-004
5.496221e+002,-4.735390e-004
5.515505e+002,-3.246923e-004
5.534790e+002,-6.926176e-005
5.554075e+002,-4.680001e-005
5.573361e+002,-1.564899e-004
5.592645e+002,-2.775373e-004
5.611931e+002,-3.385912e-004
5.631215e+002,-4.197363e-004
5.650500e+002,-3.952846e-004
5.669785e+002,-3.955476e-004
5.689070e+002,-2.451492e-004
5.708355e+002,-2.513919e-004
5.727640e+002,-2.031320e-004
5.746925e+002,-1.461176e-004
5.766210e+002,-6.092648e-005
5.785495e+002,-1.389332e-004
5.804780e+002,-1.300636e-004
5.824065e+002,-1.382950e-005
5.843350e+002,8.023565e-005
5.862635e+002,5.441892e-006
5.881920e+002,-3.448263e-005
5.901205e+002,-5.928054e-005
5.920490e+002,9.077991e-005
5.939775e+002,8.097955e-005
5.959060e+002,-1.100998e-006
5.978345e+002,9.438541e-005
5.997630e+002,2.427908e-004
6.016915e+002,2.606002e-004
6.036200e+002,3.186881e-004
6.055485e+002,2.619341e-004
6.074770e+002,3.486374e-004
6.094055e+002,3.024805e-004
6.113340e+002,1.494620e-004
6.132625e+002,6.890809e-005
6.151910e+002,9.619922e-005
6.171195e+002,8.135775e-005
6.190480e+002,2.517525e-004
6.209765e+002,2.830940e-004
6.229050e+002,3.535486e-004
6.248335e+002,4.789637e-004
6.267620e+002,5.888165e-004
6.286905e+002,5.973501e-004
6.306190e+002,5.657915e-004
6.325475e+002,5.063893e-004
6.344760e+002,5.866506e-004
6.364045e+002,6.556193e-004
6.383330e+002,7.959441e-004
6.402615e+002,8.184210e-004
6.421899e+002,7.717293e-004
6.441185e+002,6.761407e-004
6.460470e+002,7.386158e-004
6.479755e+002,7.454602e-004
6.499039e+002,7.911127e-004
6.518325e+002,7.647720e-004
6.537610e+002,7.412400e-004
6.556895e+002,7.676059e-004
6.576179e+002,1.001975e-003
6.595464e+002,9.969495e-004
6.614750e+002,9.143753e-004
6.634034e+002,9.795898e-004
6.653319e+002,1.078946e-003
6.672604e+002,1.097036e-003
6.691890e+002,1.218286e-003
6.711174e+002,1.305343e-003
6.730460e+002,1.298324e-003
6.749745e+002,1.232686e-003
6.769030e+002,1.345635e-003
6.788314e+002,1.491735e-003
6.807599e+002,1.603277e-003
6.826885e+002,1.686900e-003
6.846169e+002,1.971547e-003
6.865454e+002,2.249130e-003
6.884739e+002,2.399107e-003
6.904025e+002,2.531657e-003
6.923309e+002,2.748739e-003
6.942594e+002,2.797604e-003
6.961879e+002,2.940426e-003
6.981165e+002,3.092639e-003
7.000449e+002,3.206310e-003
7.019734e+002,3.293487e-003
7.039019e+002,3.486627e-003
7.058304e+002,3.617777e-003
7.077589e+002,3.812937e-003
7.096874e+002,4.020222e-003
7.116159e+002,4.272737e-003
7.135444e+002,4.497514e-003
7.154729e+002,4.875916e-003
7.174014e+002,5.416741e-003
7.193299e+002,6.061819e-003
7.212584e+002,6.366968e-003
7.231869e+002,6.374149e-003
7.251154e+002,6.116052e-003
7.270439e+002,5.736570e-003
7.289724e+002,5.283708e-003
7.309009e+002,4.889875e-003
7.328294e+002,4.536790e-003
7.347579e+002,4.264820e-003
7.366864e+002,3.970851e-003
7.386149e+002,3.721967e-003
7.405434e+002,3.432314e-003
7.424719e+002,3.144382e-003
7.444004e+002,2.884564e-003
7.463289e+002,2.732792e-003
7.482574e+002,2.582452e-003
7.501859e+002,2.471538e-003
7.521144e+002,2.317990e-003
7.540428e+002,2.284995e-003
7.559714e+002,2.260986e-003
7.578999e+002,2.256016e-003
7.598284e+002,2.271714e-003
7.617568e+002,2.345324e-003
7.636854e+002,2.388402e-003
7.656139e+002,2.382773e-003
7.675424e+002,2.319962e-003
7.694709e+002,2.294682e-003
7.713994e+002,2.253851e-003
7.733279e+002,2.270964e-003
7.752563e+002,2.171740e-003
7.771849e+002,2.160861e-003
7.791134e+002,2.206102e-003
7.810419e+002,2.344976e-003
7.829703e+002,2.483692e-003
7.848989e+002,2.703641e-003
7.868274e+002,2.900480e-003
7.887559e+002,3.158875e-003
7.906843e+002,3.404831e-003
7.926129e+002,3.628466e-003
7.945414e+002,3.866836e-003
7.964698e+002,4.308785e-003
7.983983e+002,4.739026e-003
8.003268e+002,5.267530e-003
8.022554e+002,6.045160e-003
8.041838e+002,7.533140e-003
8.061123e+002,9.800844e-003
8.080408e+002,1.172602e-002
8.099694e+002,1.154766e-002
8.118978e+002,9.525114e-003
8.138263e+002,7.286191e-003
8.157548e+002,6.004964e-003
8.176833e+002,5.405650e-003
8.196118e+002,5.162667e-003
8.215403e+002,5.011209e-003
8.234689e+002,5.104913e-003
8.253973e+002,5.357656e-003
8.273258e+002,5.707628e-003
8.292543e+002,6.052214e-003
8.311829e+002,6.698289e-003
8.331113e+002,7.566738e-003
8.350398e+002,9.220641e-003
8.369683e+002,1.344255e-002
8.388969e+002,2.257734e-002
8.408253e+002,2.797899e-002
8.427538e+002,2.082042e-002
8.446823e+002,1.223284e-002
8.466108e+002,8.493234e-003
8.485393e+002,6.945732e-003
8.504678e+002,6.189028e-003
8.523963e+002,5.797173e-003
8.543248e+002,5.515293e-003
8.562533e+002,5.205747e-003
8.581818e+002,5.096441e-003
8.601103e+002,5.047157e-003
8.620388e+002,4.978493e-003
8.639673e+002,4.799878e-003
8.658958e+002,4.754581e-003
8.678243e+002,4.772726e-003
8.697528e+002,4.778223e-003
8.716813e+002,4.690042e-003
8.736098e+002,4.687192e-003
8.755383e+002,4.660209e-003
8.774668e+002,4.702844e-003
8.793953e+002,4.700539e-003
8.813238e+002,4.718790e-003
8.832523e+002,4.786939e-003
8.851808e+002,5.005395e-003
8.871093e+002,5.156433e-003
8.890378e+002,5.446901e-003
8.909663e+002,5.903307e-003
8.928948e+002,6.733916e-003
8.948232e+002,8.177638e-003
8.967518e+002,1.037764e-002
8.986803e+002,1.182239e-002
9.006088e+002,1.110589e-002
9.025372e+002,8.801378e-003
9.044658e+002,6.714812e-003
9.063943e+002,5.535109e-003
9.083228e+002,5.135945e-003
9.102512e+002,4.938341e-003
9.121797e+002,4.827925e-003
9.141083e+002,4.682462e-003
9.160367e+002,4.640903e-003
9.179653e+002,4.641869e-003
9.198937e+002,4.643870e-003
9.218223e+002,4.607126e-003
9.237507e+002,4.603473e-003
9.256793e+002,4.640696e-003
9.276077e+002,4.828367e-003
9.295363e+002,4.889616e-003
9.314647e+002,5.109356e-003
9.333932e+002,5.481909e-003
9.353217e+002,6.055688e-003
9.372502e+002,6.831982e-003
9.391787e+002,7.509903e-003
9.411072e+002,7.608265e-003
9.430358e+002,7.462692e-003
9.449642e+002,7.269453e-003
9.468928e+002,7.171194e-003
9.488212e+002,7.240014e-003
9.507498e+002,7.513967e-003
9.526782e+002,7.847465e-003
9.546068e+002,8.277015e-003
9.565352e+002,8.829167e-003
9.584637e+002,9.645043e-003
9.603922e+002,1.060275e-002
9.623207e+002,1.185287e-002
9.642492e+002,1.357685e-002
9.661777e+002,1.659334e-002
9.681062e+002,2.220782e-002
9.700347e+002,3.128369e-002
9.719632e+002,3.809503e-002
9.738917e+002,3.557208e-002
9.758202e+002,2.748125e-002
9.777487e+002,2.013440e-002
9.796772e+002,1.516768e-002
9.816057e+002,1.246905e-002
9.835342e+002,1.123162e-002
9.854627e+002,1.095729e-002
9.873912e+002,1.136462e-002
9.893197e+002,1.269704e-002
9.912482e+002,1.534789e-002
9.931767e+002,2.039477e-002
9.951052e+002,2.795174e-002
9.970337e+002,3.372112e-002
9.989622e+002,3.112210e-002
1.000891e+003,2.296337e-002
1.002819e+003,1.630328e-002
1.004748e+003,1.278356e-002
1.006676e+003,1.101022e-002
1.008605e+003,1.010042e-002
1.010533e+003,9.520272e-003
1.012462e+003,9.149458e-003
1.014390e+003,8.902057e-003
1.016319e+003,8.846525e-003
1.018247e+003,8.841509e-003
1.020176e+003,8.851936e-003
1.022104e+003,8.875025e-003
1.024033e+003,8.952791e-003
1.025961e+003,9.001259e-003
1.027890e+003,9.092806e-003
1.029818e+003,9.155996e-003
1.031747e+003,9.292362e-003
1.033675e+003,9.442352e-003
1.035604e+003,9.639892e-003
1.037532e+003,9.723265e-003
1.039461e+003,9.889756e-003
1.041389e+003,1.030656e-002
1.043318e+003,1.092172e-002
1.045246e+003,1.100328e-002
1.047175e+003,1.057573e-002
1.049103e+003,1.010221e-002
1.051032e+003,9.874126e-003
1.052960e+003,9.850337e-003
1.054889e+003,9.919832e-003
1.056817e+003,1.001978e-002
1.058746e+003,1.019535e-002
1.060674e+003,1.026852e-002
1.062603e+003,1.041625e-002
1.064531e+003,1.050542e-002
1.066460e+003,1.062129e-002
1.068388e+003,1.073709e-002
1.070317e+003,1.096637e-002
1.072245e+003,1.121926e-002
1.074174e+003,1.170973e-002
1.076102e+003,1.238495e-002
1.078031e+003,1.319366e-002
1.079959e+003,1.396751e-002
1.081888e+003,1.467910e-002
1.083816e+003,1.514781e-002
1.085745e+003,1.559197e-002
1.087673e+003,1.610544e-002
1.089602e+003,1.679937e-002
1.091530e+003,1.754119e-002
1.093459e+003,1.829362e-002
1.095387e+003,1.887371e-002
1.097316e+003,1.951266e-002
1.099244e+003,2.020610e-002
1.101173e+003,2.077953e-002
1.103101e+003,2.054363e-002
1.105030e+003,1.965896e-002
1.106958e+003,1.865262e-002
1.108887e+003,1.815167e-002
1.110815e+003,1.814093e-002
1.112744e+003,1.856402e-002
1.114672e+003,1.906202e-002
1.116601e+003,1.947124e-002
1.118529e+003,1.956952e-002
1.120458e+003,1.944678e-002
1.122386e+003,1.895089e-002
1.124315e+003,1.832651e-002
1.126243e+003,1.777221e-002
1.128172e+003,1.774848e-002
1.130100e+003,1.834582e-002
1.132029e+003,1.952843e-002
1.133957e+003,2.120338e-002
1.135885e+003,2.333969e-002
1.137814e+003,2.559384e-002
1.139743e+003,2.794894e-002
1.141671e+003,3.015001e-002
1.143600e+003,3.231298e-002
1.145528e+003,3.455153e-002
1.147457e+003,3.729646e-002
1.149385e+003,4.054643e-002
1.151314e+003,4.384180e-002
1.153242e+003,4.629780e-002
1.155171e+003,4.817700e-002
1.157099e+003,4.988705e-002
1.159028e+003,5.180338e-002
1.160956e+003,5.409926e-002
1.162885e+003,5.715118e-002
1.164813e+003,6.039427e-002
1.166742e+003,6.181837e-002
1.168670e+003,5.819369e-002
1.170599e+003,5.027162e-002
1.172527e+003,4.213334e-002
1.174456e+003,3.625020e-002
1.176384e+003,3.225850e-002
1.178313e+003,2.960047e-002
1.180241e+003,2.770300e-002
1.182170e+003,2.643087e-002
1.184098e+003,2.539897e-002
1.186027e+003,2.461380e-002
1.187955e+003,2.394117e-002
1.189884e+003,2.341100e-002
1.191812e+003,2.285834e-002
1.193740e+003,2.241262e-002
1.195669e+003,2.199599e-002
1.197598e+003,2.177906e-002
1.199526e+003,2.174651e-002
1.201455e+003,2.198149e-002
1.203383e+003,2.233539e-002
1.205312e+003,2.290520e-002
1.207240e+003,2.355654e-002
1.209168e+003,2.424377e-002
1.211097e+003,2.476592e-002
1.213026e+003,2.537826e-002
1.214954e+003,2.596321e-002
1.216883e+003,2.657971e-002
1.218811e+003,2.701810e-002
1.220740e+003,2.725341e-002
1.222668e+003,2.718689e-002
1.224596e+003,2.724332e-002
1.226525e+003,2.744086e-002
1.228453e+003,2.780297e-002
1.230382e+003,2.816184e-002
1.232311e+003,2.857981e-002
1.234239e+003,2.891587e-002
1.236167e+003,2.920596e-002
1.238096e+003,2.927650e-002
1.240025e+003,2.931990e-002
1.241953e+003,2.913043e-002
1.243882e+003,2.878837e-002
1.245810e+003,2.811903e-002
1.247739e+003,2.742123e-002
1.249667e+003,2.679259e-002
1.251595e+003,2.683219e-002
1.253524e+003,2.738790e-002
1.255453e+003,2.701761e-002
1.257381e+003,2.463845e-002
1.259310e+003,2.187957e-002
1.261238e+003,1.971151e-002
1.263167e+003,1.830361e-002
1.265095e+003,1.724466e-002
1.267023e+003,1.654788e-002
1.268952e+003,1.601092e-002
1.270880e+003,1.574514e-002
1.272809e+003,1.555804e-002
1.274738e+003,1.555394e-002
1.276666e+003,1.552199e-002
1.278594e+003,1.559528e-002
1.280523e+003,1.554341e-002
1.282451e+003,1.543766e-002
1.284380e+003,1.522763e-002
1.286308e+003,1.519882e-002
1.288237e+003,1.528968e-002
1.290166e+003,1.575949e-002
1.292094e+003,1.644344e-002
1.294022e+003,1.722852e-002
1.295951e+003,1.757571e-002
1.297879e+003,1.769548e-002
1.299808e+003,1.792009e-002
1.301736e+003,1.923044e-002
1.303665e+003,2.071968e-002
1.305594e+003,1.987999e-002
1.307522e+003,1.697130e-002
1.309450e+003,1.511142e-002
1.311379e+003,1.440321e-002
1.313307e+003,1.434064e-002
1.315236e+003,1.437489e-002
1.317164e+003,1.463506e-002
1.319093e+003,1.475365e-002
1.321021e+003,1.507375e-002
1.322950e+003,1.555387e-002
1.324878e+003,1.641445e-002
1.326807e+003,1.693937e-002
1.328735e+003,1.723217e-002
1.330664e+003,1.680826e-002
1.332592e+003,1.619849e-002
1.334521e+003,1.569004e-002
1.336449e+003,1.579038e-002
1.338378e+003,1.607357e-002
1.340306e+003,1.691959e-002
1.342235e+003,1.758967e-002
1.344163e+003,1.869880e-002
1.346092e+003,2.002848e-002
1.348021e+003,2.204823e-002
1.349949e+003,2.447031e-002
1.351877e+003,2.817646e-002
1.353806e+003,3.346984e-002
1.355734e+003,4.108466e-002
1.357663e+003,4.664218e-002
1.359591e+003,4.720856e-002
1.361520e+003,4.301267e-002
1.363448e+003,3.951161e-002
1.365377e+003,3.928921e-002
1.367305e+003,4.499119e-002
1.369234e+003,6.074288e-002
1.371162e+003,8.994585e-002
1.373091e+003,1.330265e-001
1.375019e+003,1.728001e-001
1.376948e+003,1.549374e-001
1.378876e+003,1.078009e-001
1.380805e+003,6.916066e-002
1.382733e+003,4.452531e-002
1.384662e+003,3.003581e-002
1.386590e+003,2.182368e-002
1.388519e+003,1.729619e-002
1.390447e+003,1.512000e-002
1.392376e+003,1.414092e-002
1.394304e+003,1.329921e-002
1.396233e+003,1.305129e-002
1.398161e+003,1.281871e-002
1.400090e+003,1.294358e-002
1.402018e+003,1.282080e-002
1.403947e+003,1.277458e-002
1.405875e+003,1.248243e-002
1.407804e+003,1.250838e-002
1.409732e+003,1.271040e-002
1.411661e+003,1.337818e-002
1.413589e+003,1.418294e-002
1.415518e+003,1.503917e-002
1.417446e+003,1.559748e-002
1.419375e+003,1.604981e-002
1.421303e+003,1.616541e-002
1.423232e+003,1.658341e-002
1.425160e+003,1.764160e-002
1.427089e+003,1.929310e-002
1.429017e+003,2.250728e-002
1.430946e+003,2.887940e-002
1.432874e+003,3.755522e-002
1.434803e+003,4.467241e-002
1.436731e+003,4.665582e-002
1.438660e+003,4.683785e-002
1.440588e+003,5.022423e-002
1.442517e+003,5.787058e-002
1.444445e+003,7.023901e-002
1.446374e+003,8.544578e-002
1.448302e+003,1.023300e-001
1.450231e+003,1.106950e-001
1.452159e+003,1.143440e-001
1.454088e+003,1.156508e-001
1.456016e+003,1.166824e-001
1.457945e+003,1.131736e-001
1.459873e+003,1.097512e-001
1.461802e+003,1.044715e-001
1.463730e+003,9.657279e-002
1.465659e+003,8.074834e-002
1.467587e+003,6.662285e-002
1.469516e+003,5.317383e-002
1.471444e+003,4.059964e-002
1.473373e+003,2.620470e-002
1.475301e+003,2.018510e-002
1.477230e+003,1.582794e-002
1.479158e+003,1.344951e-002
1.481087e+003,1.148587e-002
1.483015e+003,1.005703e-002
1.484944e+003,9.022169e-003
1.486872e+003,8.391907e-003
1.488801e+003,7.684465e-003
1.490729e+003,7.176300e-003
1.492658e+003,6.712112e-003
1.494586e+003,6.596456e-003
1.496515e+003,6.279037e-003
1.498443e+003,5.911257e-003
1.500372e+003,5.445975e-003
1.502300e+003,5.191936e-003
1.504229e+003,5.003840e-003
1.506157e+003,5.042207e-003
1.508086e+003,4.803302e-003
1.510014e+003,4.608286e-003
1.511943e+003,4.427588e-003
1.513871e+003,4.401416e-003
1.515800e+003,4.405445e-003
1.517728e+003,4.376951e-003
1.519657e+003,4.241275e-003
1.521585e+003,4.174332e-003
1.523514e+003,4.107980e-003
1.525442e+003,4.143571e-003
1.527371e+003,4.093517e-003
1.529299e+003,4.083212e-003
1.531228e+003,4.055207e-003
1.533156e+003,4.173070e-003
1.535085e+003,4.101831e-003
1.537013e+003,4.087179e-003
1.538942e+003,4.118656e-003
1.540870e+003,4.261306e-003
1.542799e+003,4.205681e-003
1.544727e+003,4.209247e-003
1.546656e+003,4.098302e-003
1.548584e+003,4.142018e-003
1.550513e+003,4.122057e-003
1.552441e+003,4.084338e-003
1.554370e+003,4.022445e-003
1.556298e+003,3.970996e-003
1.558227e+003,3.874100e-003
1.560155e+003,3.744300e-003
1.562084e+003,3.613559e-003
1.564012e+003,3.588507e-003
1.565941e+003,3.556498e-003
1.567869e+003,3.544040e-003
1.569798e+003,3.509151e-003
1.571726e+003,3.469313e-003
1.573655e+003,3.418188e-003
1.575583e+003,3.429578e-003
1.577512e+003,3.423126e-003
1.579440e+003,3.379890e-003
1.581369e+003,3.365021e-003
1.583297e+003,3.379391e-003
1.585226e+003,3.354259e-003
1.587154e+003,3.384273e-003
1.589083e+003,3.455785e-003
1.591011e+003,3.516681e-003
1.592940e+003,3.499227e-003
1.594868e+003,3.529510e-003
1.596797e+003,3.593465e-003
1.598725e+003,3.637691e-003
1.600654e+003,3.655740e-003
1.602582e+003,3.694942e-003
1.604511e+003,3.735508e-003
1.606439e+003,3.857321e-003
1.608368e+003,3.936832e-003
1.610296e+003,3.960779e-003
1.612225e+003,3.966620e-003
1.614153e+003,3.999703e-003
1.616082e+003,4.139135e-003
1.618010e+003,4.235088e-003
1.619939e+003,4.257321e-003
1.621867e+003,4.356705e-003
1.623796e+003,4.498337e-003
1.625724e+003,4.588298e-003
1.627653e+003,4.684613e-003
1.629581e+003,4.756500e-003
1.631510e+003,4.821102e-003
1.633438e+003,4.913658e-003
1.635367e+003,5.055727e-003
1.637295e+003,5.125946e-003
1.639224e+003,5.194577e-003
1.641152e+003,5.343250e-003
1.643081e+003,5.499679e-003
1.645009e+003,5.688667e-003
1.646938e+003,6.127933e-003
1.648866e+003,6.192649e-003
1.650795e+003,6.118907e-003
1.652723e+003,6.191738e-003
1.654652e+003,6.277063e-003
1.656580e+003,6.150920e-003
1.658509e+003,6.005346e-003
1.660437e+003,5.865893e-003
1.662366e+003,5.787337e-003
1.664294e+003,5.656482e-003
1.666223e+003,5.554049e-003
1.668151e+003,5.567472e-003
1.670080e+003,5.578374e-003
1.672008e+003,5.437031e-003
1.673937e+003,5.382762e-003
1.675865e+003,5.366712e-003
1.677794e+003,5.458015e-003
1.679722e+003,5.650040e-003
1.681651e+003,5.727128e-003
1.683579e+003,5.930237e-003
1.685508e+003,5.940047e-003
1.687436e+003,5.958895e-003
1.689365e+003,6.091583e-003
1.691293e+003,6.183341e-003
1.693222e+003,6.294292e-003
1.695150e+003,6.568188e-003
1.697079e+003,6.871510e-003
1.699007e+003,6.965367e-003
1.700936e+003,7.295771e-003
1.702864e+003,7.648241e-003
1.704793e+003,7.994622e-003
1.706721e+003,8.420585e-003
1.708650e+003,8.711656e-003
1.710578e+003,9.053081e-003
1.712507e+003,9.517580e-003
1.714435e+003,1.008220e-002
1.716364e+003,1.064753e-002
1.718292e+003,1.148974e-002
1.720221e+003,1.232895e-002
1.722149e+003,1.336583e-002
1.724078e+003,1.509637e-002
1.726006e+003,1.705767e-002
1.727935e+003,1.950337e-002
1.729863e+003,2.313566e-002
1.731792e+003,2.691753e-002
1.733720e+003,3.358804e-002
1.735649e+003,4.310236e-002
1.737577e+003,4.870632e-002
1.739506e+003,5.825866e-002
1.741434e+003,6.719080e-002
1.743363e+003,7.353771e-002
1.745291e+003,7.672112e-002
1.747220e+003,7.609899e-002
1.749148e+003,7.061239e-002
1.751077e+003,6.090370e-002
1.753005e+003,4.995716e-002
1.754934e+003,4.164128e-002
1.756862e+003,3.134735e-002
1.758791e+003,2.335922e-002
1.760719e+003,1.800176e-002
1.762648e+003,1.289095e-002
1.764576e+003,9.986442e-003
1.766505e+003,8.203492e-003
1.768433e+003,6.608056e-003
1.770362e+003,5.690984e-003
1.772290e+003,4.854800e-003
1.774219e+003,4.264997e-003
1.776147e+003,3.813796e-003
1.778076e+003,3.479424e-003
1.780004e+003,3.254334e-003
1.781933e+003,2.959002e-003
1.783861e+003,2.794729e-003
1.785790e+003,2.640636e-003
1.787718e+003,2.460544e-003
1.789646e+003,2.376741e-003
1.791575e+003,2.381038e-003
1.793504e+003,2.225520e-003
1.795432e+003,2.029125e-003
1.797361e+003,1.818588e-003
1.799289e+003,1.689276e-003
1.801218e+003,1.613160e-003
1.803146e+003,1.509247e-003
1.805074e+003,1.377110e-003
1.807003e+003,1.312886e-003
1.808932e+003,1.220163e-003
1.810860e+003,1.021299e-003
1.812789e+003,7.793410e-004
1.814717e+003,3.977902e-004
1.816646e+003,1.102276e-004
1.818574e+003,5.402081e-004
1.820502e+003,8.292915e-004
1.822431e+003,9.014364e-004
1.824360e+003,8.271337e-004
1.826288e+003,8.188076e-004
1.828217e+003,8.981591e-004
1.830145e+003,8.614156e-004
1.832073e+003,6.103497e-004
1.834002e+003,5.008932e-004
1.835931e+003,4.036631e-004
1.837859e+003,3.701150e-004
1.839788e+003,3.665760e-004
1.841716e+003,4.510246e-004
1.843645e+003,2.950113e-004
1.845573e+003,1.656935e-004
1.847501e+003,2.514254e-004
1.849430e+003,1.813583e-004
1.851359e+003,4.997477e-005
1.853287e+003,9.192526e-005
1.855216e+003,2.340190e-004
1.857144e+003,2.980959e-004
1.859073e+003,2.230704e-004
1.861001e+003,2.266373e-004
1.862929e+003,5.988218e-005
1.864858e+003,-1.369715e-004
1.866787e+003,-3.033839e-004
1.868715e+003,-1.308303e-004
1.870644e+003,-1.580641e-004
1.872572e+003,-3.539156e-004
1.874500e+003,-4.710704e-004
1.876429e+003,-3.766064e-004
1.878357e+003,-5.376078e-004
1.880286e+003,-5.251896e-004
1.882215e+003,-2.604984e-004
1.884143e+003,-5.394407e-005
1.886072e+003,-1.221839e-004
1.888000e+003,-1.377892e-004
1.889928e+003,-2.759229e-004
1.891857e+003,-4.413854e-004
1.893785e+003,-7.665996e-004
1.895714e+003,-7.555839e-004
1.897643e+003,-5.726386e-004
1.899571e+003,-4.726946e-004
1.901500e+003,-4.632231e-004
1.903428e+003,-4.537608e-004
1.905356e+003,-4.443079e-004
1.907285e+003,-4.348606e-004
1.909213e+003,-4.254207e-004
1.911142e+003,-4.159957e-004
1.913071e+003,-4.065726e-004
1.914999e+003,-3.971588e-004
1.916927e+003,-3.877543e-004
1.918856e+003,-3.783610e-004
1.920784e+003,-3.689714e-004
1.922713e+003,-3.595911e-004
1.924641e+003,-3.502220e-004
1.926570e+003,-3.408585e-004
1.928499e+003,-3.315043e-004
1.930427e+003,-3.221557e-004
1.932355e+003,-3.128201e-004
1.934284e+003,-3.034920e-004
1.936212e+003,-2.941694e-004
1.938141e+003,-2.848562e-004
1.940070e+003,-2.755504e-004
1.941998e+003,-2.662558e-004
1.943927e+003,-2.569668e-004
1.945855e+003,-2.476871e-004
1.947783e+003,-2.384167e-004
1.949712e+003,-2.291538e-004
1.951640e+003,-2.198964e-004
1.953569e+003,-2.106521e-004
1.955498e+003,-2.014153e-004
1.957426e+003,-1.921859e-004
1.959354e+003,-1.829620e-004
1.961283e+003,-1.737513e-004
1.963211e+003,-1.645461e-004
1.965140e+003,-1.553502e-004
1.967068e+003,-1.461618e-004
1.968997e+003,-1.369789e-004
1.970926e+003,-1.278091e-004
1.972854e+003,-1.186468e-004
1.974782e+003,-1.094919e-004
1.976711e+003,-1.003444e-004
1.978639e+003,-9.120628e-005
1.980568e+003,-8.207560e-005
1.982496e+003,-7.295422e-005
1.984425e+003,-6.384030e-005
1.986354e+003,-5.473569e-005
1.988282e+003,-4.564039e-005
1.990210e+003,-3.655255e-005
1.992139e+003,-2.747402e-005
1.994067e+003,-1.839921e-005
1.995996e+003,-9.335577e-006
1.997924e+003,-2.812594e-007
1.999853e+003,8.765608e-006
2.001781e+003,1.780502e-005
2.003710e+003,2.683513e-005
2.005638e+003,3.585778e-005
2.007567e+003,4.486926e-005
2.009495e+003,5.387515e-005
2.011424e+003,6.287172e-005
2.013352e+003,7.186085e-005
2.015281e+003,8.084066e-005
2.017209e+003,8.981116e-005
2.019138e+003,9.877793e-005
2.021066e+003,1.077317e-004
2.022995e+003,1.166780e-004
2.024923e+003,1.256187e-004
2.026852e+003,1.345482e-004
2.028781e+003,1.434702e-004
2.030709e+003,1.523849e-004
2.032637e+003,1.612920e-004
2.034566e+003,1.701880e-004
2.036494e+003,1.790766e-004
2.038423e+003,1.879577e-004
2.040351e+003,1.968313e-004
2.042280e+003,2.056938e-004
2.044208e+003,2.145488e-004
2.046137e+003,2.233945e-004
2.048065e+003,2.322365e-004
2.049994e+003,2.410654e-004
2.051922e+003,2.498869e-004
2.053851e+003,2.587009e-004
2.055779e+003,2.675075e-004
2.057708e+003,2.763048e-004
2.059636e+003,2.850946e-004
2.061565e+003,2.938751e-004
2.063493e+003,3.026482e-004
2.065422e+003,3.114101e-004
2.067350e+003,3.201682e-004
2.069279e+003,3.289133e-004
2.071207e+003,3.376529e-004
2.073136e+003,3.463849e-004
2.075064e+003,3.551077e-004
2.076993e+003,3.638212e-004
2.078921e+003,3.725272e-004
2.080850e+003,3.812257e-004
2.082778e+003,3.899168e-004
2.084707e+003,3.985967e-004
2.086635e+003,4.072674e-004
2.088564e+003,4.159342e-004
2.090492e+003,4.245881e-004
2.092421e+003,4.332382e-004
2.094349e+003,4.418772e-004
2.096278e+003,4.505087e-004
2.098206e+003,4.591290e-004
2.100135e+003,4.677456e-004
2.102063e+003,4.763491e-004
2.103992e+003,4.849490e-004
2.105920e+003,4.935395e-004
2.107849e+003,5.021207e-004
2.109777e+003,5.106926e-004
2.111706e+003,5.192589e-004
2.113634e+003,5.278122e-004
2.115563e+003,5.363617e-004
2.117491e+003,5.449001e-004
2.119420e+003,5.534347e-004
2.121348e+003,5.619563e-004
2.123277e+003,5.704705e-004
2.125205e+003,5.789753e-004
2.127134e+003,5.874746e-004
2.129062e+003,5.959626e-004
2.130991e+003,6.044451e-004
2.132919e+003,6.129183e-004
2.134848e+003,6.213859e-004
2.136776e+003,6.298404e-004
2.138705e+003,6.382912e-004
2.140633e+003,6.467290e-004
2.142562e+003,6.551612e-004
2.144490e+003,6.635841e-004
2.146419e+003,6.719995e-004
2.148347e+003,6.804056e-004
2.150276e+003,6.888043e-004
2.152204e+003,6.971937e-004
2.154133e+003,7.055756e-004
2.156061e+003,7.139482e-004
2.157990e+003,7.223114e-004
2.159918e+003,7.306710e-004
2.161847e+003,7.390194e-004
2.163775e+003,7.473584e-004
2.165704e+003,7.556938e-004
2.167632e+003,7.640142e-004
2.169561e+003,7.723328e-004
2.171489e+003,7.806383e-004
2.173418e+003,7.889345e-004
2.175346e+003,7.972270e-004
2.177275e+003,8.055083e-004
2.179203e+003,8.137804e-004
2.181132e+003,8.220449e-004
2.183060e+003,8.303039e-004
2.184989e+003,8.385517e-004
2.186917e+003,8.467901e-004
2.188846e+003,8.550230e-004
2.190774e+003,8.632485e-004
2.192703e+003,8.714646e-004
2.194631e+003,8.796733e-004
2.196560e+003,8.878708e-004
2.198488e+003,8.960608e-004
2.200417e+003,9.042416e-004
2.202345e+003,9.124167e-004
2.204274e+003,9.205807e-004
2.206202e+003,9.287409e-004
2.208131e+003,9.368900e-004
2.210059e+003,9.450298e-004
2.211988e+003,9.531621e-004
2.213916e+003,9.612869e-004
2.215845e+003,9.694025e-004
2.217773e+003,9.775087e-004
2.219702e+003,9.856056e-004
2.221630e+003,9.936988e-004
2.223559e+003,1.001781e-003
2.225487e+003,1.009855e-003
2.227416e+003,1.017919e-003
2.229344e+003,1.025978e-003
2.231273e+003,1.034025e-003
2.233201e+003,1.042066e-003
2.235130e+003,1.050098e-003
2.237058e+003,1.058124e-003
2.238987e+003,1.066139e-003
2.240915e+003,1.074148e-003
2.242844e+003,1.082148e-003
2.244772e+003,1.090139e-003
2.246701e+003,1.098121e-003
2.248629e+003,1.106095e-003
2.250558e+003,1.114061e-003
2.252486e+003,1.122020e-003
2.254415e+003,1.129968e-003
2.256343e+003,1.137909e-003
2.258272e+003,1.145842e-003
2.260200e+003,1.153767e-003
2.262129e+003,1.161683e-003
2.264057e+003,1.169590e-003
2.265986e+003,1.177492e-003
2.267914e+003,1.185384e-003
2.269843e+003,1.193264e-003
2.271771e+003,1.201136e-003
2.273700e+003,1.209004e-003
2.275628e+003,1.216860e-003
2.277557e+003,1.224712e-003
2.279485e+003,1.232551e-003
2.281414e+003,1.240386e-003
2.283342e+003,1.248214e-003
2.285271e+003,1.256028e-003
2.287199e+003,1.263836e-003
2.289128e+003,1.271633e-003
2.291056e+003,1.279427e-003
2.292985e+003,1.287209e-003
2.294913e+003,1.294984e-003
2.296842e+003,1.302749e-003
2.298770e+003,1.310509e-003
2.300699e+003,1.318257e-003
2.302627e+003,1.326000e-003
2.304556e+003,1.333730e-003
2.306484e+003,1.341458e-003
2.308413e+003,1.349179e-003
2.310341e+003,1.356883e-003
2.312270e+003,1.364585e-003
2.314198e+003,1.372276e-003
2.316127e+003,1.379961e-003
2.318055e+003,1.387637e-003
2.319984e+003,1.395304e-003
2.321912e+003,1.402961e-003
2.323841e+003,1.410609e-003
2.325769e+003,1.418250e-003
2.327698e+003,1.425885e-003
2.329626e+003,1.433508e-003
2.331555e+003,1.441125e-003
2.333483e+003,1.448732e-003
2.335412e+003,1.456335e-003
2.337340e+003,1.463929e-003
2.339269e+003,1.471510e-003
2.341197e+003,1.479086e-003
2.343126e+003,1.486655e-003
2.345054e+003,1.494212e-003
2.346983e+003,1.501760e-003
2.348911e+003,1.509301e-003
2.350840e+003,1.516836e-003
2.352768e+003,1.524365e-003
2.354697e+003,1.531878e-003
2.356625e+003,1.539389e-003
2.358554e+003,1.546888e-003
2.360482e+003,1.554383e-003
2.362411e+003,1.561865e-003
2.364339e+003,1.569342e-003
2.366268e+003,1.576809e-003
2.368196e+003,1.584265e-003
2.370125e+003,1.591720e-003
2.372053e+003,1.599161e-003
2.373982e+003,1.606593e-003
2.375910e+003,1.614019e-003
2.377839e+003,1.621436e-003
2.379767e+003,1.628846e-003
2.381696e+003,1.636246e-003
2.383624e+003,1.643639e-003
2.385553e+003,1.651021e-003
2.387481e+003,1.658401e-003
2.389410e+003,1.665765e-003
2.391338e+003,1.673123e-003
2.393267e+003,1.680475e-003
2.395195e+003,1.687817e-003
2.397124e+003,1.695154e-003
2.399052e+003,1.702480e-003
2.400981e+003,1.601292e-003
2.402909e+003,1.523787e-003
2.404838e+003,1.464879e-003
2.406766e+003,1.691686e-003
2.408695e+003,1.960557e-003
2.410623e+003,1.953898e-003
2.412552e+003,1.943296e-003
2.414480e+003,1.821382e-003
2.416409e+003,1.877917e-003
2.418337e+003,2.088159e-003
2.420266e+003,2.094537e-003
2.422194e+003,2.015829e-003
2.424123e+003,2.085002e-003
2.426051e+003,2.160341e-003
2.427979e+003,2.254149e-003
2.429908e+003,2.238046e-003
2.431837e+003,2.251431e-003
2.433765e+003,2.232496e-003
2.435694e+003,2.297500e-003
2.437622e+003,2.336955e-003
2.439551e+003,2.246633e-003
2.441479e+003,2.187468e-003
2.443407e+003,2.155881e-003
2.445336e+003,2.149159e-003
2.447265e+003,2.306234e-003
2.449193e+003,2.401853e-003
2.451122e+003,2.427571e-003
2.453050e+003,2.477441e-003
2.454979e+003,2.486013e-003
2.456907e+003,2.362151e-003
2.458836e+003,2.302669e-003
2.460764e+003,2.228785e-003
2.462693e+003,2.186114e-003
2.464621e+003,2.015045e-003
2.466550e+003,1.871649e-003
2.468478e+003,1.778906e-003
2.470406e+003,1.722805e-003
2.472335e+003,1.683692e-003
2.474264e+003,1.782835e-003
2.476192e+003,1.844594e-003
2.478121e+003,1.862932e-003
2.480049e+003,1.997994e-003
2.481978e+003,2.094921e-003
2.483906e+003,1.956969e-003
2.485835e+003,1.823971e-003
2.487763e+003,1.925610e-003
2.489692e+003,2.207369e-003
2.491620e+003,2.169132e-003
2.493549e+003,2.043737e-003
2.495477e+003,2.102721e-003
2.497406e+003,2.073193e-003
2.499334e+003,2.017889e-003
2.501263e+003,2.095943e-003
2.503191e+003,2.134379e-003
2.505120e+003,2.134971e-003
2.507048e+003,2.146943e-003
2.508977e+003,2.139773e-003
2.510905e+003,2.082543e-003
2.512833e+003,2.212878e-003
2.514762e+003,2.317790e-003
2.516691e+003,2.477190e-003
2.518619e+003,2.580410e-003
2.520548e+003,2.735756e-003
2.522476e+003,2.816306e-003
2.524405e+003,2.861382e-003
2.526333e+003,2.820028e-003
2.528261e+003,2.917867e-003
2.530190e+003,3.156641e-003
2.532119e+003,3.136996e-003
2.534047e+003,2.991037e-003
2.535976e+003,3.007455e-003
2.537904e+003,3.172358e-003
2.539833e+003,3.265318e-003
2.541761e+003,3.306795e-003
2.543689e+003,3.597368e-003
2.545618e+003,3.763160e-003
2.547547e+003,3.771871e-003
2.549475e+003,3.819359e-003
2.551404e+003,3.936911e-003
2.553332e+003,4.173018e-003
2.555260e+003,4.423803e-003
2.557189e+003,4.484033e-003
2.559117e+003,4.513044e-003
2.561046e+003,4.564991e-003
2.562975e+003,4.737051e-003
2.564903e+003,4.902873e-003
2.566832e+003,5.055171e-003
2.568760e+003,5.189555e-003
2.570688e+003,5.381033e-003
2.572617e+003,5.769059e-003
2.574546e+003,6.253460e-003
2.576474e+003,6.620565e-003
2.578403e+003,6.775370e-003
2.580331e+003,6.845808e-003
2.582260e+003,6.988632e-003
2.584188e+003,6.978609e-003
2.586116e+003,6.803354e-003
2.588045e+003,6.598333e-003
2.589974e+003,6.414464e-003
2.591902e+003,6.309438e-003
2.593831e+003,6.284339e-003
2.595759e+003,6.247099e-003
2.597688e+003,6.315550e-003
2.599616e+003,6.442603e-003
2.601544e+003,6.628921e-003
2.603473e+003,6.961882e-003
2.605402e+003,7.224657e-003
2.607330e+003,7.442467e-003
2.609259e+003,7.795243e-003
2.611187e+003,8.092482e-003
2.613115e+003,8.230774e-003
2.615044e+003,8.243669e-003
2.616972e+003,8.368669e-003
2.618901e+003,8.472228e-003
2.620830e+003,8.555232e-003
2.622758e+003,8.516537e-003
2.624687e+003,8.520506e-003
2.626615e+003,8.576319e-003
2.628543e+003,8.603202e-003
2.630472e+003,8.580402e-003
2.632400e+003,8.544657e-003
2.634329e+003,8.627824e-003
2.636258e+003,8.820634e-003
2.638186e+003,8.918054e-003
2.640115e+003,9.099210e-003
2.642043e+003,9.362854e-003
2.643971e+003,9.608444e-003
2.645900e+003,9.763915e-003
2.647828e+003,9.849029e-003
2.649757e+003,9.974329e-003
2.651686e+003,1.015309e-002
2.653614e+003,1.039378e-002
2.655542e+003,1.063788e-002
2.657471e+003,1.073127e-002
2.659399e+003,1.071401e-002
2.661328e+003,1.059691e-002
2.663256e+003,1.029825e-002
2.665185e+003,9.943400e-003
2.667114e+003,9.761743e-003
2.669042e+003,9.728815e-003
2.670970e+003,9.807924e-003
2.672899e+003,9.904679e-003
2.674827e+003,9.965124e-003
2.676756e+003,1.004540e-002
2.678685e+003,1.010267e-002
2.680613e+003,1.009712e-002
2.682542e+003,1.010284e-002
2.684470e+003,1.005821e-002
2.686398e+003,1.004360e-002
2.688327e+003,1.004652e-002
2.690255e+003,1.008044e-002
2.692184e+003,1.002767e-002
2.694113e+003,9.938370e-003
2.696041e+003,9.992123e-003
2.697969e+003,1.014157e-002
2.699898e+003,1.031275e-002
2.701826e+003,1.051032e-002
2.703755e+003,1.076800e-002
2.705683e+003,1.105899e-002
2.707612e+003,1.142377e-002
2.709541e+003,1.182460e-002
2.711469e+003,1.235737e-002
2.713397e+003,1.301372e-002
2.715326e+003,1.376298e-002
2.717254e+003,1.471645e-002
2.719183e+003,1.573387e-002
2.721111e+003,1.643617e-002
2.723040e+003,1.649475e-002
2.724969e+003,1.593610e-002
2.726897e+003,1.515842e-002
2.728825e+003,1.443347e-002
2.730754e+003,1.390388e-002
2.732682e+003,1.347475e-002
2.734611e+003,1.306332e-002
2.736539e+003,1.268485e-002
2.738468e+003,1.232147e-002
2.740396e+003,1.186917e-002
2.742325e+003,1.141407e-002
2.744253e+003,1.117810e-002
2.746182e+003,1.108482e-002
2.748110e+003,1.103093e-002
2.750039e+003,1.103268e-002
2.751967e+003,1.106977e-002
2.753896e+003,1.117512e-002
2.755824e+003,1.133458e-002
2.757753e+003,1.151600e-002
2.759681e+003,1.173919e-002
2.761610e+003,1.192234e-002
2.763538e+003,1.214805e-002
2.765467e+003,1.242414e-002
2.767395e+003,1.274332e-002
2.769324e+003,1.299364e-002
2.771252e+003,1.324687e-002
2.773181e+003,1.358723e-002
2.775109e+003,1.400542e-002
2.777038e+003,1.450468e-002
2.778966e+003,1.508336e-002
2.780895e+003,1.581420e-002
2.782823e+003,1.667931e-002
2.784752e+003,1.762573e-002
2.786680e+003,1.868642e-002
2.788609e+003,1.986313e-002
2.790537e+003,2.103694e-002
2.792466e+003,2.217247e-002
2.794394e+003,2.311342e-002
2.796323e+003,2.384834e-002
2.798251e+003,2.467456e-002
2.800180e+003,2.578464e-002
2.802108e+003,2.741131e-002
2.804037e+003,2.949405e-002
2.805965e+003,3.163552e-002
2.807894e+003,3.356335e-002
2.809822e+003,3.535092e-002
2.811751e+003,3.713987e-002
2.813679e+003,3.916138e-002
2.815608e+003,4.155874e-002
2.817536e+003,4.456493e-002
2.819465e+003,4.829692e-002
2.821393e+003,5.292398e-002
2.823322e+003,5.880525e-002
2.825250e+003,6.668950e-002
2.827179e+003,7.774971e-002
2.829107e+003,9.396409e-002
2.831036e+003,1.176095e-001
2.832964e+003,1.489460e-001
2.834893e+003,1.819790e-001
2.836821e+003,2.054009e-001
2.838750e+003,2.116791e-001
2.840678e+003,2.023647e-001
2.842607e+003,1.853872e-001
2.844535e+003,1.696863e-001
2.846464e+003,1.606401e-001
2.848392e+003,1.586305e-001
2.850321e+003,1.609436e-001
2.852249e+003,1.638248e-001
2.854178e+003,1.648729e-001
2.856106e+003,1.646076e-001
2.858035e+003,1.666142e-001
2.859963e+003,1.759539e-001
2.861892e+003,1.944131e-001
2.863820e+003,2.145140e-001
2.865749e+003,2.236984e-001
2.867677e+003,2.193913e-001
2.869606e+003,2.098940e-001
2.871534e+003,2.017556e-001
2.873463e+003,1.976940e-001
2.875391e+003,1.979681e-001
2.877320e+003,1.984803e-001
2.879248e+003,1.955706e-001
2.881177e+003,1.908135e-001
2.883105e+003,1.869661e-001
2.885034e+003,1.852598e-001
2.886962e+003,1.855544e-001
2.888891e+003,1.877180e-001
2.890819e+003,1.924609e-001
2.892748e+003,2.009117e-001
2.894676e+003,2.138015e-001
2.896605e+003,2.312418e-001
2.898533e+003,2.521907e-001
2.900462e+003,2.753557e-001
2.902390e+003,2.996851e-001
2.904319e+003,3.237402e-001
2.906247e+003,3.457584e-001
2.908176e+003,3.664842e-001
2.910104e+003,3.909604e-001
2.912033e+003,4.250291e-001
2.913961e+003,4.663792e-001
2.915890e+003,4.998270e-001
2.917818e+003,5.084037e-001
2.919747e+003,4.924875e-001
2.921675e+003,4.660579e-001
2.923604e+003,4.375310e-001
2.925532e+003,4.056365e-001
2.927461e+003,3.683160e-001
2.929389e+003,3.281895e-001
2.931318e+003,2.900326e-001
2.933246e+003,2.577029e-001
2.935175e+003,2.333951e-001
2.937103e+003,2.182827e-001
2.939032e+003,2.139880e-001
2.940960e+003,2.230163e-001
2.942889e+003,2.471788e-001
2.944817e+003,2.839712e-001
2.946746e+003,3.237139e-001
2.948674e+003,3.497294e-001
2.950603e+003,3.483770e-001
2.952531e+003,3.243896e-001
2.954460e+003,2.975807e-001
2.956388e+003,2.828004e-001
2.958317e+003,2.791646e-001
2.960245e+003,2.735103e-001
2.962174e+003,2.528608e-001
2.964102e+003,2.196106e-001
2.966031e+003,1.847352e-001
2.967959e+003,1.528648e-001
2.969888e+003,1.246542e-001
2.971816e+003,1.007195e-001
2.973745e+003,8.121274e-002
2.975673e+003,6.591235e-002
2.977602e+003,5.418509e-002
2.979530e+003,4.505999e-002
2.981459e+003,3.798557e-002
2.983387e+003,3.253360e-002
2.985316e+003,2.826187e-002
2.987244e+003,2.494855e-002
2.989173e+003,2.236964e-002
2.991101e+003,2.047670e-002
2.993030e+003,1.924315e-002
2.994958e+003,1.865922e-002
2.996887e+003,1.853415e-002
2.998815e+003,1.880061e-002
3.000744e+003,1.924515e-002
3.002672e+003,1.951565e-002
3.004601e+003,1.930175e-002
3.006529e+003,1.863535e-002
3.008458e+003,1.758532e-002
3.010386e+003,1.613664e-002
3.012315e+003,1.435686e-002
3.014243e+003,1.254283e-002
3.016172e+003,1.077480e-002
3.018100e+003,9.254130e-003
3.020029e+003,8.024435e-003
3.021957e+003,6.964421e-003
3.023886e+003,6.113254e-003
3.025814e+003,5.497295e-003
3.027743e+003,4.943039e-003
3.029671e+003,4.535381e-003
3.031600e+003,4.142294e-003
3.033528e+003,3.805069e-003
3.035457e+003,3.541024e-003
3.037385e+003,3.324809e-003
3.039314e+003,3.186289e-003
3.041242e+003,3.131906e-003
3.043171e+003,3.066091e-003
3.045099e+003,2.936721e-003
3.047028e+003,2.896691e-003
3.048956e+003,2.864718e-003
3.050885e+003,2.781207e-003
3.052813e+003,2.714330e-003
3.054742e+003,2.682947e-003
3.056670e+003,2.650024e-003
3.058599e+003,2.657052e-003
3.060527e+003,2.672026e-003
3.062456e+003,2.559002e-003
3.064384e+003,2.548851e-003
3.066313e+003,2.468238e-003
3.068241e+003,2.399368e-003
3.070170e+003,2.322726e-003
3.072098e+003,2.232036e-003
3.074027e+003,2.191285e-003
3.075955e+003,2.137305e-003
3.077884e+003,1.940396e-003
3.079812e+003,1.868499e-003
3.081741e+003,1.901345e-003
3.083669e+003,1.900624e-003
3.085598e+003,1.883585e-003
3.087526e+003,1.892645e-003
3.089455e+003,1.871746e-003
3.091383e+003,1.851019e-003
3.093312e+003,1.852822e-003
3.095240e+003,1.882628e-003
3.097169e+003,1.804082e-003
3.099097e+003,1.718597e-003
3.101026e+003,1.707720e-003
3.102954e+003,1.776308e-003
3.104883e+003,1.804907e-003
3.106811e+003,1.762290e-003
3.108740e+003,1.854705e-003
3.110668e+003,1.904763e-003
3.112597e+003,1.838077e-003
3.114525e+003,1.820091e-003
3.116454e+003,1.855941e-003
3.118382e+003,1.924688e-003
3.120311e+003,2.017712e-003
3.122239e+003,2.074683e-003
3.124168e+003,2.145607e-003
3.126096e+003,2.165705e-003
3.128025e+003,2.088316e-003
3.129953e+003,2.131632e-003
3.131882e+003,2.243876e-003
3.133810e+003,2.280926e-003
3.135739e+003,2.279352e-003
3.137667e+003,2.334265e-003
3.139596e+003,2.390252e-003
3.141524e+003,2.511743e-003
3.143453e+003,2.517106e-003
3.145381e+003,2.512874e-003
3.147310e+003,2.598489e-003
3.149238e+003,2.585903e-003
3.151167e+003,2.531679e-003
3.153095e+003,2.512159e-003
3.155024e+003,2.546251e-003
3.156952e+003,2.527932e-003
3.158881e+003,2.447262e-003
3.160809e+003,2.375515e-003
3.162738e+003,2.381761e-003
3.164666e+003,2.398781e-003
3.166594e+003,2.357662e-003
3.168523e+003,2.363881e-003
3.170452e+003,2.419673e-003
3.172380e+003,2.465228e-003
3.174309e+003,2.529893e-003
3.176237e+003,2.594313e-003
3.178166e+003,2.593633e-003
3.180094e+003,2.624407e-003
3.182022e+003,2.665851e-003
3.183951e+003,2.780078e-003
3.185880e+003,2.827236e-003
3.187808e+003,2.758162e-003
3.189737e+003,2.789607e-003
3.191665e+003,2.837446e-003
3.193594e+003,2.971049e-003
3.195522e+003,3.075473e-003
3.197450e+003,3.042083e-003
3.199379e+003,3.048416e-003
3.201308e+003,2.985546e-003
3.203236e+003,2.830282e-003
3.205165e+003,2.716964e-003
3.207093e+003,2.710069e-003
3.209021e+003,2.696285e-003
3.210950e+003,2.664758e-003
3.212878e+003,2.607649e-003
3.214807e+003,2.502274e-003
3.216736e+003,2.465336e-003
3.218664e+003,2.363706e-003
3.220593e+003,2.251409e-003
3.222521e+003,2.245065e-003
3.224449e+003,2.246242e-003
3.226378e+003,2.133334e-003
3.228307e+003,1.994431e-003
3.230235e+003,1.912881e-003
3.232164e+003,1.849886e-003
3.234092e+003,1.738884e-003
3.236021e+003,1.605289e-003
3.237949e+003,1.651801e-003
3.239877e+003,1.691639e-003
3.241806e+003,1.689361e-003
3.243735e+003,1.714315e-003
3.245663e+003,1.645828e-003
3.247592e+003,1.707422e-003
3.249520e+003,1.811011e-003
3.251448e+003,1.779551e-003
3.253377e+003,1.722302e-003
3.255305e+003,1.754697e-003
3.257234e+003,1.887696e-003
3.259163e+003,1.952454e-003
3.261091e+003,1.923582e-003
3.263020e+003,1.899637e-003
3.264948e+003,1.964180e-003
3.266876e+003,2.027523e-003
3.268805e+003,2.045345e-003
3.270733e+003,2.080368e-003
3.272662e+003,2.153099e-003
3.274591e+003,2.115242e-003
3.276519e+003,2.099114e-003
3.278448e+003,2.104012e-003
3.280376e+003,2.073694e-003
3.282304e+003,2.060577e-003
3.284233e+003,2.145117e-003
3.286161e+003,2.196604e-003
3.288090e+003,2.268406e-003
3.290019e+003,2.267614e-003
3.291947e+003,2.175294e-003
3.293875e+003,2.162348e-003
3.295804e+003,2.202198e-003
3.297732e+003,2.241762e-003
3.299661e+003,2.233198e-003
3.301589e+003,2.156071e-003
3.303518e+003,2.128251e-003
3.305447e+003,2.071332e-003
3.307375e+003,2.107568e-003
3.309303e+003,2.186123e-003
3.311232e+003,2.107199e-003
3.313160e+003,2.061281e-003
3.315089e+003,2.094008e-003
3.317018e+003,2.133870e-003
3.318946e+003,2.052017e-003
3.320875e+003,1.904260e-003
3.322803e+003,1.917966e-003
3.324731e+003,2.037901e-003
3.326660e+003,2.187533e-003
3.328588e+003,2.195900e-003
3.330517e+003,2.141180e-003
3.332446e+003,2.121625e-003
3.334374e+003,2.144335e-003
3.336302e+003,2.196062e-003
3.338231e+003,2.240364e-003
3.340159e+003,2.238343e-003
3.342088e+003,2.251269e-003
3.344016e+003,2.220482e-003
3.345945e+003,2.171751e-003
3.347874e+003,2.181381e-003
3.349802e+003,2.189489e-003
3.351730e+003,2.229456e-003
3.353659e+003,2.215398e-003
3.355587e+003,2.123594e-003
3.357516e+003,2.090277e-003
3.359444e+003,2.022043e-003
3.361373e+003,1.952525e-003
3.363302e+003,1.964945e-003
3.365230e+003,2.087180e-003
3.367158e+003,2.086794e-003
3.369087e+003,1.979422e-003
3.371015e+003,1.916748e-003
3.372944e+003,1.971919e-003
3.374872e+003,1.927976e-003
3.376801e+003,1.802295e-003
3.378729e+003,1.838181e-003
3.380658e+003,1.817640e-003
3.382586e+003,1.695499e-003
3.384515e+003,1.707990e-003
3.386443e+003,1.698181e-003
3.388372e+003,1.579814e-003
3.390300e+003,1.473080e-003
3.392229e+003,1.545809e-003
3.394157e+003,1.578566e-003
3.396086e+003,1.573361e-003
3.398014e+003,1.655295e-003
3.399943e+003,1.720339e-003
3.401871e+003,1.619875e-003
3.403800e+003,1.624908e-003
3.405728e+003,1.723044e-003
3.407657e+003,1.717858e-003
3.409585e+003,1.616035e-003
3.411514e+003,1.576584e-003
3.413442e+003,1.587991e-003
3.415371e+003,1.523882e-003
3.417299e+003,1.545120e-003
3.419228e+003,1.705408e-003
3.421156e+003,1.734201e-003
3.423085e+003,1.751017e-003
3.425013e+003,1.703996e-003
3.426942e+003,1.573905e-003
3.428870e+003,1.444224e-003
3.430799e+003,1.528963e-003
3.432727e+003,1.520198e-003
3.434656e+003,1.461852e-003
3.436584e+003,1.444548e-003
3.438513e+003,1.544829e-003
3.440441e+003,1.639433e-003
3.442370e+003,1.572620e-003
3.444298e+003,1.472335e-003
3.446227e+003,1.563892e-003
3.448155e+003,1.353923e-003
3.450084e+003,1.294166e-003
3.452012e+003,1.300920e-003
3.453941e+003,1.308795e-003
3.455869e+003,1.476772e-003
3.457798e+003,1.607835e-003
3.459726e+003,1.554403e-003
3.461655e+003,1.560945e-003
3.463583e+003,1.600731e-003
3.465512e+003,1.704499e-003
3.467440e+003,1.648039e-003
3.469369e+003,1.497805e-003
3.471297e+003,1.585342e-003
3.473226e+003,1.722071e-003
3.475154e+003,1.654539e-003
3.477083e+003,1.476102e-003
3.479011e+003,1.491819e-003
3.480940e+003,1.540389e-003
3.482868e+003,1.409352e-003
3.484797e+003,1.329228e-003
3.486725e+003,1.280885e-003
3.488654e+003,1.097925e-003
3.490582e+003,9.971298e-004
3.492511e+003,1.017116e-003
3.494439e+003,1.046401e-003
3.496368e+003,1.018032e-003
3.498296e+003,9.598061e-004
3.500225e+003,1.135223e-003
3.502153e+003,1.378059e-003
3.504082e+003,1.219034e-003
3.506010e+003,8.622184e-004
3.507939e+003,7.763170e-004
3.509867e+003,8.156747e-004
3.511796e+003,7.212199e-004
3.513724e+003,6.697066e-004
3.515653e+003,7.068738e-004
3.517581e+003,6.659888e-004
3.519510e+003,6.663501e-004
3.521438e+003,8.529425e-004
3.523367e+003,9.587854e-004
3.525295e+003,8.390881e-004
3.527224e+003,7.183366e-004
3.529152e+003,5.484149e-004
3.531081e+003,4.098862e-004
3.533009e+003,3.565997e-004
3.534938e+003,4.206374e-004
3.536866e+003,5.125999e-004
3.538795e+003,4.702732e-004
3.540723e+003,3.519394e-004
3.542652e+003,3.414862e-004
3.544580e+003,3.920086e-004
3.546509e+003,2.052933e-004
3.548437e+003,-1.098700e-004
3.550366e+003,-1.037158e-004
3.552294e+003,-4.210696e-005
3.554223e+003,-6.987154e-005
3.556151e+003,-1.107045e-004
3.558080e+003,-1.657493e-004
3.560008e+003,-1.294240e-004
3.561937e+003,-8.291751e-005
3.563865e+003,-1.511052e-004
3.565794e+003,5.551800e-005
3.567722e+003,-1.147240e-004
3.569651e+003,-5.359948e-004
3.571579e+003,-7.440373e-004
3.573508e+003,-8.391403e-004
3.575436e+003,-9.037964e-004
3.577365e+003,-8.433275e-004
3.579293e+003,-7.124618e-004
3.581222e+003,-7.637218e-004
3.583150e+003,-6.728098e-004
3.585079e+003,-4.554912e-004
3.587007e+003,-2.462864e-004
3.588936e+003,-6.681792e-004
3.590864e+003,-9.672120e-004
3.592793e+003,-9.615719e-004
3.594721e+003,-8.359551e-004
3.596650e+003,-7.876381e-004
3.598578e+003,-7.510334e-004
3.600507e+003,-6.550625e-004
3.602435e+003,-6.717891e-004
3.604364e+003,-8.562282e-004
3.606292e+003,-6.680451e-004
3.608221e+003,-3.980882e-004
3.610149e+003,-5.586520e-004
3.612078e+003,-3.701113e-004
3.614006e+003,-5.153902e-004
3.615935e+003,-7.527284e-004
3.617863e+003,-6.172098e-004
3.619792e+003,-4.817769e-004
3.621720e+003,-8.733422e-004
3.623649e+003,-1.028653e-003
3.625577e+003,-9.878799e-004
3.627506e+003,-6.540380e-004
3.629434e+003,-4.478879e-004
3.631363e+003,-7.081330e-004
3.633291e+003,-7.998124e-004
3.635220e+003,-8.967668e-004
3.637148e+003,-7.226281e-004
3.639077e+003,-5.120039e-004
3.641005e+003,-2.392195e-004
3.642934e+003,-1.739077e-004
3.644862e+003,-1.556240e-004
3.646791e+003,1.114979e-005
3.648719e+003,-3.890730e-004
3.650648e+003,-8.508526e-004
3.652576e+003,-1.253415e-003
3.654505e+003,-1.025952e-003
3.656433e+003,-8.743517e-004
3.658362e+003,-9.048656e-004
3.660290e+003,-1.018256e-003
3.662219e+003,-1.123939e-003
3.664147e+003,-8.195341e-004
3.666076e+003,-6.090179e-004
3.668004e+003,-3.749765e-004
3.669933e+003,4.920736e-005
3.671861e+003,-5.492419e-004
3.673790e+003,-5.245619e-004
3.675718e+003,-4.922450e-004
3.677647e+003,-7.409640e-004
3.679575e+003,-8.683950e-004
3.681504e+003,-9.483919e-004
3.683432e+003,-6.728396e-004
3.685361e+003,-5.379170e-004
3.687289e+003,-2.451912e-004
3.689218e+003,-1.665093e-004
3.691146e+003,-5.514957e-004
3.693075e+003,-8.389913e-004
3.695003e+003,-7.872283e-004
3.696932e+003,-7.123128e-004
3.698860e+003,-6.192327e-004
3.700789e+003,-3.684424e-004
3.702717e+003,-2.929382e-004
3.704646e+003,-3.956780e-004
3.706574e+003,-3.183223e-004
3.708503e+003,-2.160259e-004
3.710431e+003,-3.543571e-004
3.712360e+003,-4.311390e-004
3.714288e+003,-2.818443e-004
3.716217e+003,-2.079904e-004
3.718145e+003,-1.762062e-004
3.720074e+003,-2.653748e-004
3.722002e+003,-1.154505e-004
3.723931e+003,1.674779e-004
3.725859e+003,3.885590e-004
3.727788e+003,8.106977e-005
3.729716e+003,-9.935349e-006
3.731645e+003,3.293715e-004
3.733573e+003,7.270537e-004
3.735502e+003,6.564073e-004
3.737430e+003,1.967996e-004
3.739359e+003,2.039596e-004
3.741287e+003,1.234822e-004
3.743216e+003,4.941188e-004
3.745144e+003,4.333407e-004
3.747073e+003,9.750202e-005
3.749001e+003,6.257743e-005
3.750930e+003,2.105050e-004
3.752858e+003,6.701425e-005
3.754787e+003,-1.859814e-004
3.756715e+003,-1.556650e-004
3.758644e+003,2.521686e-004
3.760572e+003,3.090575e-004
3.762501e+003,1.914203e-004
3.764429e+003,3.046766e-004
3.766358e+003,2.324209e-004
3.768286e+003,3.101416e-004
3.770215e+003,2.446473e-004
3.772143e+003,8.607283e-005
3.774072e+003,1.753122e-004
3.776000e+003,2.549812e-004
3.777929e+003,2.982467e-004
3.779857e+003,3.460981e-004
3.781786e+003,1.398325e-004
3.783714e+003,9.481236e-005
3.785643e+003,1.357123e-005
3.787571e+003,6.145611e-005
3.789500e+003,2.092049e-004
3.791428e+003,2.743192e-004
3.793357e+003,2.329089e-004
3.795285e+003,6.691702e-004
3.797214e+003,7.256269e-004
3.799142e+003,5.027466e-004
3.801071e+003,6.533973e-004
3.802999e+003,1.250021e-004
3.804927e+003,1.127161e-004
3.806856e+003,4.764013e-004
3.808785e+003,3.883466e-004
3.810713e+003,2.701990e-004
3.812642e+003,2.408847e-004
3.814570e+003,6.944016e-004
3.816499e+003,7.882155e-004
3.818427e+003,4.952401e-004
3.820355e+003,5.309545e-004
3.822284e+003,2.370849e-004
3.824213e+003,1.393594e-004
3.826141e+003,3.259331e-004
3.828070e+003,2.874285e-004
3.829998e+003,2.642684e-004
3.831927e+003,3.882237e-004
3.833855e+003,4.878379e-004
3.835783e+003,4.694536e-004
3.837712e+003,4.289001e-004
3.839641e+003,2.440959e-004
3.841569e+003,-9.895116e-005
3.843498e+003,1.220256e-004
3.845426e+003,1.603328e-004
3.847354e+003,2.980307e-004
3.849283e+003,5.350560e-004
3.851211e+003,4.334338e-004
3.853140e+003,1.988746e-004
3.855069e+003,3.445894e-006
3.856997e+003,1.638718e-004
3.858926e+003,2.516843e-004
3.860854e+003,4.644580e-004
3.862782e+003,6.239973e-004
3.864711e+003,7.599145e-004
3.866640e+003,2.581999e-004
3.868568e+003,4.208535e-004
3.870497e+003,3.488585e-004
3.872425e+003,2.194457e-004
3.874354e+003,2.061538e-004
3.876282e+003,4.701316e-005
3.878210e+003,1.653172e-004
3.880139e+003,6.836392e-004
3.882068e+003,5.336292e-004
3.883996e+003,2.169572e-004
3.885925e+003,1.668297e-004
3.887853e+003,3.601983e-005
3.889781e+003,1.296774e-004
3.891710e+003,4.793294e-004
3.893638e+003,4.424565e-004
3.895567e+003,2.467148e-004
3.897496e+003,5.396120e-004
3.899424e+003,7.475130e-004
3.901353e+003,4.755929e-004
3.903281e+003,2.569370e-004
3.905209e+003,1.870357e-004
3.907138e+003,1.256689e-004
3.909066e+003,9.805709e-005
3.910995e+003,2.014600e-004
3.912924e+003,3.162548e-004
3.914852e+003,4.198700e-004
3.916781e+003,4.949048e-004
3.918709e+003,3.841892e-004
3.920637e+003,1.491010e-004
3.922566e+003,3.170110e-004
3.924494e+003,6.138161e-004
3.926423e+003,4.555695e-004
3.928352e+003,3.772601e-004
3.930280e+003,4.338883e-004
3.932208e+003,5.328879e-004
3.934137e+003,2.603009e-004
3.936065e+003,4.282221e-005
3.937994e+003,1.950786e-004
3.939922e+003,3.762282e-004
3.941851e+003,4.556067e-004
3.943780e+003,4.917346e-004
3.945708e+003,4.484728e-004
3.947636e+003,4.014522e-004
3.949565e+003,2.677217e-004
3.951493e+003,8.750707e-005
3.953422e+003,-1.779199e-005
3.955351e+003,8.635595e-005
3.957279e+003,1.611039e-004
3.959208e+003,2.404153e-004
3.961136e+003,3.106892e-004
3.963064e+003,2.845712e-004
3.964993e+003,1.800396e-004
3.966921e+003,1.524091e-004
3.968850e+003,2.397373e-004
3.970779e+003,2.032183e-004
3.972707e+003,1.827590e-004
3.974635e+003,1.927912e-004
3.976564e+003,2.515502e-004
3.978492e+003,2.660044e-004
3.980421e+003,3.034361e-004
3.982349e+003,3.398657e-004
3.984278e+003,3.266074e-004
3.986207e+003,4.137121e-004
3.988135e+003,4.436448e-004
3.990063e+003,4.004054e-004
3.991992e+003,3.831163e-004
3.993920e+003,5.817451e-004
3.995849e+003,6.493591e-004
3.997777e+003,4.959516e-004
3.999706e+003,4.676394e-004
4.001635e+003,0.000000e+000
