3.991992e+002,0.000000e+000
4.011277e+002,0.000000e+000
4.030562e+002,0.000000e+000
4.049846e+002,0.000000e+000
4.069131e+002,0.000000e+000
4.088416e+002,0.000000e+000
4.107701e+002,0.000000e+000
4.126986e+002,0.000000e+000
4.146271e+002,0.000000e+000
4.165556e+002,0.000000e+000
4.184841e+002,0.000000e+000
4.204126e+002,0.000000e+000
4.223411e+002,0.000000e+000
4.242697e+002,0.000000e+000
4.261982e+002,0.000000e+000
4.281266e+002,0.000000e+000
4.300551e+002,0.000000e+000
4.319836e+002,0.000000e+000
4.339121e+002,0.000000e+000
4.358406e+002,0.000000e+000
4.377691e+002,0.000000e+000
4.396976e+002,0.000000e+000
4.416261e+002,0.000000e+000
4.435546e+002,0.000000e+000
4.454831e+002,0.000000e+000
4.474116e+002,0.000000e+000
4.493401e+002,0.000000e+000
4.512686e+002,0.000000e+000
4.531971e+002,0.000000e+000
4.551256e+002,0.000000e+000
4.570541e+002,0.000000e+000
4.589826e+002,0.000000e+000
4.609111e+002,0.000000e+000
4.628396e+002,0.000000e+000
4.647681e+002,0.000000e+000
4.666966e+002,0.000000e+000
4.686251e+002,0.000000e+000
4.705536e+002,0.000000e+000
4.724821e+002,0.000000e+000
4.744106e+002,0.000000e+000
4.763391e+002,0.000000e+000
4.782676e+002,0.000000e+000
4.801961e+002,0.000000e+000
4.821246e+002,0.000000e+000
4.840531e+002,0.000000e+000
4.859816e+002,0.000000e+000
4.879101e+002,0.000000e+000
4.898386e+002,0.000000e+000
4.917671e+002,0.000000e+000
4.936956e+002,0.000000e+000
4.956241e+002,0.000000e+000
4.975526e+002,0.000000e+000
4.994811e+002,0.000000e+000
5.014096e+002,0.000000e+000
5.033381e+002,0.000000e+000
5.052666e+002,0.000000e+000
5.071951e+002,0.000000e+000
5.091236e+002,0.000000e+000
5.110521e+002,0.000000e+000
5.129806e+002,0.000000e+000
5.149091e+002,0.000000e+000
5.168376e+002,0.000000e+000
5.187661e+002,0.000000e+000
5.206946e+002,0.000000e+000
5.226230e+002,0.000000e+000
5.245516e+002,-3.058650e-005
5.264800e+002,-1.513623e-004
5.284086e+002,-1.429310e-004
5.303370e+002,-1.352304e-004
5.322656e+002,-2.116980e-004
5.341940e+002,-2.999846e-004
5.361226e+002,-3.909245e-004
5.380510e+002,-4.779315e-004
5.399796e+002,-5.743429e-004
5.419081e+002,-5.626124e-004
5.438365e+002,-7.145419e-004
5.457650e+002,-7.872609e-004
5.476935e+002,-6.406805e-004
5.496221e+002,-4.695705e-004
5.515505e+002,-5.835146e-004
5.534790e+002,-5.274066e-004
5.554075e+002,-4.753168e-004
5.573361e+002,-4.706732e-004
5.592645e+002,-6.428738e-004
5.611931e+002,-6.638113e-004
5.631215e+002,-6.007142e-004
5.650500e+002,-6.110994e-004
5.669785e+002,-6.564562e-004
5.689070e+002,-5.705021e-004
5.708355e+002,-5.351692e-004
5.727640e+002,-5.533458e-004
5.746925e+002,-6.946228e-004
5.766210e+002,-7.654801e-004
5.785495e+002,-8.517220e-004
5.804780e+002,-8.036997e-004
5.824065e+002,-6.166361e-004
5.843350e+002,-5.284236e-004
5.862635e+002,-5.368069e-004
5.881920e+002,-5.037570e-004
5.901205e+002,-6.746692e-004
5.920490e+002,-7.408974e-004
5.939775e+002,-7.196595e-004
5.959060e+002,-6.643631e-004
5.978345e+002,-7.085619e-004
5.997630e+002,-6.559780e-004
6.016915e+002,-4.992262e-004
6.036200e+002,-3.310842e-004
6.055485e+002,-2.650805e-004
6.074770e+002,-2.499940e-004
6.094055e+002,-4.088762e-004
6.113340e+002,-5.382700e-004
6.132625e+002,-5.232650e-004
6.151910e+002,-5.649650e-004
6.171195e+002,-6.739749e-004
6.190480e+002,-5.924837e-004
6.209765e+002,-5.772840e-004
6.229050e+002,-4.534111e-004
6.248335e+002,-4.214216e-004
6.267620e+002,-4.349789e-004
6.286905e+002,-4.672101e-004
6.306190e+002,-3.923681e-004
6.325475e+002,-3.382070e-004
6.344760e+002,-2.537100e-004
6.364045e+002,-2.693469e-004
6.383330e+002,-2.349578e-004
6.402615e+002,-1.450330e-004
6.421899e+002,-1.026774e-004
6.441185e+002,-1.902562e-004
6.460470e+002,-1.329593e-004
6.479755e+002,-2.115844e-004
6.499039e+002,-2.113171e-004
6.518325e+002,-1.621861e-004
6.537610e+002,-1.634182e-004
6.556895e+002,-2.022786e-004
6.576179e+002,-1.030695e-004
6.595464e+002,-1.033852e-004
6.614750e+002,-7.145852e-005
6.634034e+002,-1.622299e-004
6.653319e+002,-2.719536e-004
6.672604e+002,-2.361592e-004
6.691890e+002,-1.143990e-004
6.711174e+002,-2.930379e-004
6.730460e+002,-3.572516e-004
6.749745e+002,-3.507640e-004
6.769030e+002,-2.252683e-004
6.788314e+002,-2.174145e-004
6.807599e+002,-2.833894e-004
6.826885e+002,-3.400026e-004
6.846169e+002,-2.617519e-004
6.865454e+002,-2.308553e-004
6.884739e+002,-1.678700e-004
6.904025e+002,-1.311060e-004
6.923309e+002,-8.984189e-005
6.942594e+002,-1.889933e-005
6.961879e+002,9.055715e-005
6.981165e+002,8.387584e-005
7.000449e+002,5.864166e-005
7.019734e+002,3.535300e-005
7.039019e+002,8.673314e-005
7.058304e+002,1.448207e-004
7.077589e+002,1.260014e-004
7.096874e+002,7.499661e-005
7.116159e+002,1.304634e-004
7.135444e+002,8.323602e-005
7.154729e+002,1.267372e-004
7.174014e+002,2.184492e-004
7.193299e+002,3.060438e-004
7.212584e+002,2.971375e-004
7.231869e+002,3.444031e-004
7.251154e+002,3.245100e-004
7.270439e+002,3.144555e-004
7.289724e+002,2.663704e-004
7.309009e+002,2.771709e-004
7.328294e+002,2.780249e-004
7.347579e+002,2.933852e-004
7.366864e+002,2.655871e-004
7.386149e+002,2.752999e-004
7.405434e+002,2.800282e-004
7.424719e+002,3.153486e-004
7.444004e+002,2.787625e-004
7.463289e+002,2.941191e-004
7.482574e+002,2.676407e-004
7.501859e+002,2.485113e-004
7.521144e+002,2.526250e-004
7.540428e+002,4.003318e-004
7.559714e+002,3.960505e-004
7.578999e+002,3.580209e-004
7.598284e+002,4.072450e-004
7.617568e+002,4.927665e-004
7.636854e+002,5.295388e-004
7.656139e+002,5.676569e-004
7.675424e+002,5.682744e-004
7.694709e+002,6.255228e-004
7.713994e+002,6.568125e-004
7.733279e+002,7.319544e-004
7.752563e+002,7.296940e-004
7.771849e+002,7.623294e-004
7.791134e+002,7.950915e-004
7.810419e+002,9.659119e-004
7.829703e+002,1.123208e-003
7.848989e+002,1.276745e-003
7.868274e+002,1.484496e-003
7.887559e+002,1.735811e-003
7.906843e+002,1.943407e-003
7.926129e+002,2.266171e-003
7.945414e+002,2.515681e-003
7.964698e+002,2.885716e-003
7.983983e+002,3.245529e-003
8.003268e+002,3.689636e-003
8.022554e+002,4.439090e-003
8.041838e+002,5.796366e-003
8.061123e+002,7.736135e-003
8.080408e+002,9.432575e-003
8.099694e+002,9.246221e-003
8.118978e+002,7.413141e-003
8.138263e+002,5.298395e-003
8.157548e+002,4.042415e-003
8.176833e+002,3.431096e-003
8.196118e+002,3.128069e-003
8.215403e+002,3.007050e-003
8.234689e+002,3.096957e-003
8.253973e+002,3.247728e-003
8.273258e+002,3.496969e-003
8.292543e+002,3.803039e-003
8.311829e+002,4.328976e-003
8.331113e+002,5.000105e-003
8.350398e+002,6.365873e-003
8.369683e+002,9.803730e-003
8.388969e+002,1.736608e-002
8.408253e+002,2.197257e-002
8.427538e+002,1.614053e-002
8.446823e+002,8.764526e-003
8.466108e+002,5.361580e-003
8.485393e+002,4.052657e-003
8.504678e+002,3.427043e-003
8.523963e+002,2.980498e-003
8.543248e+002,2.772568e-003
8.562533e+002,2.558479e-003
8.581818e+002,2.411219e-003
8.601103e+002,2.280117e-003
8.620388e+002,2.208984e-003
8.639673e+002,2.154371e-003
8.658958e+002,2.186902e-003
8.678243e+002,2.115477e-003
8.697528e+002,2.043024e-003
8.716813e+002,1.977828e-003
8.736098e+002,2.010767e-003
8.755383e+002,2.011147e-003
8.774668e+002,1.958660e-003
8.793953e+002,1.891383e-003
8.813238e+002,2.025181e-003
8.832523e+002,2.154731e-003
8.851808e+002,2.287905e-003
8.871093e+002,2.388328e-003
8.890378e+002,2.516145e-003
8.909663e+002,2.822049e-003
8.928948e+002,3.647788e-003
8.948232e+002,5.081001e-003
8.967518e+002,7.280858e-003
8.986803e+002,8.669735e-003
9.006088e+002,7.837333e-003
9.025372e+002,5.581601e-003
9.044658e+002,3.820551e-003
9.063943e+002,2.836321e-003
9.083228e+002,2.356235e-003
9.102512e+002,2.180399e-003
9.121797e+002,2.044701e-003
9.141083e+002,1.937768e-003
9.160367e+002,1.965853e-003
9.179653e+002,1.892692e-003
9.198937e+002,1.951159e-003
9.218223e+002,1.933790e-003
9.237507e+002,1.863391e-003
9.256793e+002,1.776909e-003
9.276077e+002,1.942787e-003
9.295363e+002,2.073399e-003
9.314647e+002,2.180602e-003
9.333932e+002,2.348431e-003
9.353217e+002,2.783750e-003
9.372502e+002,3.361567e-003
9.391787e+002,3.967510e-003
9.411072e+002,3.976080e-003
9.430358e+002,3.571969e-003
9.449642e+002,3.183391e-003
9.468928e+002,3.043816e-003
9.488212e+002,3.096437e-003
9.507498e+002,3.286101e-003
9.526782e+002,3.504801e-003
9.546068e+002,3.810958e-003
9.565352e+002,4.173919e-003
9.584637e+002,4.705099e-003
9.603922e+002,5.341209e-003
9.623207e+002,6.254137e-003
9.642492e+002,7.587155e-003
9.661777e+002,1.011105e-002
9.681062e+002,1.490529e-002
9.700347e+002,2.251552e-002
9.719632e+002,2.836089e-002
9.738917e+002,2.655548e-002
9.758202e+002,1.983253e-002
9.777487e+002,1.352070e-002
9.796772e+002,9.241505e-003
9.816057e+002,6.920558e-003
9.835342e+002,5.867615e-003
9.854627e+002,5.690332e-003
9.873912e+002,6.077092e-003
9.893197e+002,7.221952e-003
9.912482e+002,9.446843e-003
9.931767e+002,1.367057e-002
9.951052e+002,1.998595e-002
9.970337e+002,2.477311e-002
9.989622e+002,2.259619e-002
1.000891e+003,1.571828e-002
1.002819e+003,1.007591e-002
1.004748e+003,7.197976e-003
1.006676e+003,5.653923e-003
1.008605e+003,4.747888e-003
1.010533e+003,4.208337e-003
1.012462e+003,3.932410e-003
1.014390e+003,3.725760e-003
1.016319e+003,3.603990e-003
1.018247e+003,3.459647e-003
1.020176e+003,3.379939e-003
1.022104e+003,3.285156e-003
1.024033e+003,3.254818e-003
1.025961e+003,3.177678e-003
1.027890e+003,3.195889e-003
1.029818e+003,3.253033e-003
1.031747e+003,3.391296e-003
1.033675e+003,3.523378e-003
1.035604e+003,3.686325e-003
1.037532e+003,3.761973e-003
1.039461e+003,3.954205e-003
1.041389e+003,4.311541e-003
1.043318e+003,4.791353e-003
1.045246e+003,4.798553e-003
1.047175e+003,4.371872e-003
1.049103e+003,3.858238e-003
1.051032e+003,3.544363e-003
1.052960e+003,3.294758e-003
1.054889e+003,3.233972e-003
1.056817e+003,3.140699e-003
1.058746e+003,3.100930e-003
1.060674e+003,3.022136e-003
1.062603e+003,3.033063e-003
1.064531e+003,3.024456e-003
1.066460e+003,3.014007e-003
1.068388e+003,2.956320e-003
1.070317e+003,3.034690e-003
1.072245e+003,3.084056e-003
1.074174e+003,3.159902e-003
1.076102e+003,3.197265e-003
1.078031e+003,3.308685e-003
1.079959e+003,3.399581e-003
1.081888e+003,3.508163e-003
1.083816e+003,3.555167e-003
1.085745e+003,3.621276e-003
1.087673e+003,3.682443e-003
1.089602e+003,3.900225e-003
1.091530e+003,4.113177e-003
1.093459e+003,4.421137e-003
1.095387e+003,4.751941e-003
1.097316e+003,5.333071e-003
1.099244e+003,6.041163e-003
1.101173e+003,6.760681e-003
1.103101e+003,6.874848e-003
1.105030e+003,6.284819e-003
1.106958e+003,5.412408e-003
1.108887e+003,4.810357e-003
1.110815e+003,4.392023e-003
1.112744e+003,4.202813e-003
1.114672e+003,4.038835e-003
1.116601e+003,3.948876e-003
1.118529e+003,3.835111e-003
1.120458e+003,3.821104e-003
1.122386e+003,3.771474e-003
1.124315e+003,3.770729e-003
1.126243e+003,3.759325e-003
1.128172e+003,3.855422e-003
1.130100e+003,3.981293e-003
1.132029e+003,4.176502e-003
1.133957e+003,4.401417e-003
1.135885e+003,4.756948e-003
1.137814e+003,5.150455e-003
1.139743e+003,5.751301e-003
1.141671e+003,6.477936e-003
1.143600e+003,7.448545e-003
1.145528e+003,8.596109e-003
1.147457e+003,1.004196e-002
1.149385e+003,1.161761e-002
1.151314e+003,1.305378e-002
1.153242e+003,1.384037e-002
1.155171e+003,1.434313e-002
1.157099e+003,1.499143e-002
1.159028e+003,1.615691e-002
1.160956e+003,1.797736e-002
1.162885e+003,2.079121e-002
1.164813e+003,2.421018e-002
1.166742e+003,2.641126e-002
1.168670e+003,2.443218e-002
1.170599e+003,1.871585e-002
1.172527e+003,1.280549e-002
1.174456e+003,8.896422e-003
1.176384e+003,6.595707e-003
1.178313e+003,5.319452e-003
1.180241e+003,4.581426e-003
1.182170e+003,4.186072e-003
1.184098e+003,3.973695e-003
1.186027e+003,3.968422e-003
1.187955e+003,3.971057e-003
1.189884e+003,4.008072e-003
1.191812e+003,4.006851e-003
1.193740e+003,4.093943e-003
1.195669e+003,4.181756e-003
1.197598e+003,4.340046e-003
1.199526e+003,4.423060e-003
1.201455e+003,4.616500e-003
1.203383e+003,4.753570e-003
1.205312e+003,4.934739e-003
1.207240e+003,5.133014e-003
1.209168e+003,5.394087e-003
1.211097e+003,5.624433e-003
1.213026e+003,6.010006e-003
1.214954e+003,6.437374e-003
1.216883e+003,6.879569e-003
1.218811e+003,7.090267e-003
1.220740e+003,7.050329e-003
1.222668e+003,6.706111e-003
1.224596e+003,6.397365e-003
1.226525e+003,6.156696e-003
1.228453e+003,6.113790e-003
1.230382e+003,6.082176e-003
1.232311e+003,6.132793e-003
1.234239e+003,6.134033e-003
1.236167e+003,6.199475e-003
1.238096e+003,6.203288e-003
1.240025e+003,6.281601e-003
1.241953e+003,6.332539e-003
1.243882e+003,6.438419e-003
1.245810e+003,6.520240e-003
1.247739e+003,6.731300e-003
1.249667e+003,7.124498e-003
1.251595e+003,8.096365e-003
1.253524e+003,9.449553e-003
1.255453e+003,1.002389e-002
1.257381e+003,8.889077e-003
1.259310e+003,7.401979e-003
1.261238e+003,6.354943e-003
1.263167e+003,5.808256e-003
1.265095e+003,5.382428e-003
1.267023e+003,5.140616e-003
1.268952e+003,4.903113e-003
1.270880e+003,4.795955e-003
1.272809e+003,4.742244e-003
1.274738e+003,4.841674e-003
1.276666e+003,4.886782e-003
1.278594e+003,4.976138e-003
1.280523e+003,5.043103e-003
1.282451e+003,5.275412e-003
1.284380e+003,5.452294e-003
1.286308e+003,5.752533e-003
1.288237e+003,6.102658e-003
1.290166e+003,6.694393e-003
1.292094e+003,7.356691e-003
1.294022e+003,8.072305e-003
1.295951e+003,8.398538e-003
1.297879e+003,8.485994e-003
1.299808e+003,8.657372e-003
1.301736e+003,9.733342e-003
1.303665e+003,1.093292e-002
1.305594e+003,1.025651e-002
1.307522e+003,7.856335e-003
1.309450e+003,6.310709e-003
1.311379e+003,5.717268e-003
1.313307e+003,5.691237e-003
1.315236e+003,5.765891e-003
1.317164e+003,6.028904e-003
1.319093e+003,6.282471e-003
1.321021e+003,6.820802e-003
1.322950e+003,7.454259e-003
1.324878e+003,8.429827e-003
1.326807e+003,9.069469e-003
1.328735e+003,9.478793e-003
1.330664e+003,9.199336e-003
1.332592e+003,8.698372e-003
1.334521e+003,8.151417e-003
1.336449e+003,8.014666e-003
1.338378e+003,7.935345e-003
1.340306e+003,8.472479e-003
1.342235e+003,9.017954e-003
1.344163e+003,9.914888e-003
1.346092e+003,1.094528e-002
1.348021e+003,1.258981e-002
1.349949e+003,1.460734e-002
1.351877e+003,1.777083e-002
1.353806e+003,2.228665e-002
1.355734e+003,2.882378e-002
1.357663e+003,3.357067e-002
1.359591e+003,3.395434e-002
1.361520e+003,3.002830e-002
1.363448e+003,2.694658e-002
1.365377e+003,2.698223e-002
1.367305e+003,3.213423e-002
1.369234e+003,4.639978e-002
1.371162e+003,7.250320e-002
1.373091e+003,1.093123e-001
1.375019e+003,1.412047e-001
1.376948e+003,1.251097e-001
1.378876e+003,8.477394e-002
1.380805e+003,5.175138e-002
1.382733e+003,3.103491e-002
1.384662e+003,1.902282e-002
1.386590e+003,1.235396e-002
1.388519e+003,9.095106e-003
1.390447e+003,7.677555e-003
1.392376e+003,7.071440e-003
1.394304e+003,6.414456e-003
1.396233e+003,6.242139e-003
1.398161e+003,6.005260e-003
1.400090e+003,6.174553e-003
1.402018e+003,6.124847e-003
1.403947e+003,6.154741e-003
1.405875e+003,6.160073e-003
1.407804e+003,6.380785e-003
1.409732e+003,6.510318e-003
1.411661e+003,6.805729e-003
1.413589e+003,7.029839e-003
1.415518e+003,7.237612e-003
1.417446e+003,7.370863e-003
1.419375e+003,7.972277e-003
1.421303e+003,8.512955e-003
1.423232e+003,9.056758e-003
1.425160e+003,1.012449e-002
1.427089e+003,1.134523e-002
1.429017e+003,1.351135e-002
1.430946e+003,1.834206e-002
1.432874e+003,2.527678e-002
1.434803e+003,3.082772e-002
1.436731e+003,3.170300e-002
1.438660e+003,3.129923e-002
1.440588e+003,3.382315e-002
1.442517e+003,4.004744e-002
1.444445e+003,5.028193e-002
1.446374e+003,6.283472e-002
1.448302e+003,7.679386e-002
1.450231e+003,8.344003e-002
1.452159e+003,8.547562e-002
1.454088e+003,8.523642e-002
1.456016e+003,8.471060e-002
1.457945e+003,8.157214e-002
1.459873e+003,7.917944e-002
1.461802e+003,7.507764e-002
1.463730e+003,6.823412e-002
1.465659e+003,5.470695e-002
1.467587e+003,4.376666e-002
1.469516e+003,3.465255e-002
1.471444e+003,2.645489e-002
1.473373e+003,1.665362e-002
1.475301e+003,1.246261e-002
1.477230e+003,9.599594e-003
1.479158e+003,7.971277e-003
1.481087e+003,6.551947e-003
1.483015e+003,5.617204e-003
1.484944e+003,4.859693e-003
1.486872e+003,4.158428e-003
1.488801e+003,3.376066e-003
1.490729e+003,3.189921e-003
1.492658e+003,3.053437e-003
1.494586e+003,2.831211e-003
1.496515e+003,2.484369e-003
1.498443e+003,2.409970e-003
1.500372e+003,2.350861e-003
1.502300e+003,2.338909e-003
1.504229e+003,2.137933e-003
1.506157e+003,1.519925e-003
1.508086e+003,1.238645e-003
1.510014e+003,1.515688e-003
1.511943e+003,1.628979e-003
1.513871e+003,1.690446e-003
1.515800e+003,1.619098e-003
1.517728e+003,1.645015e-003
1.519657e+003,1.495236e-003
1.521585e+003,1.395683e-003
1.523514e+003,1.366967e-003
1.525442e+003,1.322731e-003
1.527371e+003,1.488401e-003
1.529299e+003,1.604469e-003
1.531228e+003,1.454402e-003
1.533156e+003,1.367429e-003
1.535085e+003,1.587179e-003
1.537013e+003,1.576312e-003
1.538942e+003,1.488136e-003
1.540870e+003,1.379564e-003
1.542799e+003,1.254440e-003
1.544727e+003,1.404937e-003
1.546656e+003,1.604370e-003
1.548584e+003,1.602091e-003
1.550513e+003,1.716183e-003
1.552441e+003,1.778118e-003
1.554370e+003,1.775076e-003
1.556298e+003,1.669115e-003
1.558227e+003,1.151322e-003
1.560155e+003,1.313522e-003
1.562084e+003,1.556491e-003
1.564012e+003,1.633606e-003
1.565941e+003,1.671268e-003
1.567869e+003,1.539395e-003
1.569798e+003,1.575283e-003
1.571726e+003,1.702041e-003
1.573655e+003,1.595565e-003
1.575583e+003,1.522763e-003
1.577512e+003,1.660937e-003
1.579440e+003,1.685112e-003
1.581369e+003,1.674172e-003
1.583297e+003,1.678716e-003
1.585226e+003,1.716060e-003
1.587154e+003,1.665266e-003
1.589083e+003,1.641257e-003
1.591011e+003,1.693579e-003
1.592940e+003,1.686360e-003
1.594868e+003,1.669177e-003
1.596797e+003,1.766322e-003
1.598725e+003,1.796357e-003
1.600654e+003,1.777706e-003
1.602582e+003,1.817808e-003
1.604511e+003,1.834856e-003
1.606439e+003,1.801495e-003
1.608368e+003,1.809329e-003
1.610296e+003,1.923219e-003
1.612225e+003,2.020902e-003
1.614153e+003,1.947083e-003
1.616082e+003,1.846557e-003
1.618010e+003,1.957171e-003
1.619939e+003,1.943178e-003
1.621867e+003,1.853302e-003
1.623796e+003,2.060778e-003
1.625724e+003,2.254527e-003
1.627653e+003,2.350684e-003
1.629581e+003,2.629523e-003
1.631510e+003,2.772760e-003
1.633438e+003,2.706540e-003
1.635367e+003,2.434168e-003
1.637295e+003,2.369042e-003
1.639224e+003,2.461831e-003
1.641152e+003,2.588716e-003
1.643081e+003,2.634773e-003
1.645009e+003,2.497336e-003
1.646938e+003,2.456527e-003
1.648866e+003,2.585129e-003
1.650795e+003,2.298908e-003
1.652723e+003,1.767432e-003
1.654652e+003,2.212947e-003
1.656580e+003,2.395495e-003
1.658509e+003,2.404776e-003
1.660437e+003,2.352578e-003
1.662366e+003,2.350981e-003
1.664294e+003,2.369915e-003
1.666223e+003,2.106171e-003
1.668151e+003,1.824965e-003
1.670080e+003,1.809732e-003
1.672008e+003,1.764135e-003
1.673937e+003,1.493177e-003
1.675865e+003,1.659031e-003
1.677794e+003,1.867831e-003
1.679722e+003,1.791611e-003
1.681651e+003,1.509346e-003
1.683579e+003,1.264246e-003
1.685508e+003,1.481498e-003
1.687436e+003,1.448704e-003
1.689365e+003,1.504543e-003
1.691293e+003,1.661411e-003
1.693222e+003,1.640315e-003
1.695150e+003,1.570902e-003
1.697079e+003,1.496157e-003
1.699007e+003,1.184068e-003
1.700936e+003,1.208469e-003
1.702864e+003,1.329283e-003
1.704793e+003,1.186137e-003
1.706721e+003,1.255371e-003
1.708650e+003,1.292589e-003
1.710578e+003,1.352182e-003
1.712507e+003,1.341592e-003
1.714435e+003,1.174209e-003
1.716364e+003,8.424940e-004
1.718292e+003,1.005206e-003
1.720221e+003,1.208865e-003
1.722149e+003,1.163160e-003
1.724078e+003,1.230215e-003
1.726006e+003,1.326852e-003
1.727935e+003,1.249017e-003
1.729863e+003,1.188645e-003
1.731792e+003,9.672139e-004
1.733720e+003,6.232578e-004
1.735649e+003,9.996640e-004
1.737577e+003,1.047251e-003
1.739506e+003,9.948183e-004
1.741434e+003,1.077994e-003
1.743363e+003,1.026796e-003
1.745291e+003,9.822501e-004
1.747220e+003,8.285046e-004
1.749148e+003,6.527659e-004
1.751077e+003,6.171465e-004
1.753005e+003,7.404899e-004
1.754934e+003,7.311506e-004
1.756862e+003,7.392131e-004
1.758791e+003,6.818464e-004
1.760719e+003,4.600389e-004
1.762648e+003,3.757058e-004
1.764576e+003,4.619993e-004
1.766505e+003,4.241234e-004
1.768433e+003,3.666356e-004
1.770362e+003,1.568403e-004
1.772290e+003,7.848814e-005
1.774219e+003,1.463797e-004
1.776147e+003,1.592888e-004
1.778076e+003,2.528857e-004
1.780004e+003,3.247596e-004
1.781933e+003,2.746796e-004
1.783861e+003,2.165958e-004
1.785790e+003,2.715662e-004
1.787718e+003,3.514299e-004
1.789646e+003,1.725079e-004
1.791575e+003,-7.104874e-005
1.793504e+003,-3.153551e-005
1.795432e+003,-3.651343e-005
1.797361e+003,-1.207832e-004
1.799289e+003,-2.205884e-004
1.801218e+003,-2.051760e-004
1.803146e+003,-8.548424e-005
1.805074e+003,-7.229857e-005
1.807003e+003,-1.088148e-004
1.808932e+003,-1.630476e-004
1.810860e+003,-3.092755e-004
1.812789e+003,-5.029012e-004
1.814717e+003,-8.403249e-004
1.816646e+003,-1.091409e-003
1.818574e+003,-6.097024e-004
1.820502e+003,-3.800262e-004
1.822431e+003,-3.735470e-004
1.824360e+003,-3.060065e-004
1.826288e+003,-3.229771e-004
1.828217e+003,-6.655306e-004
1.830145e+003,-6.525945e-004
1.832073e+003,-5.080355e-004
1.834002e+003,-5.946141e-004
1.835931e+003,-6.907796e-004
1.837859e+003,-5.684523e-004
1.839788e+003,-5.538613e-004
1.841716e+003,-8.437783e-004
1.843645e+003,-1.304589e-003
1.845573e+003,-1.102000e-003
1.847501e+003,-9.364067e-004
1.849430e+003,-8.351104e-004
1.851359e+003,-8.321991e-004
1.853287e+003,-8.558230e-004
1.855216e+003,-9.154379e-004
1.857144e+003,-9.761201e-004
1.859073e+003,-1.115122e-003
1.861001e+003,-1.059595e-003
1.862929e+003,-1.084008e-003
1.864858e+003,-1.063772e-003
1.866787e+003,-1.234896e-003
1.868715e+003,-1.384207e-003
1.870644e+003,-1.402605e-003
1.872572e+003,-1.310811e-003
1.874500e+003,-1.335946e-003
1.876429e+003,-1.351034e-003
1.878357e+003,-1.430403e-003
1.880286e+003,-1.414062e-003
1.882215e+003,-1.630674e-003
1.884143e+003,-1.636149e-003
1.886072e+003,-1.562758e-003
1.888000e+003,-1.599326e-003
1.889928e+003,-1.561758e-003
1.891857e+003,-1.451352e-003
1.893785e+003,-1.776746e-003
1.895714e+003,-1.669825e-003
1.897643e+003,-1.624814e-003
1.899571e+003,-1.747305e-003
1.901500e+003,-1.735628e-003
1.903428e+003,-1.723954e-003
1.905356e+003,-1.712291e-003
1.907285e+003,-1.700634e-003
1.909213e+003,-1.688985e-003
1.911142e+003,-1.677343e-003
1.913071e+003,-1.665708e-003
1.914999e+003,-1.654081e-003
1.916927e+003,-1.642460e-003
1.918856e+003,-1.630846e-003
1.920784e+003,-1.619240e-003
1.922713e+003,-1.607643e-003
1.924641e+003,-1.596050e-003
1.926570e+003,-1.584466e-003
1.928499e+003,-1.572887e-003
1.930427e+003,-1.561319e-003
1.932355e+003,-1.549757e-003
1.934284e+003,-1.538199e-003
1.936212e+003,-1.526653e-003
1.938141e+003,-1.515112e-003
1.940070e+003,-1.503577e-003
1.941998e+003,-1.492050e-003
1.943927e+003,-1.480532e-003
1.945855e+003,-1.469021e-003
1.947783e+003,-1.457515e-003
1.949712e+003,-1.446017e-003
1.951640e+003,-1.434527e-003
1.953569e+003,-1.423044e-003
1.955498e+003,-1.411567e-003
1.957426e+003,-1.400099e-003
1.959354e+003,-1.388637e-003
1.961283e+003,-1.377184e-003
1.963211e+003,-1.365736e-003
1.965140e+003,-1.354296e-003
1.967068e+003,-1.342864e-003
1.968997e+003,-1.331439e-003
1.970926e+003,-1.320019e-003
1.972854e+003,-1.308609e-003
1.974782e+003,-1.297205e-003
1.976711e+003,-1.285809e-003
1.978639e+003,-1.274419e-003
1.980568e+003,-1.263037e-003
1.982496e+003,-1.251663e-003
1.984425e+003,-1.240294e-003
1.986354e+003,-1.228933e-003
1.988282e+003,-1.217581e-003
1.990210e+003,-1.206236e-003
1.992139e+003,-1.194896e-003
1.994067e+003,-1.183566e-003
1.995996e+003,-1.172242e-003
1.997924e+003,-1.160925e-003
1.999853e+003,-1.149614e-003
2.001781e+003,-1.138312e-003
2.003710e+003,-1.127018e-003
2.005638e+003,-1.115729e-003
2.007567e+003,-1.104447e-003
2.009495e+003,-1.093174e-003
2.011424e+003,-1.081908e-003
2.013352e+003,-1.070648e-003
2.015281e+003,-1.059396e-003
2.017209e+003,-1.048152e-003
2.019138e+003,-1.036916e-003
2.021066e+003,-1.025684e-003
2.022995e+003,-1.014461e-003
2.024923e+003,-1.003246e-003
2.026852e+003,-9.920364e-004
2.028781e+003,-9.808335e-004
2.030709e+003,-9.696400e-004
2.032637e+003,-9.584548e-004
2.034566e+003,-9.472752e-004
2.036494e+003,-9.361003e-004
2.038423e+003,-9.249365e-004
2.040351e+003,-9.137793e-004
2.042280e+003,-9.026257e-004
2.044208e+003,-8.914834e-004
2.046137e+003,-8.803485e-004
2.048065e+003,-8.692192e-004
2.049994e+003,-8.580973e-004
2.051922e+003,-8.469839e-004
2.053851e+003,-8.358741e-004
2.055779e+003,-8.247746e-004
2.057708e+003,-8.136807e-004
2.059636e+003,-8.025961e-004
2.061565e+003,-7.915189e-004
2.063493e+003,-7.804465e-004
2.065422e+003,-7.693833e-004
2.067350e+003,-7.583257e-004
2.069279e+003,-7.472746e-004
2.071207e+003,-7.362319e-004
2.073136e+003,-7.251976e-004
2.075064e+003,-7.141707e-004
2.076993e+003,-7.031485e-004
2.078921e+003,-6.921366e-004
2.080850e+003,-6.811302e-004
2.082778e+003,-6.701304e-004
2.084707e+003,-6.591370e-004
2.086635e+003,-6.481521e-004
2.088564e+003,-6.371764e-004
2.090492e+003,-6.262064e-004
2.092421e+003,-6.152429e-004
2.094349e+003,-6.042887e-004
2.096278e+003,-5.933400e-004
2.098206e+003,-5.823961e-004
2.100135e+003,-5.714623e-004
2.102063e+003,-5.605370e-004
2.103992e+003,-5.496182e-004
2.105920e+003,-5.387058e-004
2.107849e+003,-5.278010e-004
2.109777e+003,-5.169036e-004
2.111706e+003,-5.060118e-004
2.113634e+003,-4.951265e-004
2.115563e+003,-4.842523e-004
2.117491e+003,-4.733838e-004
2.119420e+003,-4.625227e-004
2.121348e+003,-4.516654e-004
2.123277e+003,-4.408211e-004
2.125205e+003,-4.299795e-004
2.127134e+003,-4.191492e-004
2.129062e+003,-4.083198e-004
2.130991e+003,-3.975015e-004
2.132919e+003,-3.866926e-004
2.134848e+003,-3.758855e-004
2.136776e+003,-3.650896e-004
2.138705e+003,-3.543012e-004
2.140633e+003,-3.435193e-004
2.142562e+003,-3.327420e-004
2.144490e+003,-3.219750e-004
2.146419e+003,-3.112154e-004
2.148347e+003,-3.004614e-004
2.150276e+003,-2.897158e-004
2.152204e+003,-2.789795e-004
2.154133e+003,-2.682451e-004
2.156061e+003,-2.575219e-004
2.157990e+003,-2.468023e-004
2.159918e+003,-2.360940e-004
2.161847e+003,-2.253912e-004
2.163775e+003,-2.146959e-004
2.165704e+003,-2.040081e-004
2.167632e+003,-1.933277e-004
2.169561e+003,-1.826547e-004
2.171489e+003,-1.719873e-004
2.173418e+003,-1.613256e-004
2.175346e+003,-1.506750e-004
2.177275e+003,-1.400281e-004
2.179203e+003,-1.293905e-004
2.181132e+003,-1.187604e-004
2.183060e+003,-1.081396e-004
2.184989e+003,-9.752251e-005
2.186917e+003,-8.690916e-005
2.188846e+003,-7.631071e-005
2.190774e+003,-6.571598e-005
2.192703e+003,-5.512871e-005
2.194631e+003,-4.455075e-005
2.196560e+003,-3.397837e-005
2.198488e+003,-2.341345e-005
2.200417e+003,-1.285225e-005
2.202345e+003,-2.300367e-006
2.204274e+003,8.244067e-006
2.206202e+003,1.877919e-005
2.208131e+003,2.930686e-005
2.210059e+003,3.982894e-005
2.211988e+003,5.034544e-005
2.213916e+003,6.085075e-005
2.215845e+003,7.135049e-005
2.217773e+003,8.184649e-005
2.219702e+003,9.233132e-005
2.221630e+003,1.028106e-004
2.223559e+003,1.132824e-004
2.225487e+003,1.237467e-004
2.227416e+003,1.342036e-004
2.229344e+003,1.446512e-004
2.231273e+003,1.550969e-004
2.233201e+003,1.655333e-004
2.235130e+003,1.759604e-004
2.237058e+003,1.863800e-004
2.238987e+003,1.967922e-004
2.240915e+003,2.072006e-004
2.242844e+003,2.175998e-004
2.244772e+003,2.279934e-004
2.246701e+003,2.383795e-004
2.248629e+003,2.487563e-004
2.250558e+003,2.591256e-004
2.252486e+003,2.694875e-004
2.254415e+003,2.798457e-004
2.256343e+003,2.901945e-004
2.258272e+003,3.005322e-004
2.260200e+003,3.108680e-004
2.262129e+003,3.211983e-004
2.264057e+003,3.315173e-004
2.265986e+003,3.418289e-004
2.267914e+003,3.521331e-004
2.269843e+003,3.624316e-004
2.271771e+003,3.727209e-004
2.273700e+003,3.830027e-004
2.275628e+003,3.932826e-004
2.277557e+003,4.035532e-004
2.279485e+003,4.138146e-004
2.281414e+003,4.240703e-004
2.283342e+003,4.343167e-004
2.285271e+003,4.445557e-004
2.287199e+003,4.547890e-004
2.289128e+003,4.650149e-004
2.291056e+003,4.752353e-004
2.292985e+003,4.854444e-004
2.294913e+003,4.956499e-004
2.296842e+003,5.058460e-004
2.298770e+003,5.160365e-004
2.300699e+003,5.262196e-004
2.302627e+003,5.363952e-004
2.304556e+003,5.465634e-004
2.306484e+003,5.567241e-004
2.308413e+003,5.668774e-004
2.310341e+003,5.770214e-004
2.312270e+003,5.871635e-004
2.314198e+003,5.972926e-004
2.316127e+003,6.074179e-004
2.318055e+003,6.175339e-004
2.319984e+003,6.276462e-004
2.321912e+003,6.377511e-004
2.323841e+003,6.478466e-004
2.325769e+003,6.579328e-004
2.327698e+003,6.680135e-004
2.329626e+003,6.780885e-004
2.331555e+003,6.881543e-004
2.333483e+003,6.982163e-004
2.335412e+003,7.082708e-004
2.337340e+003,7.183142e-004
2.339269e+003,7.283520e-004
2.341197e+003,7.383823e-004
2.343126e+003,7.484052e-004
2.345054e+003,7.584207e-004
2.346983e+003,7.684343e-004
2.348911e+003,7.784367e-004
2.350840e+003,7.884279e-004
2.352768e+003,7.984173e-004
2.354697e+003,8.083973e-004
2.356625e+003,8.183680e-004
2.358554e+003,8.283332e-004
2.360482e+003,8.382909e-004
2.362411e+003,8.482412e-004
2.364339e+003,8.581877e-004
2.366268e+003,8.681249e-004
2.368196e+003,8.780546e-004
2.370125e+003,8.879770e-004
2.372053e+003,8.978900e-004
2.373982e+003,9.077992e-004
2.375910e+003,9.176992e-004
2.377839e+003,9.275936e-004
2.379767e+003,9.374805e-004
2.381696e+003,9.473599e-004
2.383624e+003,9.572301e-004
2.385553e+003,9.670947e-004
2.387481e+003,9.769518e-004
2.389410e+003,9.868033e-004
2.391338e+003,9.966474e-004
2.393267e+003,1.006482e-003
2.395195e+003,1.016309e-003
2.397124e+003,1.026131e-003
2.399052e+003,1.035945e-003
2.400981e+003,9.635761e-004
2.402909e+003,9.449832e-004
2.404838e+003,9.798035e-004
2.406766e+003,1.196126e-003
2.408695e+003,1.473956e-003
2.410623e+003,1.452165e-003
2.412552e+003,1.352586e-003
2.414480e+003,1.314515e-003
2.416409e+003,1.467820e-003
2.418337e+003,1.616646e-003
2.420266e+003,1.637876e-003
2.422194e+003,1.644170e-003
2.424123e+003,1.617491e-003
2.426051e+003,1.724964e-003
2.427979e+003,1.936538e-003
2.429908e+003,1.831900e-003
2.431837e+003,1.800397e-003
2.433765e+003,1.786008e-003
2.435694e+003,1.736887e-003
2.437622e+003,1.706440e-003
2.439551e+003,1.785453e-003
2.441479e+003,1.813566e-003
2.443407e+003,1.800064e-003
2.445336e+003,1.700940e-003
2.447265e+003,1.708787e-003
2.449193e+003,1.748212e-003
2.451122e+003,1.879117e-003
2.453050e+003,2.091739e-003
2.454979e+003,2.237231e-003
2.456907e+003,2.068363e-003
2.458836e+003,1.870779e-003
2.460764e+003,1.791762e-003
2.462693e+003,1.671061e-003
2.464621e+003,1.495946e-003
2.466550e+003,1.547208e-003
2.468478e+003,1.592793e-003
2.470406e+003,1.546234e-003
2.472335e+003,1.498343e-003
2.474264e+003,1.414219e-003
2.476192e+003,1.360791e-003
2.478121e+003,1.515727e-003
2.480049e+003,1.598852e-003
2.481978e+003,1.570279e-003
2.483906e+003,1.574852e-003
2.485835e+003,1.605004e-003
2.487763e+003,1.499359e-003
2.489692e+003,1.574596e-003
2.491620e+003,1.761705e-003
2.493549e+003,1.834648e-003
2.495477e+003,1.719950e-003
2.497406e+003,1.664413e-003
2.499334e+003,1.725774e-003
2.501263e+003,1.729144e-003
2.503191e+003,1.594467e-003
2.505120e+003,1.582755e-003
2.507048e+003,1.684224e-003
2.508977e+003,1.745194e-003
2.510905e+003,1.885843e-003
2.512833e+003,1.879539e-003
2.514762e+003,1.849953e-003
2.516691e+003,1.922851e-003
2.518619e+003,1.953002e-003
2.520548e+003,2.031693e-003
2.522476e+003,2.123702e-003
2.524405e+003,2.196327e-003
2.526333e+003,2.200309e-003
2.528261e+003,2.188232e-003
2.530190e+003,2.106166e-003
2.532119e+003,2.167761e-003
2.534047e+003,2.349323e-003
2.535976e+003,2.424121e-003
2.537904e+003,2.469201e-003
2.539833e+003,2.667468e-003
2.541761e+003,2.876449e-003
2.543689e+003,3.108820e-003
2.545618e+003,3.232913e-003
2.547547e+003,3.381217e-003
2.549475e+003,3.281750e-003
2.551404e+003,3.270937e-003
2.553332e+003,3.578218e-003
2.555260e+003,3.651731e-003
2.557189e+003,3.632836e-003
2.559117e+003,3.915543e-003
2.561046e+003,4.110631e-003
2.562975e+003,4.147910e-003
2.564903e+003,4.113834e-003
2.566832e+003,4.121978e-003
2.568760e+003,4.305720e-003
2.570688e+003,4.525594e-003
2.572617e+003,4.782297e-003
2.574546e+003,5.252793e-003
2.576474e+003,5.667973e-003
2.578403e+003,6.112827e-003
2.580331e+003,6.306395e-003
2.582260e+003,6.242812e-003
2.584188e+003,6.017065e-003
2.586116e+003,5.845584e-003
2.588045e+003,5.655807e-003
2.589974e+003,5.503038e-003
2.591902e+003,5.510392e-003
2.593831e+003,5.558586e-003
2.595759e+003,5.560514e-003
2.597688e+003,5.691137e-003
2.599616e+003,5.689006e-003
2.601544e+003,5.765360e-003
2.603473e+003,6.072620e-003
2.605402e+003,6.373785e-003
2.607330e+003,6.640283e-003
2.609259e+003,6.975425e-003
2.611187e+003,7.228794e-003
2.613115e+003,7.258521e-003
2.615044e+003,7.351510e-003
2.616972e+003,7.507302e-003
2.618901e+003,7.552547e-003
2.620830e+003,7.629758e-003
2.622758e+003,7.656712e-003
2.624687e+003,7.608805e-003
2.626615e+003,7.650364e-003
2.628543e+003,7.728439e-003
2.630472e+003,7.803230e-003
2.632400e+003,7.785236e-003
2.634329e+003,7.827705e-003
2.636258e+003,8.014336e-003
2.638186e+003,8.088075e-003
2.640115e+003,8.220246e-003
2.642043e+003,8.457808e-003
2.643971e+003,8.685961e-003
2.645900e+003,8.769371e-003
2.647828e+003,8.796247e-003
2.649757e+003,8.855628e-003
2.651686e+003,9.088891e-003
2.653614e+003,9.329369e-003
2.655542e+003,9.498229e-003
2.657471e+003,9.531079e-003
2.659399e+003,9.376302e-003
2.661328e+003,9.150799e-003
2.663256e+003,8.889453e-003
2.665185e+003,8.617284e-003
2.667114e+003,8.467350e-003
2.669042e+003,8.419929e-003
2.670970e+003,8.489015e-003
2.672899e+003,8.579422e-003
2.674827e+003,8.654423e-003
2.676756e+003,8.633373e-003
2.678685e+003,8.599464e-003
2.680613e+003,8.592965e-003
2.682542e+003,8.652190e-003
2.684470e+003,8.635757e-003
2.686398e+003,8.626580e-003
2.688327e+003,8.758012e-003
2.690255e+003,8.824326e-003
2.692184e+003,8.792732e-003
2.694113e+003,8.744245e-003
2.696041e+003,8.732840e-003
2.697969e+003,8.892972e-003
2.699898e+003,9.089729e-003
2.701826e+003,9.311842e-003
2.703755e+003,9.562958e-003
2.705683e+003,9.801311e-003
2.707612e+003,1.011412e-002
2.709541e+003,1.048879e-002
2.711469e+003,1.089931e-002
2.713397e+003,1.149824e-002
2.715326e+003,1.217762e-002
2.717254e+003,1.290822e-002
2.719183e+003,1.367013e-002
2.721111e+003,1.421677e-002
2.723040e+003,1.419936e-002
2.724969e+003,1.365909e-002
2.726897e+003,1.299742e-002
2.728825e+003,1.239799e-002
2.730754e+003,1.182829e-002
2.732682e+003,1.147022e-002
2.734611e+003,1.119582e-002
2.736539e+003,1.093952e-002
2.738468e+003,1.071418e-002
2.740396e+003,1.048809e-002
2.742325e+003,1.018033e-002
2.744253e+003,9.994930e-003
2.746182e+003,9.936554e-003
2.748110e+003,9.929352e-003
2.750039e+003,9.892216e-003
2.751967e+003,9.873250e-003
2.753896e+003,9.979442e-003
2.755824e+003,1.018252e-002
2.757753e+003,1.036369e-002
2.759681e+003,1.059737e-002
2.761610e+003,1.079779e-002
2.763538e+003,1.099653e-002
2.765467e+003,1.125294e-002
2.767395e+003,1.154449e-002
2.769324e+003,1.170154e-002
2.771252e+003,1.187853e-002
2.773181e+003,1.216527e-002
2.775109e+003,1.253768e-002
2.777038e+003,1.296575e-002
2.778966e+003,1.345676e-002
2.780895e+003,1.399253e-002
2.782823e+003,1.461704e-002
2.784752e+003,1.534582e-002
2.786680e+003,1.613940e-002
2.788609e+003,1.701929e-002
2.790537e+003,1.793859e-002
2.792466e+003,1.876502e-002
2.794394e+003,1.945714e-002
2.796323e+003,2.006042e-002
2.798251e+003,2.075581e-002
2.800180e+003,2.162753e-002
2.802108e+003,2.283638e-002
2.804037e+003,2.434387e-002
2.805965e+003,2.590391e-002
2.807894e+003,2.738654e-002
2.809822e+003,2.879635e-002
2.811751e+003,3.008933e-002
2.813679e+003,3.146933e-002
2.815608e+003,3.320257e-002
2.817536e+003,3.537303e-002
2.819465e+003,3.802919e-002
2.821393e+003,4.134741e-002
2.823322e+003,4.557816e-002
2.825250e+003,5.127323e-002
2.827179e+003,5.948576e-002
2.829107e+003,7.158549e-002
2.831036e+003,8.920734e-002
2.832964e+003,1.123808e-001
2.834893e+003,1.364412e-001
2.836821e+003,1.524369e-001
2.838750e+003,1.540617e-001
2.840678e+003,1.421156e-001
2.842607e+003,1.225533e-001
2.844535e+003,1.023968e-001
2.846464e+003,8.604418e-002
2.848392e+003,7.457858e-002
2.850321e+003,6.722693e-002
2.852249e+003,6.324272e-002
2.854178e+003,6.277331e-002
2.856106e+003,6.670702e-002
2.858035e+003,7.650985e-002
2.859963e+003,9.391900e-002
2.861892e+003,1.182110e-001
2.863820e+003,1.417842e-001
2.865749e+003,1.537146e-001
2.867677e+003,1.521532e-001
2.869606e+003,1.450899e-001
2.871534e+003,1.393656e-001
2.873463e+003,1.377411e-001
2.875391e+003,1.400602e-001
2.877320e+003,1.421228e-001
2.879248e+003,1.404295e-001
2.881177e+003,1.362362e-001
2.883105e+003,1.322219e-001
2.885034e+003,1.294816e-001
2.886962e+003,1.279047e-001
2.888891e+003,1.274794e-001
2.890819e+003,1.288396e-001
2.892748e+003,1.330125e-001
2.894676e+003,1.406385e-001
2.896605e+003,1.518294e-001
2.898533e+003,1.658699e-001
2.900462e+003,1.816553e-001
2.902390e+003,1.983021e-001
2.904319e+003,2.144421e-001
2.906247e+003,2.284667e-001
2.908176e+003,2.408493e-001
2.910104e+003,2.556652e-001
2.912033e+003,2.775356e-001
2.913961e+003,3.046141e-001
2.915890e+003,3.247768e-001
2.917818e+003,3.248441e-001
2.919747e+003,3.060964e-001
2.921675e+003,2.810245e-001
2.923604e+003,2.570120e-001
2.925532e+003,2.328762e-001
2.927461e+003,2.062489e-001
2.929389e+003,1.784047e-001
2.931318e+003,1.528727e-001
2.933246e+003,1.328357e-001
2.935175e+003,1.198870e-001
2.937103e+003,1.148043e-001
2.939032e+003,1.186386e-001
2.940960e+003,1.333497e-001
2.942889e+003,1.603787e-001
2.944817e+003,1.972305e-001
2.946746e+003,2.344872e-001
2.948674e+003,2.573490e-001
2.950603e+003,2.551180e-001
2.952531e+003,2.332211e-001
2.954460e+003,2.092116e-001
2.956388e+003,1.962250e-001
2.958317e+003,1.937956e-001
2.960245e+003,1.910083e-001
2.962174e+003,1.767897e-001
2.964102e+003,1.521212e-001
2.966031e+003,1.257709e-001
2.967959e+003,1.019043e-001
2.969888e+003,8.076367e-002
2.971816e+003,6.276872e-002
2.973745e+003,4.827293e-002
2.975673e+003,3.712330e-002
2.977602e+003,2.857117e-002
2.979530e+003,2.212217e-002
2.981459e+003,1.725701e-002
2.983387e+003,1.346388e-002
2.985316e+003,1.049886e-002
2.987244e+003,8.268703e-003
2.989173e+003,6.491490e-003
2.991101e+003,5.090313e-003
2.993030e+003,3.942056e-003
2.994958e+003,3.042381e-003
2.996887e+003,2.321448e-003
2.998815e+003,1.720596e-003
3.000744e+003,1.229880e-003
3.002672e+003,8.284245e-004
3.004601e+003,4.731640e-004
3.006529e+003,1.314208e-004
3.008458e+003,-1.709368e-004
3.010386e+003,-3.696643e-004
3.012315e+003,-5.406104e-004
3.014243e+003,-7.549077e-004
3.016172e+003,-9.404011e-004
3.018100e+003,-9.954050e-004
3.020029e+003,-1.133470e-003
3.021957e+003,-1.263358e-003
3.023886e+003,-1.352886e-003
3.025814e+003,-1.466461e-003
3.027743e+003,-1.452059e-003
3.029671e+003,-1.458349e-003
3.031600e+003,-1.563439e-003
3.033528e+003,-1.599731e-003
3.035457e+003,-1.657939e-003
3.037385e+003,-1.662856e-003
3.039314e+003,-1.576219e-003
3.041242e+003,-1.474522e-003
3.043171e+003,-1.424229e-003
3.045099e+003,-1.448400e-003
3.047028e+003,-1.522971e-003
3.048956e+003,-1.464620e-003
3.050885e+003,-1.451284e-003
3.052813e+003,-1.427554e-003
3.054742e+003,-1.414085e-003
3.056670e+003,-1.407906e-003
3.058599e+003,-1.397606e-003
3.060527e+003,-1.323720e-003
3.062456e+003,-1.308097e-003
3.064384e+003,-1.374386e-003
3.066313e+003,-1.384081e-003
3.068241e+003,-1.326131e-003
3.070170e+003,-1.252497e-003
3.072098e+003,-1.239702e-003
3.074027e+003,-1.322012e-003
3.075955e+003,-1.340527e-003
3.077884e+003,-1.293058e-003
3.079812e+003,-1.161426e-003
3.081741e+003,-1.097284e-003
3.083669e+003,-1.165466e-003
3.085598e+003,-1.115698e-003
3.087526e+003,-1.093529e-003
3.089455e+003,-1.126787e-003
3.091383e+003,-1.081806e-003
3.093312e+003,-1.054896e-003
3.095240e+003,-1.008466e-003
3.097169e+003,-1.040731e-003
3.099097e+003,-9.660553e-004
3.101026e+003,-8.845031e-004
3.102954e+003,-8.604359e-004
3.104883e+003,-8.305889e-004
3.106811e+003,-7.212758e-004
3.108740e+003,-6.288961e-004
3.110668e+003,-6.267335e-004
3.112597e+003,-6.808806e-004
3.114525e+003,-6.693136e-004
3.116454e+003,-5.949549e-004
3.118382e+003,-6.072819e-004
3.120311e+003,-6.453823e-004
3.122239e+003,-5.437378e-004
3.124168e+003,-3.052223e-004
3.126096e+003,-1.256913e-004
3.128025e+003,-1.432747e-004
3.129953e+003,-1.356695e-004
3.131882e+003,-1.990944e-004
3.133810e+003,-8.222088e-005
3.135739e+003,7.063895e-005
3.137667e+003,1.372825e-004
3.139596e+003,1.972318e-004
3.141524e+003,2.336409e-004
3.143453e+003,2.446547e-004
3.145381e+003,2.684016e-004
3.147310e+003,2.860185e-004
3.149238e+003,3.288165e-004
3.151167e+003,3.233235e-004
3.153095e+003,2.742372e-004
3.155024e+003,2.404042e-004
3.156952e+003,2.981573e-004
3.158881e+003,3.608763e-004
3.160809e+003,3.190245e-004
3.162738e+003,3.752112e-004
3.164666e+003,4.775617e-004
3.166594e+003,5.060472e-004
3.168523e+003,4.558247e-004
3.170452e+003,4.267003e-004
3.172380e+003,4.979745e-004
3.174309e+003,5.062893e-004
3.176237e+003,6.447379e-004
3.178166e+003,8.201282e-004
3.180094e+003,8.165278e-004
3.182022e+003,8.197818e-004
3.183951e+003,8.838102e-004
3.185880e+003,9.727422e-004
3.187808e+003,1.025651e-003
3.189737e+003,1.045803e-003
3.191665e+003,1.068557e-003
3.193594e+003,1.033593e-003
3.195522e+003,9.832792e-004
3.197450e+003,8.849092e-004
3.199379e+003,8.851513e-004
3.201308e+003,9.185355e-004
3.203236e+003,9.364001e-004
3.205165e+003,9.699594e-004
3.207093e+003,9.233914e-004
3.209021e+003,8.290354e-004
3.210950e+003,7.623993e-004
3.212878e+003,6.333794e-004
3.214807e+003,5.207993e-004
3.216736e+003,4.594941e-004
3.218664e+003,4.917718e-004
3.220593e+003,4.725009e-004
3.222521e+003,3.181510e-004
3.224449e+003,2.302602e-004
3.226378e+003,1.568384e-004
3.228307e+003,1.346972e-004
3.230235e+003,1.583640e-004
3.232164e+003,1.448989e-004
3.234092e+003,3.493391e-005
3.236021e+003,-3.076531e-005
3.237949e+003,-4.797801e-005
3.239877e+003,-1.063850e-004
3.241806e+003,-9.045564e-005
3.243735e+003,-1.285225e-004
3.245663e+003,-1.288950e-004
3.247592e+003,-8.023344e-005
3.249520e+003,-2.418086e-005
3.251448e+003,-1.924857e-005
3.253377e+003,1.190044e-005
3.255305e+003,1.101289e-004
3.257234e+003,1.867320e-004
3.259163e+003,2.005771e-004
3.261091e+003,2.061855e-004
3.263020e+003,1.482163e-004
3.264948e+003,1.918767e-004
3.266876e+003,2.704989e-004
3.268805e+003,3.367644e-004
3.270733e+003,2.624989e-004
3.272662e+003,2.579894e-004
3.274591e+003,4.738439e-004
3.276519e+003,4.612673e-004
3.278448e+003,3.152490e-004
3.280376e+003,3.147200e-004
3.282304e+003,3.395304e-004
3.284233e+003,3.601592e-004
3.286161e+003,4.232414e-004
3.288090e+003,5.299747e-004
3.290019e+003,5.460791e-004
3.291947e+003,5.206801e-004
3.293875e+003,4.920252e-004
3.295804e+003,5.108994e-004
3.297732e+003,5.941801e-004
3.299661e+003,5.953237e-004
3.301589e+003,5.027205e-004
3.303518e+003,6.071851e-004
3.305447e+003,6.726440e-004
3.307375e+003,5.579330e-004
3.309303e+003,4.744455e-004
3.311232e+003,5.648229e-004
3.313160e+003,5.459245e-004
3.315089e+003,4.765783e-004
3.317018e+003,5.059130e-004
3.318946e+003,4.901793e-004
3.320875e+003,3.974885e-004
3.322803e+003,4.487764e-004
3.324731e+003,6.037168e-004
3.326660e+003,6.352141e-004
3.328588e+003,6.484445e-004
3.330517e+003,7.934477e-004
3.332446e+003,7.946379e-004
3.334374e+003,7.389169e-004
3.336302e+003,8.666627e-004
3.338231e+003,1.020577e-003
3.340159e+003,1.121270e-003
3.342088e+003,1.151042e-003
3.344016e+003,1.158739e-003
3.345945e+003,1.162590e-003
3.347874e+003,1.113137e-003
3.349802e+003,1.063168e-003
3.351730e+003,1.072841e-003
3.353659e+003,1.226664e-003
3.355587e+003,1.376262e-003
3.357516e+003,1.359385e-003
3.359444e+003,1.370817e-003
3.361373e+003,1.406986e-003
3.363302e+003,1.260594e-003
3.365230e+003,1.157640e-003
3.367158e+003,1.075696e-003
3.369087e+003,1.066405e-003
3.371015e+003,1.066873e-003
3.372944e+003,1.073025e-003
3.374872e+003,1.008367e-003
3.376801e+003,8.894093e-004
3.378729e+003,8.897576e-004
3.380658e+003,8.913577e-004
3.382586e+003,8.208435e-004
3.384515e+003,6.803833e-004
3.386443e+003,6.673466e-004
3.388372e+003,8.072034e-004
3.390300e+003,7.183962e-004
3.392229e+003,6.251428e-004
3.394157e+003,6.588455e-004
3.396086e+003,5.952232e-004
3.398014e+003,5.487166e-004
3.399943e+003,5.896427e-004
3.401871e+003,6.183367e-004
3.403800e+003,6.820727e-004
3.405728e+003,7.248577e-004
3.407657e+003,6.551649e-004
3.409585e+003,6.134491e-004
3.411514e+003,5.772095e-004
3.413442e+003,5.578417e-004
3.415371e+003,6.006490e-004
3.417299e+003,5.290620e-004
3.419228e+003,3.784038e-004
3.421156e+003,4.705451e-004
3.423085e+003,4.728623e-004
3.425013e+003,4.674364e-004
3.426942e+003,5.314611e-004
3.428870e+003,3.604703e-004
3.430799e+003,2.177581e-004
3.432727e+003,3.020968e-004
3.434656e+003,2.944563e-004
3.436584e+003,1.880769e-004
3.438513e+003,2.056304e-004
3.440441e+003,2.214573e-004
3.442370e+003,2.366025e-004
3.444298e+003,2.042595e-004
3.446227e+003,5.882606e-005
3.448155e+003,-6.090850e-006
3.450084e+003,-2.036989e-005
3.452012e+003,1.642294e-005
3.453941e+003,8.434616e-005
3.455869e+003,4.153512e-005
3.457798e+003,-3.361702e-005
3.459726e+003,-3.968738e-005
3.461655e+003,-3.234856e-005
3.463583e+003,-1.026541e-004
3.465512e+003,-9.383261e-005
3.467440e+003,1.132116e-005
3.469369e+003,3.903918e-005
3.471297e+003,-6.943941e-005
3.473226e+003,6.482005e-007
3.475154e+003,6.260909e-005
3.477083e+003,-9.997375e-005
3.479011e+003,-3.254637e-004
3.480940e+003,-2.848469e-004
3.482868e+003,-1.902953e-004
3.484797e+003,-3.336314e-004
3.486725e+003,-3.687665e-004
3.488654e+003,-2.201423e-004
3.490582e+003,-1.382977e-004
3.492511e+003,-1.756344e-004
3.494439e+003,-2.692025e-004
3.496368e+003,-1.892671e-004
3.498296e+003,-2.218708e-004
3.500225e+003,-5.263444e-004
3.502153e+003,-5.852524e-004
3.504082e+003,-3.742483e-004
3.506010e+003,-4.294887e-004
3.507939e+003,-4.936606e-004
3.509867e+003,-3.942922e-004
3.511796e+003,-3.804024e-004
3.513724e+003,-4.421771e-004
3.515653e+003,-4.856549e-004
3.517581e+003,-5.406849e-004
3.519510e+003,-5.794074e-004
3.521438e+003,-6.072558e-004
3.523367e+003,-5.720817e-004
3.525295e+003,-6.632898e-004
3.527224e+003,-8.612163e-004
3.529152e+003,-7.257648e-004
3.531081e+003,-4.232936e-004
3.533009e+003,-5.467944e-004
3.534938e+003,-9.410754e-004
3.536866e+003,-8.728523e-004
3.538795e+003,-7.095002e-004
3.540723e+003,-8.953437e-004
3.542652e+003,-1.135685e-003
3.544580e+003,-1.185907e-003
3.546509e+003,-9.562131e-004
3.548437e+003,-9.914618e-004
3.550366e+003,-1.202710e-003
3.552294e+003,-1.232024e-003
3.554223e+003,-1.130491e-003
3.556151e+003,-1.199104e-003
3.558080e+003,-1.417628e-003
3.560008e+003,-1.406237e-003
3.561937e+003,-1.292963e-003
3.563865e+003,-1.599761e-003
3.565794e+003,-2.241589e-003
3.567722e+003,-2.203373e-003
3.569651e+003,-1.785256e-003
3.571579e+003,-1.519136e-003
3.573508e+003,-1.299636e-003
3.575436e+003,-1.295503e-003
3.577365e+003,-1.531193e-003
3.579293e+003,-1.628218e-003
3.581222e+003,-1.468409e-003
3.583150e+003,-1.458455e-003
3.585079e+003,-2.068294e-003
3.587007e+003,-2.634240e-003
3.588936e+003,-1.961162e-003
3.590864e+003,-1.648029e-003
3.592793e+003,-1.561314e-003
3.594721e+003,-1.364179e-003
3.596650e+003,-1.361908e-003
3.598578e+003,-1.673121e-003
3.600507e+003,-1.846250e-003
3.602435e+003,-1.765380e-003
3.604364e+003,-1.752768e-003
3.606292e+003,-1.886263e-003
3.608221e+003,-1.718277e-003
3.610149e+003,-1.822358e-003
3.612078e+003,-2.110468e-003
3.614006e+003,-1.609689e-003
3.615935e+003,-1.601841e-003
3.617863e+003,-1.878040e-003
3.619792e+003,-1.947014e-003
3.621720e+003,-1.784427e-003
3.623649e+003,-1.472486e-003
3.625577e+003,-1.484951e-003
3.627506e+003,-1.789967e-003
3.629434e+003,-1.426427e-003
3.631363e+003,-1.557073e-003
3.633291e+003,-1.517972e-003
3.635220e+003,-1.046710e-003
3.637148e+003,-1.085728e-003
3.639077e+003,-1.331154e-003
3.641005e+003,-1.480643e-003
3.642934e+003,-1.497617e-003
3.644862e+003,-1.738692e-003
3.646791e+003,-2.619749e-003
3.648719e+003,-3.476817e-003
3.650648e+003,-2.239894e-003
3.652576e+003,-1.499007e-003
3.654505e+003,-1.297515e-003
3.656433e+003,-7.151291e-004
3.658362e+003,-7.412974e-004
3.660290e+003,-1.079343e-003
3.662219e+003,-1.186563e-003
3.664147e+003,-1.134371e-003
3.666076e+003,-1.465803e-003
3.668004e+003,-2.174426e-003
3.669933e+003,-1.392987e-003
3.671861e+003,-1.087666e-003
3.673790e+003,-1.940932e-003
3.675718e+003,-1.694381e-003
3.677647e+003,-1.484705e-003
3.679575e+003,-1.510333e-003
3.681504e+003,-1.074538e-003
3.683432e+003,-5.953293e-004
3.685361e+003,-7.294994e-004
3.687289e+003,-1.224915e-003
3.689218e+003,-1.446772e-003
3.691146e+003,-1.295257e-003
3.693075e+003,-1.021728e-003
3.695003e+003,-6.674081e-004
3.696932e+003,-1.697894e-004
3.698860e+003,-2.573952e-004
3.700789e+003,-5.517118e-004
3.702717e+003,-6.086417e-004
3.704646e+003,-4.852954e-004
3.706574e+003,-4.222989e-004
3.708503e+003,-8.530486e-004
3.710431e+003,-1.585178e-003
3.712360e+003,-1.176210e-003
3.714288e+003,-5.137920e-004
3.716217e+003,-3.655888e-004
3.718145e+003,-2.955757e-004
3.720074e+003,-3.906842e-004
3.722002e+003,-7.626787e-004
3.723931e+003,-1.011485e-003
3.725859e+003,-9.404477e-004
3.727788e+003,-3.361180e-004
3.729716e+003,-2.448875e-004
3.731645e+003,-2.849270e-004
3.733573e+003,-1.178425e-003
3.735502e+003,-1.771882e-003
3.737430e+003,-9.510964e-004
3.739359e+003,-5.665477e-004
3.741287e+003,-7.303376e-004
3.743216e+003,-7.259641e-004
3.745144e+003,4.960224e-004
3.747073e+003,6.397069e-005
3.749001e+003,-8.449014e-004
3.750930e+003,-1.065128e-003
3.752858e+003,-1.422800e-004
3.754787e+003,3.042631e-005
3.756715e+003,1.845732e-004
3.758644e+003,8.116215e-004
3.760572e+003,1.053328e-003
3.762501e+003,5.363245e-004
3.764429e+003,5.497262e-004
3.766358e+003,7.335432e-004
3.768286e+003,1.980048e-004
3.770215e+003,1.334101e-004
3.772143e+003,3.862102e-004
3.774072e+003,6.120503e-004
3.776000e+003,6.005391e-004
3.777929e+003,5.738493e-004
3.779857e+003,8.734893e-004
3.781786e+003,6.590635e-004
3.783714e+003,4.192963e-004
3.785643e+003,4.182439e-004
3.787571e+003,3.802571e-004
3.789500e+003,3.169216e-004
3.791428e+003,2.431553e-004
3.793357e+003,1.668856e-004
3.795285e+003,4.191734e-004
3.797214e+003,4.800968e-004
3.799142e+003,-2.049897e-004
3.801071e+003,6.396323e-005
3.802999e+003,2.752505e-004
3.804927e+003,-4.432462e-004
3.806856e+003,-1.872722e-004
3.808785e+003,5.325656e-004
3.810713e+003,6.229281e-004
3.812642e+003,4.680734e-004
3.814570e+003,5.812682e-004
3.816499e+003,1.026979e-003
3.818427e+003,2.217162e-004
3.820355e+003,-5.001202e-004
3.822284e+003,-2.402440e-005
3.824213e+003,-8.303858e-005
3.826141e+003,8.036010e-005
3.828070e+003,5.128141e-004
3.829998e+003,5.529355e-004
3.831927e+003,6.956253e-004
3.833855e+003,7.017273e-004
3.835783e+003,2.476349e-004
3.837712e+003,-3.939308e-004
3.839641e+003,-6.561186e-004
3.841569e+003,-6.666444e-004
3.843498e+003,-2.483297e-004
3.845426e+003,5.292073e-004
3.847354e+003,9.748116e-004
3.849283e+003,1.163319e-003
3.851211e+003,6.227475e-004
3.853140e+003,-4.425459e-004
3.855069e+003,-6.117355e-004
3.856997e+003,-3.763642e-004
3.858926e+003,1.858454e-004
3.860854e+003,7.829443e-004
3.862782e+003,9.907465e-004
3.864711e+003,1.159770e-003
3.866640e+003,7.686038e-004
3.868568e+003,1.585335e-004
3.870497e+003,6.956421e-005
3.872425e+003,-1.998600e-004
3.874354e+003,3.891736e-004
3.876282e+003,7.642079e-004
3.878210e+003,8.597150e-004
3.880139e+003,1.341937e-003
3.882068e+003,1.053255e-003
3.883996e+003,4.272517e-004
3.885925e+003,1.043359e-003
3.887853e+003,1.026262e-003
3.889781e+003,3.865790e-004
3.891710e+003,5.854014e-004
3.893638e+003,9.891707e-004
3.895567e+003,8.610357e-004
3.897496e+003,7.156767e-004
3.899424e+003,9.782556e-004
3.901353e+003,7.906631e-004
3.903281e+003,2.802461e-004
3.905209e+003,5.721767e-004
3.907138e+003,8.118246e-004
3.909066e+003,1.038687e-003
3.910995e+003,1.496585e-003
3.912924e+003,1.716562e-003
3.914852e+003,1.245482e-003
3.916781e+003,8.117370e-004
3.918709e+003,8.201264e-004
3.920637e+003,8.606669e-004
3.922566e+003,7.106159e-004
3.924494e+003,1.158180e-003
3.926423e+003,1.498377e-003
3.928352e+003,1.343846e-003
3.930280e+003,1.097102e-003
3.932208e+003,1.071520e-003
3.934137e+003,1.020817e-003
3.936065e+003,1.023995e-003
3.937994e+003,1.192404e-003
3.939922e+003,1.143791e-003
3.941851e+003,1.046170e-003
3.943780e+003,1.155583e-003
3.945708e+003,9.699631e-004
3.947636e+003,7.860437e-004
3.949565e+003,1.028107e-003
3.951493e+003,1.182267e-003
3.953422e+003,1.079276e-003
3.955351e+003,1.130266e-003
3.957279e+003,1.330787e-003
3.959208e+003,1.377137e-003
3.961136e+003,1.276558e-003
3.963064e+003,1.249464e-003
3.964993e+003,1.180315e-003
3.966921e+003,1.090745e-003
3.968850e+003,1.156488e-003
3.970779e+003,1.317071e-003
3.972707e+003,1.371993e-003
3.974635e+003,1.312234e-003
3.976564e+003,1.273634e-003
3.978492e+003,1.245193e-003
3.980421e+003,1.296679e-003
3.982349e+003,1.354124e-003
3.984278e+003,1.482116e-003
3.986207e+003,1.498392e-003
3.988135e+003,1.516964e-003
3.990063e+003,1.503762e-003
3.991992e+003,1.473557e-003
3.993920e+003,1.371179e-003
3.995849e+003,1.401179e-003
3.997777e+003,1.534065e-003
3.999706e+003,1.515685e-003
4.001635e+003,0.000000e+000
