3.991992e+002,0.000000e+000
4.011277e+002,0.000000e+000
4.030562e+002,0.000000e+000
4.049846e+002,0.000000e+000
4.069131e+002,0.000000e+000
4.088416e+002,0.000000e+000
4.107701e+002,0.000000e+000
4.126986e+002,0.000000e+000
4.146271e+002,0.000000e+000
4.165556e+002,0.000000e+000
4.184841e+002,0.000000e+000
4.204126e+002,0.000000e+000
4.223411e+002,0.000000e+000
4.242697e+002,0.000000e+000
4.261982e+002,0.000000e+000
4.281266e+002,0.000000e+000
4.300551e+002,0.000000e+000
4.319836e+002,0.000000e+000
4.339121e+002,0.000000e+000
4.358406e+002,0.000000e+000
4.377691e+002,0.000000e+000
4.396976e+002,0.000000e+000
4.416261e+002,0.000000e+000
4.435546e+002,0.000000e+000
4.454831e+002,0.000000e+000
4.474116e+002,0.000000e+000
4.493401e+002,0.000000e+000
4.512686e+002,0.000000e+000
4.531971e+002,0.000000e+000
4.551256e+002,0.000000e+000
4.570541e+002,0.000000e+000
4.589826e+002,0.000000e+000
4.609111e+002,0.000000e+000
4.628396e+002,0.000000e+000
4.647681e+002,0.000000e+000
4.666966e+002,0.000000e+000
4.686251e+002,0.000000e+000
4.705536e+002,0.000000e+000
4.724821e+002,0.000000e+000
4.744106e+002,0.000000e+000
4.763391e+002,0.000000e+000
4.782676e+002,0.000000e+000
4.801961e+002,0.000000e+000
4.821246e+002,0.000000e+000
4.840531e+002,0.000000e+000
4.859816e+002,0.000000e+000
4.879101e+002,0.000000e+000
4.898386e+002,0.000000e+000
4.917671e+002,0.000000e+000
4.936956e+002,0.000000e+000
4.956241e+002,0.000000e+000
4.975526e+002,0.000000e+000
4.994811e+002,0.000000e+000
5.014096e+002,0.000000e+000
5.033381e+002,0.000000e+000
5.052666e+002,0.000000e+000
5.071951e+002,0.000000e+000
5.091236e+002,0.000000e+000
5.110521e+002,0.000000e+000
5.129806e+002,0.000000e+000
5.149091e+002,0.000000e+000
5.168376e+002,0.000000e+000
5.187661e+002,0.000000e+000
5.206946e+002,0.000000e+000
5.226230e+002,0.000000e+000
5.245516e+002,-9.737909e-006
5.264800e+002,3.130548e-005
5.284086e+002,-8.122344e-005
5.303370e+002,-1.697519e-004
5.322656e+002,-2.274755e-004
5.341940e+002,-3.423316e-004
5.361226e+002,-4.986364e-004
5.380510e+002,-5.534356e-004
5.399796e+002,-6.487165e-004
5.419081e+002,-4.427421e-004
5.438365e+002,-3.709977e-004
5.457650e+002,-4.957484e-004
5.476935e+002,-5.568771e-004
5.496221e+002,-5.421056e-004
5.515505e+002,-4.786761e-004
5.534790e+002,-3.917373e-004
5.554075e+002,-5.237688e-004
5.573361e+002,-6.046547e-004
5.592645e+002,-5.457578e-004
5.611931e+002,-5.195078e-004
5.631215e+002,-5.384679e-004
5.650500e+002,-4.066746e-004
5.669785e+002,-3.278577e-004
5.689070e+002,-2.739890e-004
5.708355e+002,-3.748022e-004
5.727640e+002,-5.002662e-004
5.746925e+002,-4.088595e-004
5.766210e+002,-3.045185e-004
5.785495e+002,-4.530994e-004
5.804780e+002,-5.013049e-004
5.824065e+002,-5.154628e-004
5.843350e+002,-3.789850e-004
5.862635e+002,-2.293924e-004
5.881920e+002,-1.923449e-004
5.901205e+002,-1.823122e-004
5.920490e+002,-1.593060e-004
5.939775e+002,-3.726971e-004
5.959060e+002,-3.537950e-004
5.978345e+002,-2.804548e-004
5.997630e+002,-1.297030e-004
6.016915e+002,-6.070617e-005
6.036200e+002,-4.350697e-005
6.055485e+002,-9.331922e-005
6.074770e+002,-7.756473e-005
6.094055e+002,-1.248559e-004
6.113340e+002,-2.270606e-004
6.132625e+002,-2.671427e-004
6.151910e+002,-2.233158e-004
6.171195e+002,-3.550176e-004
6.190480e+002,-2.971161e-004
6.209765e+002,-1.380462e-004
6.229050e+002,-8.496456e-006
6.248335e+002,7.746113e-005
6.267620e+002,1.394791e-004
6.286905e+002,6.093178e-005
6.306190e+002,1.899339e-005
6.325475e+002,9.608199e-005
6.344760e+002,1.876594e-004
6.364045e+002,2.196745e-004
6.383330e+002,3.435439e-004
6.402615e+002,2.898420e-004
6.421899e+002,1.553243e-004
6.441185e+002,1.870380e-004
6.460470e+002,2.559286e-004
6.479755e+002,2.424975e-004
6.499039e+002,2.630686e-004
6.518325e+002,2.194901e-004
6.537610e+002,2.439113e-004
6.556895e+002,2.544269e-004
6.576179e+002,3.314340e-004
6.595464e+002,2.984428e-004
6.614750e+002,2.617373e-004
6.634034e+002,2.343412e-004
6.653319e+002,2.659815e-004
6.672604e+002,2.753343e-004
6.691890e+002,4.259029e-004
6.711174e+002,4.793897e-004
6.730460e+002,4.546093e-004
6.749745e+002,3.795300e-004
6.769030e+002,4.472223e-004
6.788314e+002,4.946124e-004
6.807599e+002,5.652930e-004
6.826885e+002,5.086767e-004
6.846169e+002,4.399053e-004
6.865454e+002,4.869015e-004
6.884739e+002,5.835765e-004
6.904025e+002,5.492212e-004
6.923309e+002,5.926189e-004
6.942594e+002,7.014910e-004
6.961879e+002,8.691184e-004
6.981165e+002,9.428663e-004
7.000449e+002,9.190508e-004
7.019734e+002,8.315579e-004
7.039019e+002,7.927804e-004
7.058304e+002,8.519317e-004
7.077589e+002,9.488715e-004
7.096874e+002,9.751334e-004
7.116159e+002,9.867225e-004
7.135444e+002,1.014583e-003
7.154729e+002,1.091416e-003
7.174014e+002,1.215233e-003
7.193299e+002,1.388204e-003
7.212584e+002,1.387186e-003
7.231869e+002,1.389151e-003
7.251154e+002,1.331180e-003
7.270439e+002,1.334094e-003
7.289724e+002,1.260821e-003
7.309009e+002,1.201040e-003
7.328294e+002,1.097267e-003
7.347579e+002,1.037500e-003
7.366864e+002,9.893167e-004
7.386149e+002,1.030952e-003
7.405434e+002,1.076842e-003
7.424719e+002,1.133304e-003
7.444004e+002,1.097850e-003
7.463289e+002,1.137539e-003
7.482574e+002,1.115271e-003
7.501859e+002,9.961799e-004
7.521144e+002,9.896522e-004
7.540428e+002,1.112067e-003
7.559714e+002,1.122395e-003
7.578999e+002,1.207708e-003
7.598284e+002,1.255311e-003
7.617568e+002,1.247989e-003
7.636854e+002,1.251134e-003
7.656139e+002,1.299389e-003
7.675424e+002,1.295918e-003
7.694709e+002,1.452504e-003
7.713994e+002,1.441011e-003
7.733279e+002,1.428460e-003
7.752563e+002,1.466788e-003
7.771849e+002,1.543586e-003
7.791134e+002,1.651169e-003
7.810419e+002,1.790764e-003
7.829703e+002,1.812794e-003
7.848989e+002,1.945621e-003
7.868274e+002,2.199630e-003
7.887559e+002,2.470494e-003
7.906843e+002,2.673254e-003
7.926129e+002,2.972473e-003
7.945414e+002,3.275875e-003
7.964698e+002,3.620815e-003
7.983983e+002,3.960900e-003
8.003268e+002,4.417226e-003
8.022554e+002,5.010406e-003
8.041838e+002,6.172645e-003
8.061123e+002,8.092116e-003
8.080408e+002,9.724950e-003
8.099694e+002,9.534089e-003
8.118978e+002,7.805252e-003
8.138263e+002,5.884369e-003
8.157548e+002,4.706983e-003
8.176833e+002,4.089837e-003
8.196118e+002,3.891357e-003
8.215403e+002,3.859548e-003
8.234689e+002,3.897294e-003
8.253973e+002,3.916787e-003
8.273258e+002,4.141721e-003
8.292543e+002,4.444921e-003
8.311829e+002,5.019814e-003
8.331113e+002,5.640271e-003
8.350398e+002,6.861684e-003
8.369683e+002,1.017729e-002
8.388969e+002,1.744523e-002
8.408253e+002,2.164810e-002
8.427538e+002,1.593802e-002
8.446823e+002,9.034728e-003
8.466108e+002,5.986008e-003
8.485393e+002,4.695244e-003
8.504678e+002,4.146211e-003
8.523963e+002,3.878267e-003
8.543248e+002,3.624793e-003
8.562533e+002,3.433963e-003
8.581818e+002,3.311935e-003
8.601103e+002,3.216527e-003
8.620388e+002,3.151848e-003
8.639673e+002,3.104962e-003
8.658958e+002,3.085228e-003
8.678243e+002,3.028614e-003
8.697528e+002,3.052551e-003
8.716813e+002,2.982185e-003
8.736098e+002,2.925875e-003
8.755383e+002,2.874224e-003
8.774668e+002,2.923154e-003
8.793953e+002,2.922438e-003
8.813238e+002,2.951231e-003
8.832523e+002,3.024980e-003
8.851808e+002,3.149388e-003
8.871093e+002,3.320712e-003
8.890378e+002,3.520698e-003
8.909663e+002,3.796793e-003
8.928948e+002,4.495004e-003
8.948232e+002,5.789777e-003
8.967518e+002,7.726211e-003
8.986803e+002,9.050478e-003
9.006088e+002,8.451638e-003
9.025372e+002,6.389983e-003
9.044658e+002,4.617194e-003
9.063943e+002,3.676065e-003
9.083228e+002,3.315325e-003
9.102512e+002,3.200279e-003
9.121797e+002,3.142822e-003
9.141083e+002,3.016928e-003
9.160367e+002,2.958750e-003
9.179653e+002,2.865670e-003
9.198937e+002,2.852377e-003
9.218223e+002,2.833499e-003
9.237507e+002,2.884446e-003
9.256793e+002,2.894242e-003
9.276077e+002,2.954824e-003
9.295363e+002,2.991178e-003
9.314647e+002,3.105463e-003
9.333932e+002,3.341234e-003
9.353217e+002,3.776759e-003
9.372502e+002,4.316058e-003
9.391787e+002,4.909090e-003
9.411072e+002,4.909749e-003
9.430358e+002,4.594320e-003
9.449642e+002,4.238642e-003
9.468928e+002,4.067141e-003
9.488212e+002,4.093322e-003
9.507498e+002,4.257198e-003
9.526782e+002,4.385862e-003
9.546068e+002,4.685769e-003
9.565352e+002,5.077158e-003
9.584637e+002,5.601809e-003
9.603922e+002,6.249124e-003
9.623207e+002,7.099672e-003
9.642492e+002,8.326271e-003
9.661777e+002,1.065302e-002
9.681062e+002,1.497652e-002
9.700347e+002,2.196280e-002
9.719632e+002,2.731909e-002
9.738917e+002,2.559787e-002
9.758202e+002,1.944156e-002
9.777487e+002,1.370299e-002
9.796772e+002,9.790027e-003
9.816057e+002,7.701062e-003
9.835342e+002,6.784535e-003
9.854627e+002,6.610024e-003
9.873912e+002,6.966662e-003
9.893197e+002,8.037108e-003
9.912482e+002,1.011018e-002
9.931767e+002,1.402801e-002
9.951052e+002,1.988541e-002
9.970337e+002,2.433510e-002
9.989622e+002,2.228404e-002
1.000891e+003,1.593334e-002
1.002819e+003,1.077489e-002
1.004748e+003,8.030258e-003
1.006676e+003,6.589287e-003
1.008605e+003,5.813676e-003
1.010533e+003,5.332321e-003
1.012462e+003,5.016572e-003
1.014390e+003,4.834700e-003
1.016319e+003,4.831847e-003
1.018247e+003,4.716102e-003
1.020176e+003,4.615621e-003
1.022104e+003,4.544585e-003
1.024033e+003,4.520731e-003
1.025961e+003,4.489842e-003
1.027890e+003,4.570263e-003
1.029818e+003,4.635214e-003
1.031747e+003,4.782583e-003
1.033675e+003,4.973205e-003
1.035604e+003,5.162188e-003
1.037532e+003,5.219002e-003
1.039461e+003,5.357721e-003
1.041389e+003,5.667436e-003
1.043318e+003,6.111052e-003
1.045246e+003,6.160202e-003
1.047175e+003,5.785943e-003
1.049103e+003,5.311499e-003
1.051032e+003,5.023873e-003
1.052960e+003,4.872099e-003
1.054889e+003,4.837379e-003
1.056817e+003,4.748815e-003
1.058746e+003,4.747614e-003
1.060674e+003,4.736129e-003
1.062603e+003,4.733363e-003
1.064531e+003,4.700497e-003
1.066460e+003,4.652803e-003
1.068388e+003,4.591146e-003
1.070317e+003,4.645477e-003
1.072245e+003,4.700767e-003
1.074174e+003,4.783158e-003
1.076102e+003,4.850424e-003
1.078031e+003,5.055673e-003
1.079959e+003,5.215136e-003
1.081888e+003,5.329652e-003
1.083816e+003,5.420861e-003
1.085745e+003,5.526933e-003
1.087673e+003,5.594797e-003
1.089602e+003,5.739158e-003
1.091530e+003,5.847700e-003
1.093459e+003,6.131834e-003
1.095387e+003,6.531236e-003
1.097316e+003,7.065034e-003
1.099244e+003,7.706196e-003
1.101173e+003,8.327794e-003
1.103101e+003,8.360438e-003
1.105030e+003,7.779789e-003
1.106958e+003,6.985639e-003
1.108887e+003,6.438257e-003
1.110815e+003,6.139776e-003
1.112744e+003,6.014059e-003
1.114672e+003,5.932513e-003
1.116601e+003,5.898612e-003
1.118529e+003,5.821713e-003
1.120458e+003,5.777411e-003
1.122386e+003,5.674065e-003
1.124315e+003,5.601106e-003
1.126243e+003,5.546316e-003
1.128172e+003,5.579634e-003
1.130100e+003,5.716564e-003
1.132029e+003,6.028433e-003
1.133957e+003,6.321476e-003
1.135885e+003,6.711957e-003
1.137814e+003,7.202505e-003
1.139743e+003,7.837040e-003
1.141671e+003,8.577874e-003
1.143600e+003,9.535528e-003
1.145528e+003,1.060887e-002
1.147457e+003,1.197148e-002
1.149385e+003,1.351236e-002
1.151314e+003,1.490914e-002
1.153242e+003,1.574057e-002
1.155171e+003,1.632706e-002
1.157099e+003,1.700272e-002
1.159028e+003,1.812347e-002
1.160956e+003,1.982986e-002
1.162885e+003,2.234747e-002
1.164813e+003,2.538031e-002
1.166742e+003,2.729123e-002
1.168670e+003,2.533797e-002
1.170599e+003,1.998368e-002
1.172527e+003,1.446256e-002
1.174456e+003,1.075726e-002
1.176384e+003,8.577828e-003
1.178313e+003,7.340798e-003
1.180241e+003,6.600248e-003
1.182170e+003,6.180861e-003
1.184098e+003,5.880764e-003
1.186027e+003,5.786926e-003
1.187955e+003,5.757337e-003
1.189884e+003,5.809311e-003
1.191812e+003,5.847276e-003
1.193740e+003,5.925199e-003
1.195669e+003,5.958200e-003
1.197598e+003,6.068246e-003
1.199526e+003,6.155255e-003
1.201455e+003,6.295935e-003
1.203383e+003,6.430550e-003
1.205312e+003,6.637521e-003
1.207240e+003,6.828556e-003
1.209168e+003,7.134972e-003
1.211097e+003,7.440216e-003
1.213026e+003,7.795217e-003
1.214954e+003,8.168811e-003
1.216883e+003,8.575649e-003
1.218811e+003,8.782438e-003
1.220740e+003,8.796806e-003
1.222668e+003,8.486773e-003
1.224596e+003,8.203121e-003
1.226525e+003,8.063596e-003
1.228453e+003,8.088919e-003
1.230382e+003,8.107397e-003
1.232311e+003,8.185883e-003
1.234239e+003,8.178459e-003
1.236167e+003,8.211985e-003
1.238096e+003,8.231120e-003
1.240025e+003,8.290287e-003
1.241953e+003,8.277964e-003
1.243882e+003,8.363552e-003
1.245810e+003,8.384237e-003
1.247739e+003,8.494366e-003
1.249667e+003,8.735579e-003
1.251595e+003,9.483491e-003
1.253524e+003,1.062801e-002
1.255453e+003,1.107676e-002
1.257381e+003,9.972334e-003
1.259310e+003,8.582112e-003
1.261238e+003,7.525357e-003
1.263167e+003,6.917633e-003
1.265095e+003,6.449848e-003
1.267023e+003,6.158493e-003
1.268952e+003,5.975613e-003
1.270880e+003,5.920889e-003
1.272809e+003,5.808632e-003
1.274738e+003,5.839291e-003
1.276666e+003,5.862954e-003
1.278594e+003,5.969231e-003
1.280523e+003,6.068256e-003
1.282451e+003,6.243304e-003
1.284380e+003,6.375665e-003
1.286308e+003,6.669093e-003
1.288237e+003,6.987424e-003
1.290166e+003,7.443609e-003
1.292094e+003,8.051744e-003
1.294022e+003,8.733613e-003
1.295951e+003,9.071354e-003
1.297879e+003,9.096421e-003
1.299808e+003,9.179700e-003
1.301736e+003,1.015981e-002
1.303665e+003,1.131864e-002
1.305594e+003,1.069865e-002
1.307522e+003,8.575357e-003
1.309450e+003,7.209481e-003
1.311379e+003,6.725780e-003
1.313307e+003,6.756600e-003
1.315236e+003,6.783518e-003
1.317164e+003,7.056767e-003
1.319093e+003,7.345626e-003
1.321021e+003,7.692503e-003
1.322950e+003,8.174076e-003
1.324878e+003,8.992895e-003
1.326807e+003,9.520330e-003
1.328735e+003,9.939120e-003
1.330664e+003,9.729729e-003
1.332592e+003,9.204514e-003
1.334521e+003,8.721687e-003
1.336449e+003,8.782970e-003
1.338378e+003,9.133452e-003
1.340306e+003,9.683589e-003
1.342235e+003,9.753614e-003
1.344163e+003,1.040341e-002
1.346092e+003,1.130703e-002
1.348021e+003,1.278834e-002
1.349949e+003,1.465327e-002
1.351877e+003,1.749821e-002
1.353806e+003,2.166570e-002
1.355734e+003,2.758914e-002
1.357663e+003,3.184575e-002
1.359591e+003,3.221758e-002
1.361520e+003,2.904922e-002
1.363448e+003,2.641990e-002
1.365377e+003,2.606352e-002
1.367305e+003,3.065489e-002
1.369234e+003,4.348918e-002
1.371162e+003,6.689927e-002
1.373091e+003,1.004771e-001
1.375019e+003,1.295615e-001
1.376948e+003,1.148852e-001
1.378876e+003,7.838020e-002
1.380805e+003,4.832878e-002
1.382733e+003,2.933987e-002
1.384662e+003,1.850065e-002
1.386590e+003,1.289623e-002
1.388519e+003,9.939609e-003
1.390447e+003,8.368704e-003
1.392376e+003,7.773392e-003
1.394304e+003,7.566514e-003
1.396233e+003,7.584659e-003
1.398161e+003,7.365449e-003
1.400090e+003,7.289412e-003
1.402018e+003,6.835767e-003
1.403947e+003,6.988547e-003
1.405875e+003,7.084212e-003
1.407804e+003,7.114450e-003
1.409732e+003,7.198944e-003
1.411661e+003,7.420633e-003
1.413589e+003,7.505281e-003
1.415518e+003,7.924634e-003
1.417446e+003,8.605195e-003
1.419375e+003,9.484559e-003
1.421303e+003,9.435386e-003
1.423232e+003,9.807812e-003
1.425160e+003,1.068281e-002
1.427089e+003,1.162584e-002
1.429017e+003,1.389040e-002
1.430946e+003,1.851123e-002
1.432874e+003,2.472274e-002
1.434803e+003,2.977530e-002
1.436731e+003,3.103920e-002
1.438660e+003,3.043254e-002
1.440588e+003,3.235951e-002
1.442517e+003,3.787940e-002
1.444445e+003,4.710016e-002
1.446374e+003,5.876389e-002
1.448302e+003,7.181752e-002
1.450231e+003,7.765077e-002
1.452159e+003,7.928833e-002
1.454088e+003,7.911476e-002
1.456016e+003,7.947285e-002
1.457945e+003,7.768741e-002
1.459873e+003,7.447410e-002
1.461802e+003,6.994659e-002
1.463730e+003,6.383152e-002
1.465659e+003,5.172859e-002
1.467587e+003,4.124833e-002
1.469516e+003,3.250015e-002
1.471444e+003,2.552195e-002
1.473373e+003,1.762399e-002
1.475301e+003,1.355467e-002
1.477230e+003,1.036331e-002
1.479158e+003,8.514207e-003
1.481087e+003,7.278660e-003
1.483015e+003,6.203514e-003
1.484944e+003,5.424303e-003
1.486872e+003,5.347374e-003
1.488801e+003,5.622552e-003
1.490729e+003,5.421189e-003
1.492658e+003,4.337494e-003
1.494586e+003,3.930001e-003
1.496515e+003,4.163605e-003
1.498443e+003,4.236227e-003
1.500372e+003,3.916091e-003
1.502300e+003,3.513039e-003
1.504229e+003,2.965326e-003
1.506157e+003,3.665552e-003
1.508086e+003,5.387517e-003
1.510014e+003,4.531818e-003
1.511943e+003,3.784280e-003
1.513871e+003,3.460112e-003
1.515800e+003,3.639508e-003
1.517728e+003,3.757423e-003
1.519657e+003,3.492746e-003
1.521585e+003,4.088475e-003
1.523514e+003,3.870735e-003
1.525442e+003,3.672204e-003
1.527371e+003,3.683168e-003
1.529299e+003,3.332946e-003
1.531228e+003,3.010562e-003
1.533156e+003,3.496731e-003
1.535085e+003,3.354345e-003
1.537013e+003,2.731304e-003
1.538942e+003,2.975334e-003
1.540870e+003,4.716031e-003
1.542799e+003,4.584691e-003
1.544727e+003,4.300908e-003
1.546656e+003,3.371632e-003
1.548584e+003,3.187161e-003
1.550513e+003,3.364177e-003
1.552441e+003,3.075604e-003
1.554370e+003,3.159221e-003
1.556298e+003,2.957277e-003
1.558227e+003,3.343035e-003
1.560155e+003,4.786879e-003
1.562084e+003,3.456884e-003
1.564012e+003,2.924341e-003
1.565941e+003,2.734427e-003
1.567869e+003,2.593879e-003
1.569798e+003,3.092290e-003
1.571726e+003,2.870888e-003
1.573655e+003,2.368259e-003
1.575583e+003,2.865923e-003
1.577512e+003,3.463727e-003
1.579440e+003,2.831232e-003
1.581369e+003,2.407547e-003
1.583297e+003,2.314672e-003
1.585226e+003,2.301404e-003
1.587154e+003,2.336091e-003
1.589083e+003,2.473344e-003
1.591011e+003,2.549847e-003
1.592940e+003,2.504420e-003
1.594868e+003,2.571266e-003
1.596797e+003,2.588442e-003
1.598725e+003,2.508300e-003
1.600654e+003,2.474402e-003
1.602582e+003,2.528398e-003
1.604511e+003,2.604693e-003
1.606439e+003,2.810999e-003
1.608368e+003,2.993218e-003
1.610296e+003,2.923951e-003
1.612225e+003,2.729021e-003
1.614153e+003,2.576148e-003
1.616082e+003,3.037969e-003
1.618010e+003,3.448420e-003
1.619939e+003,2.973931e-003
1.621867e+003,2.947954e-003
1.623796e+003,3.447430e-003
1.625724e+003,3.333431e-003
1.627653e+003,3.395592e-003
1.629581e+003,3.321930e-003
1.631510e+003,2.925219e-003
1.633438e+003,2.635156e-003
1.635367e+003,3.619678e-003
1.637295e+003,4.429853e-003
1.639224e+003,3.663590e-003
1.641152e+003,3.286090e-003
1.643081e+003,3.209441e-003
1.645009e+003,3.331611e-003
1.646938e+003,4.499709e-003
1.648866e+003,4.135241e-003
1.650795e+003,3.109504e-003
1.652723e+003,3.444324e-003
1.654652e+003,4.802045e-003
1.656580e+003,3.799628e-003
1.658509e+003,3.229422e-003
1.660437e+003,3.066602e-003
1.662366e+003,3.182704e-003
1.664294e+003,3.262773e-003
1.666223e+003,2.954110e-003
1.668151e+003,3.073896e-003
1.670080e+003,3.698869e-003
1.672008e+003,3.418599e-003
1.673937e+003,3.194694e-003
1.675865e+003,3.455466e-003
1.677794e+003,3.122686e-003
1.679722e+003,3.085182e-003
1.681651e+003,2.903477e-003
1.683579e+003,3.274410e-003
1.685508e+003,4.085369e-003
1.687436e+003,3.587981e-003
1.689365e+003,3.413122e-003
1.691293e+003,3.025742e-003
1.693222e+003,2.478687e-003
1.695150e+003,2.770716e-003
1.697079e+003,3.561239e-003
1.699007e+003,3.109013e-003
1.700936e+003,3.559132e-003
1.702864e+003,3.431235e-003
1.704793e+003,3.307482e-003
1.706721e+003,3.447121e-003
1.708650e+003,3.031119e-003
1.710578e+003,2.725103e-003
1.712507e+003,2.541456e-003
1.714435e+003,2.892003e-003
1.716364e+003,3.539781e-003
1.718292e+003,4.069005e-003
1.720221e+003,3.223463e-003
1.722149e+003,2.808216e-003
1.724078e+003,2.821746e-003
1.726006e+003,2.589973e-003
1.727935e+003,2.530049e-003
1.729863e+003,3.056156e-003
1.731792e+003,3.208449e-003
1.733720e+003,3.889978e-003
1.735649e+003,4.454929e-003
1.737577e+003,4.127798e-003
1.739506e+003,4.698448e-003
1.741434e+003,5.409453e-003
1.743363e+003,5.889568e-003
1.745291e+003,6.237324e-003
1.747220e+003,6.557018e-003
1.749148e+003,6.660466e-003
1.751077e+003,6.290076e-003
1.753005e+003,5.155487e-003
1.754934e+003,4.067693e-003
1.756862e+003,3.543086e-003
1.758791e+003,2.895394e-003
1.760719e+003,2.537772e-003
1.762648e+003,2.505149e-003
1.764576e+003,1.865012e-003
1.766505e+003,1.481151e-003
1.768433e+003,1.576384e-003
1.770362e+003,1.609470e-003
1.772290e+003,2.201065e-003
1.774219e+003,2.076367e-003
1.776147e+003,1.448550e-003
1.778076e+003,1.096757e-003
1.780004e+003,1.328469e-003
1.781933e+003,1.333072e-003
1.783861e+003,1.227800e-003
1.785790e+003,1.228352e-003
1.787718e+003,1.012114e-003
1.789646e+003,8.852228e-004
1.791575e+003,1.407191e-003
1.793504e+003,1.627123e-003
1.795432e+003,1.271809e-003
1.797361e+003,8.591022e-004
1.799289e+003,8.902268e-004
1.801218e+003,1.095370e-003
1.803146e+003,8.828475e-004
1.805074e+003,6.352069e-004
1.807003e+003,5.562855e-004
1.808932e+003,5.159879e-004
1.810860e+003,6.046838e-004
1.812789e+003,4.289588e-004
1.814717e+003,-1.450881e-004
1.816646e+003,-4.450467e-004
1.818574e+003,-1.143601e-004
1.820502e+003,2.187215e-004
1.822431e+003,2.545568e-004
1.824360e+003,3.261220e-004
1.826288e+003,3.825529e-004
1.828217e+003,3.001187e-004
1.830145e+003,6.626663e-004
1.832073e+003,2.747410e-004
1.834002e+003,-1.522133e-004
1.835931e+003,-2.106483e-004
1.837859e+003,-2.093522e-004
1.839788e+003,-2.338795e-004
1.841716e+003,-1.573069e-004
1.843645e+003,7.209578e-005
1.845573e+003,2.672381e-004
1.847501e+003,3.600528e-005
1.849430e+003,-2.043043e-004
1.851359e+003,-3.968013e-004
1.853287e+003,-4.187750e-004
1.855216e+003,-5.023822e-004
1.857144e+003,-5.531646e-004
1.859073e+003,-6.251998e-004
1.861001e+003,-4.900886e-004
1.862929e+003,-5.515520e-004
1.864858e+003,-4.787360e-004
1.866787e+003,-2.826411e-004
1.868715e+003,1.101773e-004
1.870644e+003,-1.928449e-004
1.872572e+003,-4.668982e-004
1.874500e+003,-6.510889e-004
1.876429e+003,-9.226862e-004
1.878357e+003,-1.051570e-003
1.880286e+003,-9.020413e-004
1.882215e+003,-8.541837e-004
1.884143e+003,-7.873768e-004
1.886072e+003,-1.082450e-003
1.888000e+003,-1.211685e-003
1.889928e+003,-7.555702e-004
1.891857e+003,-7.861207e-004
1.893785e+003,-9.806025e-004
1.895714e+003,-7.240428e-004
1.897643e+003,-9.601431e-004
1.899571e+003,-1.241467e-003
1.901500e+003,-1.232405e-003
1.903428e+003,-1.223349e-003
1.905356e+003,-1.214299e-003
1.907285e+003,-1.205256e-003
1.909213e+003,-1.196218e-003
1.911142e+003,-1.187186e-003
1.913071e+003,-1.178161e-003
1.914999e+003,-1.169141e-003
1.916927e+003,-1.160128e-003
1.918856e+003,-1.151120e-003
1.920784e+003,-1.142119e-003
1.922713e+003,-1.133123e-003
1.924641e+003,-1.124135e-003
1.926570e+003,-1.115151e-003
1.928499e+003,-1.106174e-003
1.930427e+003,-1.097203e-003
1.932355e+003,-1.088239e-003
1.934284e+003,-1.079279e-003
1.936212e+003,-1.070326e-003
1.938141e+003,-1.061380e-003
1.940070e+003,-1.052439e-003
1.941998e+003,-1.043504e-003
1.943927e+003,-1.034576e-003
1.945855e+003,-1.025654e-003
1.947783e+003,-1.016737e-003
1.949712e+003,-1.007827e-003
1.951640e+003,-9.989223e-004
1.953569e+003,-9.900241e-004
1.955498e+003,-9.811318e-004
1.957426e+003,-9.722452e-004
1.959354e+003,-9.633660e-004
1.961283e+003,-9.544915e-004
1.963211e+003,-9.456240e-004
1.965140e+003,-9.367615e-004
1.967068e+003,-9.279060e-004
1.968997e+003,-9.190562e-004
1.970926e+003,-9.102125e-004
1.972854e+003,-9.013752e-004
1.974782e+003,-8.925430e-004
1.976711e+003,-8.837183e-004
1.978639e+003,-8.748983e-004
1.980568e+003,-8.660852e-004
1.982496e+003,-8.572778e-004
1.984425e+003,-8.484764e-004
1.986354e+003,-8.396810e-004
1.988282e+003,-8.308921e-004
1.990210e+003,-8.221093e-004
1.992139e+003,-8.133321e-004
1.994067e+003,-8.045610e-004
1.995996e+003,-7.957959e-004
1.997924e+003,-7.870378e-004
1.999853e+003,-7.782843e-004
2.001781e+003,-7.695383e-004
2.003710e+003,-7.607974e-004
2.005638e+003,-7.520631e-004
2.007567e+003,-7.433343e-004
2.009495e+003,-7.346121e-004
2.011424e+003,-7.258958e-004
2.013352e+003,-7.171847e-004
2.015281e+003,-7.084811e-004
2.017209e+003,-6.997826e-004
2.019138e+003,-6.910911e-004
2.021066e+003,-6.824043e-004
2.022995e+003,-6.737243e-004
2.024923e+003,-6.650505e-004
2.026852e+003,-6.563826e-004
2.028781e+003,-6.477205e-004
2.030709e+003,-6.390644e-004
2.032637e+003,-6.304157e-004
2.034566e+003,-6.217717e-004
2.036494e+003,-6.131342e-004
2.038423e+003,-6.045023e-004
2.040351e+003,-5.958773e-004
2.042280e+003,-5.872575e-004
2.044208e+003,-5.786443e-004
2.046137e+003,-5.700375e-004
2.048065e+003,-5.614363e-004
2.049994e+003,-5.528411e-004
2.051922e+003,-5.442520e-004
2.053851e+003,-5.356686e-004
2.055779e+003,-5.270911e-004
2.057708e+003,-5.185212e-004
2.059636e+003,-5.099559e-004
2.061565e+003,-5.013975e-004
2.063493e+003,-4.928447e-004
2.065422e+003,-4.842984e-004
2.067350e+003,-4.757579e-004
2.069279e+003,-4.672224e-004
2.071207e+003,-4.586943e-004
2.073136e+003,-4.501718e-004
2.075064e+003,-4.416563e-004
2.076993e+003,-4.331454e-004
2.078921e+003,-4.246415e-004
2.080850e+003,-4.161433e-004
2.082778e+003,-4.076515e-004
2.084707e+003,-3.991649e-004
2.086635e+003,-3.906848e-004
2.088564e+003,-3.822112e-004
2.090492e+003,-3.737431e-004
2.092421e+003,-3.652821e-004
2.094349e+003,-3.568263e-004
2.096278e+003,-3.483764e-004
2.098206e+003,-3.399322e-004
2.100135e+003,-3.314949e-004
2.102063e+003,-3.230636e-004
2.103992e+003,-3.146384e-004
2.105920e+003,-3.062194e-004
2.107849e+003,-2.978059e-004
2.109777e+003,-2.893993e-004
2.111706e+003,-2.809978e-004
2.113634e+003,-2.726021e-004
2.115563e+003,-2.642132e-004
2.117491e+003,-2.558304e-004
2.119420e+003,-2.474538e-004
2.121348e+003,-2.390830e-004
2.123277e+003,-2.307184e-004
2.125205e+003,-2.223593e-004
2.127134e+003,-2.140072e-004
2.129062e+003,-2.056594e-004
2.130991e+003,-1.973194e-004
2.132919e+003,-1.889847e-004
2.134848e+003,-1.806568e-004
2.136776e+003,-1.723345e-004
2.138705e+003,-1.640183e-004
2.140633e+003,-1.557082e-004
2.142562e+003,-1.474032e-004
2.144490e+003,-1.391057e-004
2.146419e+003,-1.308132e-004
2.148347e+003,-1.225277e-004
2.150276e+003,-1.142478e-004
2.152204e+003,-1.059739e-004
2.154133e+003,-9.770662e-005
2.156061e+003,-8.944405e-005
2.157990e+003,-8.118828e-005
2.159918e+003,-7.293880e-005
2.161847e+003,-6.469566e-005
2.163775e+003,-5.645817e-005
2.165704e+003,-4.822726e-005
2.167632e+003,-4.000182e-005
2.169561e+003,-3.178243e-005
2.171489e+003,-2.356962e-005
2.173418e+003,-1.536153e-005
2.175346e+003,-7.160706e-006
2.177275e+003,1.034408e-006
2.179203e+003,9.223062e-006
2.181132e+003,1.740607e-005
2.183060e+003,2.558250e-005
2.184989e+003,3.375346e-005
2.186917e+003,4.191825e-005
2.188846e+003,5.007756e-005
2.190774e+003,5.822978e-005
2.192703e+003,6.637606e-005
2.194631e+003,7.451623e-005
2.196560e+003,8.265040e-005
2.198488e+003,9.077939e-005
2.200417e+003,9.890186e-005
2.202345e+003,1.070183e-004
2.204274e+003,1.151278e-004
2.206202e+003,1.232321e-004
2.208131e+003,1.313300e-004
2.210059e+003,1.394217e-004
2.211988e+003,1.475074e-004
2.213916e+003,1.555874e-004
2.215845e+003,1.636614e-004
2.217773e+003,1.717295e-004
2.219702e+003,1.797914e-004
2.221630e+003,1.878459e-004
2.223559e+003,1.958958e-004
2.225487e+003,2.039392e-004
2.227416e+003,2.119765e-004
2.229344e+003,2.200077e-004
2.231273e+003,2.280338e-004
2.233201e+003,2.360529e-004
2.235130e+003,2.440658e-004
2.237058e+003,2.520733e-004
2.238987e+003,2.600734e-004
2.240915e+003,2.680686e-004
2.242844e+003,2.760570e-004
2.244772e+003,2.840413e-004
2.246701e+003,2.920175e-004
2.248629e+003,2.999882e-004
2.250558e+003,3.079528e-004
2.252486e+003,3.159110e-004
2.254415e+003,3.238640e-004
2.256343e+003,3.318100e-004
2.258272e+003,3.397503e-004
2.260200e+003,3.476844e-004
2.262129e+003,3.556134e-004
2.264057e+003,3.635357e-004
2.265986e+003,3.714518e-004
2.267914e+003,3.793616e-004
2.269843e+003,3.872652e-004
2.271771e+003,3.951637e-004
2.273700e+003,4.030549e-004
2.275628e+003,4.109420e-004
2.277557e+003,4.188210e-004
2.279485e+003,4.266953e-004
2.281414e+003,4.345627e-004
2.283342e+003,4.424239e-004
2.285271e+003,4.502796e-004
2.287199e+003,4.581288e-004
2.289128e+003,4.659727e-004
2.291056e+003,4.738101e-004
2.292985e+003,4.816416e-004
2.294913e+003,4.894661e-004
2.296842e+003,4.972859e-004
2.298770e+003,5.050987e-004
2.300699e+003,5.129054e-004
2.302627e+003,5.207071e-004
2.304556e+003,5.285018e-004
2.306484e+003,5.362903e-004
2.308413e+003,5.440729e-004
2.310341e+003,5.518504e-004
2.312270e+003,5.596203e-004
2.314198e+003,5.673852e-004
2.316127e+003,5.751430e-004
2.318055e+003,5.828958e-004
2.319984e+003,5.906430e-004
2.321912e+003,5.983831e-004
2.323841e+003,6.061173e-004
2.325769e+003,6.138454e-004
2.327698e+003,6.215678e-004
2.329626e+003,6.292830e-004
2.331555e+003,6.369932e-004
2.333483e+003,6.446976e-004
2.335412e+003,6.523959e-004
2.337340e+003,6.600876e-004
2.339269e+003,6.677733e-004
2.341197e+003,6.754529e-004
2.343126e+003,6.831260e-004
2.345054e+003,6.907936e-004
2.346983e+003,6.984560e-004
2.348911e+003,7.061114e-004
2.350840e+003,7.137608e-004
2.352768e+003,7.214041e-004
2.354697e+003,7.290414e-004
2.356625e+003,7.366721e-004
2.358554e+003,7.442973e-004
2.360482e+003,7.519164e-004
2.362411e+003,7.595289e-004
2.364339e+003,7.671369e-004
2.366268e+003,7.747373e-004
2.368196e+003,7.823327e-004
2.370125e+003,7.899211e-004
2.372053e+003,7.975039e-004
2.373982e+003,8.050802e-004
2.375910e+003,8.126509e-004
2.377839e+003,8.202159e-004
2.379767e+003,8.277745e-004
2.381696e+003,8.353265e-004
2.383624e+003,8.428725e-004
2.385553e+003,8.504130e-004
2.387481e+003,8.579473e-004
2.389410e+003,8.654752e-004
2.391338e+003,8.729984e-004
2.393267e+003,8.805140e-004
2.395195e+003,8.880238e-004
2.397124e+003,8.955273e-004
2.399052e+003,9.030254e-004
2.400981e+003,8.921740e-004
2.402909e+003,7.819518e-004
2.404838e+003,7.847736e-004
2.406766e+003,1.064007e-003
2.408695e+003,1.331838e-003
2.410623e+003,1.354447e-003
2.412552e+003,1.300598e-003
2.414480e+003,1.192239e-003
2.416409e+003,1.135758e-003
2.418337e+003,1.050448e-003
2.420266e+003,1.153680e-003
2.422194e+003,1.335471e-003
2.424123e+003,1.420432e-003
2.426051e+003,1.453331e-003
2.427979e+003,1.388739e-003
2.429908e+003,1.384537e-003
2.431837e+003,1.646603e-003
2.433765e+003,1.634821e-003
2.435694e+003,1.503804e-003
2.437622e+003,1.409488e-003
2.439551e+003,1.333081e-003
2.441479e+003,1.438421e-003
2.443407e+003,1.522836e-003
2.445336e+003,1.568245e-003
2.447265e+003,1.660280e-003
2.449193e+003,1.773281e-003
2.451122e+003,1.966489e-003
2.453050e+003,1.920953e-003
2.454979e+003,1.714072e-003
2.456907e+003,1.655367e-003
2.458836e+003,1.555010e-003
2.460764e+003,1.428434e-003
2.462693e+003,1.447349e-003
2.464621e+003,1.502288e-003
2.466550e+003,1.446345e-003
2.468478e+003,1.418990e-003
2.470406e+003,1.426602e-003
2.472335e+003,1.434874e-003
2.474264e+003,1.517407e-003
2.476192e+003,1.534870e-003
2.478121e+003,1.489329e-003
2.480049e+003,1.424199e-003
2.481978e+003,1.459398e-003
2.483906e+003,1.717403e-003
2.485835e+003,1.895198e-003
2.487763e+003,1.803267e-003
2.489692e+003,1.707720e-003
2.491620e+003,1.602760e-003
2.493549e+003,1.684578e-003
2.495477e+003,1.720944e-003
2.497406e+003,1.859038e-003
2.499334e+003,1.806271e-003
2.501263e+003,1.499868e-003
2.503191e+003,1.597495e-003
2.505120e+003,1.637213e-003
2.507048e+003,1.634280e-003
2.508977e+003,1.900691e-003
2.510905e+003,1.933211e-003
2.512833e+003,1.822735e-003
2.514762e+003,1.961709e-003
2.516691e+003,2.023747e-003
2.518619e+003,1.910289e-003
2.520548e+003,1.895095e-003
2.522476e+003,1.888163e-003
2.524405e+003,1.867546e-003
2.526333e+003,1.858467e-003
2.528261e+003,1.967335e-003
2.530190e+003,2.080488e-003
2.532119e+003,2.363825e-003
2.534047e+003,2.508544e-003
2.535976e+003,2.259060e-003
2.537904e+003,2.213082e-003
2.539833e+003,2.511554e-003
2.541761e+003,2.520142e-003
2.543689e+003,2.528987e-003
2.545618e+003,2.760578e-003
2.547547e+003,3.085462e-003
2.549475e+003,3.217974e-003
2.551404e+003,3.313870e-003
2.553332e+003,3.308361e-003
2.555260e+003,3.371743e-003
2.557189e+003,3.392268e-003
2.559117e+003,3.341925e-003
2.561046e+003,3.300525e-003
2.562975e+003,3.408196e-003
2.564903e+003,3.681781e-003
2.566832e+003,3.911085e-003
2.568760e+003,3.919318e-003
2.570688e+003,4.156014e-003
2.572617e+003,4.384882e-003
2.574546e+003,4.537938e-003
2.576474e+003,4.782842e-003
2.578403e+003,5.241634e-003
2.580331e+003,5.464777e-003
2.582260e+003,5.469067e-003
2.584188e+003,5.380635e-003
2.586116e+003,5.139263e-003
2.588045e+003,5.069847e-003
2.589974e+003,5.000321e-003
2.591902e+003,4.860175e-003
2.593831e+003,4.816459e-003
2.595759e+003,4.714681e-003
2.597688e+003,4.827134e-003
2.599616e+003,4.985805e-003
2.601544e+003,4.932643e-003
2.603473e+003,4.968248e-003
2.605402e+003,5.350199e-003
2.607330e+003,5.648040e-003
2.609259e+003,5.925167e-003
2.611187e+003,6.136433e-003
2.613115e+003,6.310576e-003
2.615044e+003,6.430233e-003
2.616972e+003,6.627642e-003
2.618901e+003,6.701862e-003
2.620830e+003,6.725139e-003
2.622758e+003,6.715287e-003
2.624687e+003,6.582349e-003
2.626615e+003,6.499836e-003
2.628543e+003,6.598348e-003
2.630472e+003,6.662175e-003
2.632400e+003,6.790521e-003
2.634329e+003,6.866249e-003
2.636258e+003,6.931880e-003
2.638186e+003,7.009651e-003
2.640115e+003,7.142393e-003
2.642043e+003,7.319053e-003
2.643971e+003,7.438899e-003
2.645900e+003,7.579844e-003
2.647828e+003,7.799297e-003
2.649757e+003,7.937891e-003
2.651686e+003,8.051723e-003
2.653614e+003,8.216042e-003
2.655542e+003,8.341411e-003
2.657471e+003,8.305978e-003
2.659399e+003,8.226439e-003
2.661328e+003,8.059882e-003
2.663256e+003,7.738867e-003
2.665185e+003,7.434184e-003
2.667114e+003,7.332613e-003
2.669042e+003,7.334176e-003
2.670970e+003,7.387057e-003
2.672899e+003,7.469255e-003
2.674827e+003,7.548169e-003
2.676756e+003,7.551176e-003
2.678685e+003,7.535763e-003
2.680613e+003,7.505911e-003
2.682542e+003,7.525591e-003
2.684470e+003,7.563379e-003
2.686398e+003,7.569116e-003
2.688327e+003,7.577448e-003
2.690255e+003,7.598259e-003
2.692184e+003,7.597703e-003
2.694113e+003,7.582029e-003
2.696041e+003,7.591601e-003
2.697969e+003,7.687868e-003
2.699898e+003,7.837337e-003
2.701826e+003,8.051325e-003
2.703755e+003,8.270968e-003
2.705683e+003,8.525551e-003
2.707612e+003,8.776467e-003
2.709541e+003,9.061361e-003
2.711469e+003,9.442121e-003
2.713397e+003,9.927575e-003
2.715326e+003,1.050717e-002
2.717254e+003,1.121107e-002
2.719183e+003,1.191053e-002
2.721111e+003,1.240351e-002
2.723040e+003,1.239388e-002
2.724969e+003,1.194503e-002
2.726897e+003,1.132501e-002
2.728825e+003,1.072359e-002
2.730754e+003,1.027165e-002
2.732682e+003,9.912133e-003
2.734611e+003,9.623948e-003
2.736539e+003,9.431886e-003
2.738468e+003,9.197942e-003
2.740396e+003,8.899902e-003
2.742325e+003,8.663775e-003
2.744253e+003,8.570200e-003
2.746182e+003,8.463467e-003
2.748110e+003,8.388326e-003
2.750039e+003,8.376324e-003
2.751967e+003,8.314683e-003
2.753896e+003,8.389283e-003
2.755824e+003,8.605771e-003
2.757753e+003,8.839533e-003
2.759681e+003,8.999260e-003
2.761610e+003,9.162722e-003
2.763538e+003,9.382279e-003
2.765467e+003,9.533687e-003
2.767395e+003,9.715643e-003
2.769324e+003,9.888794e-003
2.771252e+003,1.009601e-002
2.773181e+003,1.035017e-002
2.775109e+003,1.064797e-002
2.777038e+003,1.101528e-002
2.778966e+003,1.148269e-002
2.780895e+003,1.203938e-002
2.782823e+003,1.257739e-002
2.784752e+003,1.311236e-002
2.786680e+003,1.390608e-002
2.788609e+003,1.476512e-002
2.790537e+003,1.560297e-002
2.792466e+003,1.636923e-002
2.794394e+003,1.697729e-002
2.796323e+003,1.742724e-002
2.798251e+003,1.800127e-002
2.800180e+003,1.885547e-002
2.802108e+003,1.999647e-002
2.804037e+003,2.134922e-002
2.805965e+003,2.278973e-002
2.807894e+003,2.418239e-002
2.809822e+003,2.540177e-002
2.811751e+003,2.655225e-002
2.813679e+003,2.781727e-002
2.815608e+003,2.932731e-002
2.817536e+003,3.125942e-002
2.819465e+003,3.367042e-002
2.821393e+003,3.666468e-002
2.823322e+003,4.053849e-002
2.825250e+003,4.580505e-002
2.827179e+003,5.318414e-002
2.829107e+003,6.398894e-002
2.831036e+003,7.982916e-002
2.832964e+003,1.007434e-001
2.834893e+003,1.224519e-001
2.836821e+003,1.370861e-001
2.838750e+003,1.389723e-001
2.840678e+003,1.286091e-001
2.842607e+003,1.111391e-001
2.844535e+003,9.290031e-002
2.846464e+003,7.814564e-002
2.848392e+003,6.790536e-002
2.850321e+003,6.156101e-002
2.852249e+003,5.837366e-002
2.854178e+003,5.828895e-002
2.856106e+003,6.186572e-002
2.858035e+003,7.047163e-002
2.859963e+003,8.578378e-002
2.861892e+003,1.071370e-001
2.863820e+003,1.279328e-001
2.865749e+003,1.384911e-001
2.867677e+003,1.371366e-001
2.869606e+003,1.309089e-001
2.871534e+003,1.257739e-001
2.873463e+003,1.241901e-001
2.875391e+003,1.261816e-001
2.877320e+003,1.280307e-001
2.879248e+003,1.265660e-001
2.881177e+003,1.229438e-001
2.883105e+003,1.193798e-001
2.885034e+003,1.169426e-001
2.886962e+003,1.155800e-001
2.888891e+003,1.151262e-001
2.890819e+003,1.163266e-001
2.892748e+003,1.200457e-001
2.894676e+003,1.269106e-001
2.896605e+003,1.369131e-001
2.898533e+003,1.494638e-001
2.900462e+003,1.637754e-001
2.902390e+003,1.787480e-001
2.904319e+003,1.932098e-001
2.906247e+003,2.058091e-001
2.908176e+003,2.167434e-001
2.910104e+003,2.297174e-001
2.912033e+003,2.489832e-001
2.913961e+003,2.728536e-001
2.915890e+003,2.907185e-001
2.917818e+003,2.911036e-001
2.919747e+003,2.751370e-001
2.921675e+003,2.534974e-001
2.923604e+003,2.326591e-001
2.925532e+003,2.116604e-001
2.927461e+003,1.882972e-001
2.929389e+003,1.636171e-001
2.931318e+003,1.408144e-001
2.933246e+003,1.227760e-001
2.935175e+003,1.109411e-001
2.937103e+003,1.060183e-001
2.939032e+003,1.090588e-001
2.940960e+003,1.220047e-001
2.942889e+003,1.458923e-001
2.944817e+003,1.783146e-001
2.946746e+003,2.111677e-001
2.948674e+003,2.316726e-001
2.950603e+003,2.301025e-001
2.952531e+003,2.109107e-001
2.954460e+003,1.897840e-001
2.956388e+003,1.786395e-001
2.958317e+003,1.770783e-001
2.960245e+003,1.751541e-001
2.962174e+003,1.623627e-001
2.964102e+003,1.398692e-001
2.966031e+003,1.159110e-001
2.967959e+003,9.420504e-002
2.969888e+003,7.495130e-002
2.971816e+003,5.857656e-002
2.973745e+003,4.545604e-002
2.975673e+003,3.525262e-002
2.977602e+003,2.736731e-002
2.979530e+003,2.136916e-002
2.981459e+003,1.676156e-002
2.983387e+003,1.325476e-002
2.985316e+003,1.062109e-002
2.987244e+003,8.551711e-003
2.989173e+003,6.864181e-003
2.991101e+003,5.593294e-003
2.993030e+003,4.638845e-003
2.994958e+003,3.794990e-003
2.996887e+003,3.056851e-003
2.998815e+003,2.544180e-003
3.000744e+003,2.095316e-003
3.002672e+003,1.797536e-003
3.004601e+003,1.513198e-003
3.006529e+003,1.190140e-003
3.008458e+003,9.191408e-004
3.010386e+003,7.192419e-004
3.012315e+003,4.799482e-004
3.014243e+003,2.203962e-004
3.016172e+003,-1.842738e-006
3.018100e+003,-2.772567e-004
3.020029e+003,-5.025272e-004
3.021957e+003,-5.579141e-004
3.023886e+003,-5.563554e-004
3.025814e+003,-6.380244e-004
3.027743e+003,-8.048710e-004
3.029671e+003,-8.536713e-004
3.031600e+003,-7.661316e-004
3.033528e+003,-7.657281e-004
3.035457e+003,-8.661036e-004
3.037385e+003,-9.595603e-004
3.039314e+003,-9.608024e-004
3.041242e+003,-8.992779e-004
3.043171e+003,-9.631019e-004
3.045099e+003,-9.715240e-004
3.047028e+003,-8.860769e-004
3.048956e+003,-7.536441e-004
3.050885e+003,-7.903688e-004
3.052813e+003,-8.490923e-004
3.054742e+003,-7.622459e-004
3.056670e+003,-7.577353e-004
3.058599e+003,-7.339675e-004
3.060527e+003,-7.507384e-004
3.062456e+003,-7.879307e-004
3.064384e+003,-7.151053e-004
3.066313e+003,-7.175830e-004
3.068241e+003,-6.994283e-004
3.070170e+003,-7.105551e-004
3.072098e+003,-7.703573e-004
3.074027e+003,-7.535394e-004
3.075955e+003,-7.326269e-004
3.077884e+003,-7.502445e-004
3.079812e+003,-6.844074e-004
3.081741e+003,-6.626070e-004
3.083669e+003,-6.257608e-004
3.085598e+003,-6.843762e-004
3.087526e+003,-7.070531e-004
3.089455e+003,-6.648551e-004
3.091383e+003,-5.935132e-004
3.093312e+003,-5.512992e-004
3.095240e+003,-4.604108e-004
3.097169e+003,-4.536861e-004
3.099097e+003,-4.659591e-004
3.101026e+003,-3.710513e-004
3.102954e+003,-2.548342e-004
3.104883e+003,-2.878116e-004
3.106811e+003,-3.167138e-004
3.108740e+003,-2.623938e-004
3.110668e+003,-1.953260e-004
3.112597e+003,-1.545918e-004
3.114525e+003,-8.221448e-005
3.116454e+003,3.912556e-005
3.118382e+003,1.535018e-005
3.120311e+003,-5.872163e-006
3.122239e+003,5.993427e-005
3.124168e+003,6.128463e-005
3.126096e+003,1.657684e-004
3.128025e+003,2.380215e-004
3.129953e+003,1.564396e-004
3.131882e+003,2.127722e-004
3.133810e+003,4.719399e-004
3.135739e+003,5.426850e-004
3.137667e+003,5.810438e-004
3.139596e+003,5.292628e-004
3.141524e+003,4.541799e-004
3.143453e+003,4.965001e-004
3.145381e+003,5.459638e-004
3.147310e+003,5.215739e-004
3.149238e+003,5.011185e-004
3.151167e+003,5.427172e-004
3.153095e+003,5.262139e-004
3.155024e+003,4.872920e-004
3.156952e+003,4.724009e-004
3.158881e+003,4.420852e-004
3.160809e+003,4.973776e-004
3.162738e+003,5.059482e-004
3.164666e+003,5.685833e-004
3.166594e+003,6.222595e-004
3.168523e+003,6.397362e-004
3.170452e+003,6.193697e-004
3.172380e+003,6.514840e-004
3.174309e+003,6.827902e-004
3.176237e+003,7.731365e-004
3.178166e+003,8.954366e-004
3.180094e+003,9.363302e-004
3.182022e+003,9.262763e-004
3.183951e+003,9.570869e-004
3.185880e+003,1.024505e-003
3.187808e+003,9.735365e-004
3.189737e+003,8.599591e-004
3.191665e+003,9.208553e-004
3.193594e+003,1.000579e-003
3.195522e+003,1.064599e-003
3.197450e+003,1.225569e-003
3.199379e+003,1.201571e-003
3.201308e+003,1.106791e-003
3.203236e+003,1.100860e-003
3.205165e+003,1.018556e-003
3.207093e+003,9.605198e-004
3.209021e+003,9.710849e-004
3.210950e+003,9.035671e-004
3.212878e+003,8.279720e-004
3.214807e+003,8.686446e-004
3.216736e+003,8.203561e-004
3.218664e+003,8.504917e-004
3.220593e+003,8.094971e-004
3.222521e+003,6.157953e-004
3.224449e+003,4.754635e-004
3.226378e+003,4.175805e-004
3.228307e+003,3.682985e-004
3.230235e+003,4.584430e-004
3.232164e+003,4.903753e-004
3.234092e+003,3.799991e-004
3.236021e+003,2.776509e-004
3.237949e+003,2.596902e-004
3.239877e+003,3.206760e-004
3.241806e+003,3.797970e-004
3.243735e+003,4.248928e-004
3.245663e+003,4.907084e-004
3.247592e+003,4.410187e-004
3.249520e+003,3.301603e-004
3.251448e+003,1.563133e-004
3.253377e+003,2.906073e-004
3.255305e+003,5.012976e-004
3.257234e+003,4.721866e-004
3.259163e+003,4.027163e-004
3.261091e+003,4.377519e-004
3.263020e+003,4.980426e-004
3.264948e+003,6.372476e-004
3.266876e+003,6.291281e-004
3.268805e+003,5.243835e-004
3.270733e+003,5.104291e-004
3.272662e+003,5.925253e-004
3.274591e+003,6.932943e-004
3.276519e+003,7.249430e-004
3.278448e+003,6.273104e-004
3.280376e+003,6.285860e-004
3.282304e+003,7.315575e-004
3.284233e+003,7.277662e-004
3.286161e+003,5.463869e-004
3.288090e+003,5.268767e-004
3.290019e+003,6.996370e-004
3.291947e+003,7.814204e-004
3.293875e+003,7.268108e-004
3.295804e+003,7.594941e-004
3.297732e+003,7.380561e-004
3.299661e+003,6.553996e-004
3.301589e+003,7.115219e-004
3.303518e+003,7.340621e-004
3.305447e+003,6.714200e-004
3.307375e+003,7.098622e-004
3.309303e+003,8.440841e-004
3.311232e+003,8.402623e-004
3.313160e+003,7.520125e-004
3.315089e+003,7.380042e-004
3.317018e+003,7.409217e-004
3.318946e+003,6.328535e-004
3.320875e+003,5.248834e-004
3.322803e+003,5.870775e-004
3.324731e+003,6.736072e-004
3.326660e+003,7.199552e-004
3.328588e+003,7.372005e-004
3.330517e+003,7.824171e-004
3.332446e+003,8.385184e-004
3.334374e+003,9.328502e-004
3.336302e+003,1.012569e-003
3.338231e+003,9.680949e-004
3.340159e+003,9.166952e-004
3.342088e+003,9.000513e-004
3.344016e+003,8.840500e-004
3.345945e+003,9.185381e-004
3.347874e+003,9.239581e-004
3.349802e+003,9.707285e-004
3.351730e+003,8.991060e-004
3.353659e+003,8.810312e-004
3.355587e+003,9.678130e-004
3.357516e+003,8.776700e-004
3.359444e+003,8.221993e-004
3.361373e+003,9.049531e-004
3.363302e+003,8.544454e-004
3.365230e+003,8.418388e-004
3.367158e+003,8.649635e-004
3.369087e+003,8.834156e-004
3.371015e+003,7.869063e-004
3.372944e+003,7.024851e-004
3.374872e+003,7.024979e-004
3.376801e+003,6.883908e-004
3.378729e+003,6.547595e-004
3.380658e+003,6.946583e-004
3.382586e+003,6.487515e-004
3.384515e+003,6.452310e-004
3.386443e+003,5.483483e-004
3.388372e+003,4.892336e-004
3.390300e+003,5.516181e-004
3.392229e+003,7.164814e-004
3.394157e+003,7.023822e-004
3.396086e+003,6.689967e-004
3.398014e+003,7.125647e-004
3.399943e+003,5.824764e-004
3.401871e+003,4.315978e-004
3.403800e+003,4.190850e-004
3.405728e+003,4.598742e-004
3.407657e+003,4.595612e-004
3.409585e+003,4.082380e-004
3.411514e+003,4.715970e-004
3.413442e+003,5.727330e-004
3.415371e+003,3.793039e-004
3.417299e+003,1.818242e-004
3.419228e+003,4.643959e-004
3.421156e+003,7.200957e-004
3.423085e+003,5.640906e-004
3.425013e+003,3.787233e-004
3.426942e+003,3.596798e-004
3.428870e+003,3.252577e-004
3.430799e+003,3.583865e-004
3.432727e+003,3.019422e-004
3.434656e+003,1.785657e-004
3.436584e+003,2.213410e-004
3.438513e+003,1.488663e-004
3.440441e+003,5.691370e-005
3.442370e+003,2.475237e-004
3.444298e+003,1.933196e-004
3.446227e+003,5.421005e-004
3.448155e+003,7.119604e-004
3.450084e+003,1.724372e-004
3.452012e+003,-1.535863e-004
3.453941e+003,-9.101199e-005
3.455869e+003,-1.874244e-004
3.457798e+003,-2.062112e-004
3.459726e+003,-8.942490e-005
3.461655e+003,1.185323e-004
3.463583e+003,8.218084e-005
3.465512e+003,-1.485412e-004
3.467440e+003,-2.393492e-004
3.469369e+003,-2.380041e-004
3.471297e+003,-2.267624e-004
3.473226e+003,-2.052621e-004
3.475154e+003,-1.461764e-004
3.477083e+003,-2.506281e-004
3.479011e+003,-2.977498e-004
3.480940e+003,-5.470472e-006
3.482868e+003,1.866859e-004
3.484797e+003,-1.635322e-004
3.486725e+003,-3.702635e-004
3.488654e+003,-3.377894e-004
3.490582e+003,-3.961297e-004
3.492511e+003,-2.911539e-004
3.494439e+003,-2.512916e-004
3.496368e+003,-2.765387e-004
3.498296e+003,-3.831245e-004
3.500225e+003,-3.416353e-004
3.502153e+003,2.242596e-004
3.504082e+003,3.855077e-004
3.506010e+003,-2.555005e-004
3.507939e+003,-3.048157e-004
3.509867e+003,-9.926269e-006
3.511796e+003,-1.930952e-004
3.513724e+003,-4.088326e-004
3.515653e+003,-4.971614e-004
3.517581e+003,-4.616266e-004
3.519510e+003,-4.966481e-004
3.521438e+003,-2.868846e-004
3.523367e+003,3.421804e-004
3.525295e+003,2.964059e-004
3.527224e+003,4.412893e-004
3.529152e+003,4.723064e-004
3.531081e+003,-1.040176e-004
3.533009e+003,-8.241012e-004
3.534938e+003,-6.438937e-004
3.536866e+003,-1.645486e-004
3.538795e+003,-5.997299e-004
3.540723e+003,-9.954871e-004
3.542652e+003,-5.450285e-004
3.544580e+003,2.382665e-004
3.546509e+003,6.277657e-004
3.548437e+003,1.991750e-006
3.550366e+003,-5.560662e-004
3.552294e+003,-2.762375e-004
3.554223e+003,-4.224597e-004
3.556151e+003,-8.832183e-004
3.558080e+003,-8.490947e-004
3.560008e+003,-5.089265e-004
3.561937e+003,-5.537985e-004
3.563865e+003,-7.252507e-004
3.565794e+003,6.802066e-004
3.567722e+003,2.203749e-003
3.569651e+003,5.541628e-004
3.571579e+003,-9.804016e-004
3.573508e+003,-1.405692e-003
3.575436e+003,-1.321135e-003
3.577365e+003,-1.057585e-003
3.579293e+003,-7.579970e-004
3.581222e+003,-8.188226e-004
3.583150e+003,-1.190021e-003
3.585079e+003,-1.145873e-003
3.587007e+003,9.280618e-004
3.588936e+003,1.283268e-003
3.590864e+003,-4.266611e-004
3.592793e+003,-9.877502e-004
3.594721e+003,-3.909190e-004
3.596650e+003,-1.867375e-004
3.598578e+003,-1.165741e-004
3.600507e+003,3.986417e-004
3.602435e+003,2.114917e-006
3.604364e+003,-1.159055e-003
3.606292e+003,-1.017606e-003
3.608221e+003,6.203305e-004
3.610149e+003,4.384437e-004
3.612078e+003,-2.204720e-005
3.614006e+003,5.445622e-004
3.615935e+003,-3.478556e-004
3.617863e+003,6.535412e-004
3.619792e+003,2.536723e-003
3.621720e+003,8.606911e-004
3.623649e+003,-9.382250e-004
3.625577e+003,-2.035840e-003
3.627506e+003,-1.516651e-003
3.629434e+003,2.948776e-003
3.631363e+003,1.533834e-003
3.633291e+003,-1.450066e-004
3.635220e+003,-7.050521e-004
3.637148e+003,-1.189681e-003
3.639077e+003,-9.949007e-004
3.641005e+003,-5.670499e-004
3.642934e+003,-8.231242e-004
3.644862e+003,-1.821237e-003
3.646791e+003,-7.339104e-004
3.648719e+003,3.700212e-003
3.650648e+003,5.268158e-003
3.652576e+003,1.267644e-003
3.654505e+003,-1.140056e-003
3.656433e+003,-2.629267e-004
3.658362e+003,-2.661429e-005
3.660290e+003,-5.080332e-004
3.662219e+003,-7.710614e-004
3.664147e+003,-1.156986e-003
3.666076e+003,-1.946715e-003
3.668004e+003,-1.703033e-003
3.669933e+003,1.936482e-003
3.671861e+003,9.634004e-004
3.673790e+003,-1.048656e-003
3.675718e+003,2.631304e-003
3.677647e+003,2.615052e-003
3.679575e+003,1.426802e-003
3.681504e+003,4.475175e-004
3.683432e+003,-6.076738e-004
3.685361e+003,-1.399264e-003
3.687289e+003,-1.094063e-003
3.689218e+003,1.984301e-003
3.691146e+003,3.173251e-003
3.693075e+003,1.465588e-003
3.695003e+003,-4.683691e-005
3.696932e+003,-7.091705e-004
3.698860e+003,-1.327186e-003
3.700789e+003,-3.274743e-004
3.702717e+003,6.751318e-004
3.704646e+003,-1.700011e-004
3.706574e+003,-9.756451e-004
3.708503e+003,-1.090326e-003
3.710431e+003,1.202090e-003
3.712360e+003,3.314951e-003
3.714288e+003,1.743103e-003
3.716217e+003,-8.844712e-005
3.718145e+003,-4.719569e-004
3.720074e+003,-1.421936e-004
3.722002e+003,8.962194e-004
3.723931e+003,1.681398e-003
3.725859e+003,2.222353e-003
3.727788e+003,1.384618e-003
3.729716e+003,-6.417538e-004
3.731645e+003,-4.108414e-004
3.733573e+003,2.084194e-003
3.735502e+003,4.667547e-003
3.737430e+003,3.871109e-003
3.739359e+003,2.342846e-003
3.741287e+003,7.783084e-004
3.743216e+003,3.491871e-004
3.745144e+003,3.934911e-003
3.747073e+003,2.601242e-003
3.749001e+003,1.708514e-003
3.750930e+003,4.713065e-003
3.752858e+003,4.486255e-003
3.754787e+003,2.109896e-003
3.756715e+003,9.346500e-004
3.758644e+003,1.607207e-003
3.760572e+003,2.050036e-003
3.762501e+003,5.437317e-004
3.764429e+003,1.163181e-004
3.766358e+003,5.109091e-004
3.768286e+003,3.436871e-004
3.770215e+003,1.749707e-003
3.772143e+003,1.029837e-003
3.774072e+003,-1.068530e-004
3.776000e+003,-4.924448e-004
3.777929e+003,-1.680384e-004
3.779857e+003,1.144761e-003
3.781786e+003,4.819564e-004
3.783714e+003,1.233375e-004
3.785643e+003,7.724259e-004
3.787571e+003,2.245265e-004
3.789500e+003,-1.611219e-004
3.791428e+003,-1.766585e-004
3.793357e+003,-9.582379e-004
3.795285e+003,-2.918710e-004
3.797214e+003,1.117914e-003
3.799142e+003,-2.701150e-004
3.801071e+003,1.351220e-003
3.802999e+003,2.347449e-003
3.804927e+003,2.704044e-004
3.806856e+003,1.374995e-003
3.808785e+003,1.432328e-003
3.810713e+003,2.220985e-004
3.812642e+003,-8.179639e-004
3.814570e+003,-8.277625e-004
3.816499e+003,1.270309e-003
3.818427e+003,1.774426e-005
3.820355e+003,1.004210e-003
3.822284e+003,3.517927e-003
3.824213e+003,1.417222e-003
3.826141e+003,1.150652e-003
3.828070e+003,8.960476e-004
3.829998e+003,-4.912039e-004
3.831927e+003,-3.613473e-005
3.833855e+003,4.050138e-004
3.835783e+003,3.043641e-004
3.837712e+003,1.897704e-003
3.839641e+003,3.246579e-003
3.841569e+003,2.377717e-003
3.843498e+003,2.022658e-003
3.845426e+003,1.002698e-003
3.847354e+003,-5.861365e-004
3.849283e+003,-1.639632e-003
3.851211e+003,-2.313262e-003
3.853140e+003,3.234186e-003
3.855069e+003,5.134654e-003
3.856997e+003,2.600634e-003
3.858926e+003,3.729938e-004
3.860854e+003,-4.040683e-004
3.862782e+003,3.203643e-004
3.864711e+003,2.216184e-003
3.866640e+003,5.500033e-004
3.868568e+003,-4.590598e-004
3.870497e+003,2.461416e-003
3.872425e+003,1.901974e-003
3.874354e+003,2.187445e-003
3.876282e+003,8.245429e-004
3.878210e+003,-1.239022e-003
3.880139e+003,5.733648e-004
3.882068e+003,1.236969e-003
3.883996e+003,1.879486e-004
3.885925e+003,1.672472e-003
3.887853e+003,4.065060e-004
3.889781e+003,-8.142465e-004
3.891710e+003,1.680870e-003
3.893638e+003,1.695390e-003
3.895567e+003,-1.562510e-004
3.897496e+003,-7.880437e-004
3.899424e+003,4.004675e-004
3.901353e+003,1.224548e-003
3.903281e+003,2.771210e-003
3.905209e+003,3.390852e-003
3.907138e+003,1.256348e-003
3.909066e+003,-4.245309e-004
3.910995e+003,-6.959953e-004
3.912924e+003,-8.676589e-004
3.914852e+003,-8.394548e-004
3.916781e+003,2.734479e-004
3.918709e+003,6.395753e-004
3.920637e+003,3.891166e-004
3.922566e+003,2.274632e-004
3.924494e+003,7.376208e-004
3.926423e+003,1.067866e-004
3.928352e+003,-7.012236e-004
3.930280e+003,-7.697684e-005
3.932208e+003,1.030089e-003
3.934137e+003,7.886693e-004
3.936065e+003,-1.064586e-004
3.937994e+003,-4.665934e-004
3.939922e+003,-8.882801e-004
3.941851e+003,-2.018238e-004
3.943780e+003,4.676508e-004
3.945708e+003,-1.982944e-004
3.947636e+003,-1.905079e-004
3.949565e+003,2.511293e-004
3.951493e+003,2.446375e-005
3.953422e+003,-4.132593e-004
3.955351e+003,-6.418325e-004
3.957279e+003,-7.236301e-004
3.959208e+003,-7.254179e-004
3.961136e+003,-3.739509e-004
3.963064e+003,-1.858831e-004
3.964993e+003,-5.865620e-004
3.966921e+003,-8.686327e-004
3.968850e+003,-6.708531e-004
3.970779e+003,-6.174600e-004
3.972707e+003,-4.891760e-004
3.974635e+003,-2.014947e-004
3.976564e+003,-3.970922e-004
3.978492e+003,-6.968311e-004
3.980421e+003,-7.284764e-004
3.982349e+003,-6.593876e-004
3.984278e+003,-6.701741e-004
3.986207e+003,-7.419154e-004
3.988135e+003,-7.646598e-004
3.990063e+003,-5.903968e-004
3.991992e+003,-5.993277e-004
3.993920e+003,-5.208444e-004
3.995849e+003,-4.751515e-004
3.997777e+003,-6.865126e-004
3.999706e+003,-7.567985e-004
4.001635e+003,0.000000e+000
