3.991992e+002,0.000000e+000
4.011277e+002,0.000000e+000
4.030562e+002,0.000000e+000
4.049846e+002,0.000000e+000
4.069131e+002,0.000000e+000
4.088416e+002,0.000000e+000
4.107701e+002,0.000000e+000
4.126986e+002,0.000000e+000
4.146271e+002,0.000000e+000
4.165556e+002,0.000000e+000
4.184841e+002,0.000000e+000
4.204126e+002,0.000000e+000
4.223411e+002,0.000000e+000
4.242697e+002,0.000000e+000
4.261982e+002,0.000000e+000
4.281266e+002,0.000000e+000
4.300551e+002,0.000000e+000
4.319836e+002,0.000000e+000
4.339121e+002,0.000000e+000
4.358406e+002,0.000000e+000
4.377691e+002,0.000000e+000
4.396976e+002,0.000000e+000
4.416261e+002,0.000000e+000
4.435546e+002,0.000000e+000
4.454831e+002,0.000000e+000
4.474116e+002,0.000000e+000
4.493401e+002,0.000000e+000
4.512686e+002,0.000000e+000
4.531971e+002,0.000000e+000
4.551256e+002,0.000000e+000
4.570541e+002,0.000000e+000
4.589826e+002,0.000000e+000
4.609111e+002,0.000000e+000
4.628396e+002,0.000000e+000
4.647681e+002,0.000000e+000
4.666966e+002,0.000000e+000
4.686251e+002,0.000000e+000
4.705536e+002,0.000000e+000
4.724821e+002,0.000000e+000
4.744106e+002,0.000000e+000
4.763391e+002,0.000000e+000
4.782676e+002,0.000000e+000
4.801961e+002,0.000000e+000
4.821246e+002,0.000000e+000
4.840531e+002,0.000000e+000
4.859816e+002,0.000000e+000
4.879101e+002,0.000000e+000
4.898386e+002,0.000000e+000
4.917671e+002,0.000000e+000
4.936956e+002,0.000000e+000
4.956241e+002,0.000000e+000
4.975526e+002,0.000000e+000
4.994811e+002,0.000000e+000
5.014096e+002,0.000000e+000
5.033381e+002,0.000000e+000
5.052666e+002,0.000000e+000
5.071951e+002,0.000000e+000
5.091236e+002,0.000000e+000
5.110521e+002,0.000000e+000
5.129806e+002,0.000000e+000
5.149091e+002,0.000000e+000
5.168376e+002,0.000000e+000
5.187661e+002,0.000000e+000
5.206946e+002,0.000000e+000
5.226230e+002,0.000000e+000
5.245516e+002,1.460537e-004
5.264800e+002,3.781109e-004
5.284086e+002,3.037015e-004
5.303370e+002,1.492584e-004
5.322656e+002,6.800611e-005
5.341940e+002,2.315734e-006
5.361226e+002,-1.941463e-004
5.380510e+002,-4.129619e-004
5.399796e+002,-5.845218e-004
5.419081e+002,-3.562449e-004
5.438365e+002,-2.209353e-004
5.457650e+002,-2.786070e-004
5.476935e+002,-4.736367e-004
5.496221e+002,-5.617831e-004
5.515505e+002,-4.961542e-004
5.534790e+002,-2.890094e-004
5.554075e+002,-2.753390e-004
5.573361e+002,-3.126925e-004
5.592645e+002,-3.334256e-004
5.611931e+002,-2.821134e-004
5.631215e+002,-1.722611e-004
5.650500e+002,-2.134219e-005
5.669785e+002,6.257184e-005
5.689070e+002,1.952569e-004
5.708355e+002,2.259030e-004
5.727640e+002,3.032004e-004
5.746925e+002,4.929658e-004
5.766210e+002,6.808192e-004
5.785495e+002,6.118524e-004
5.804780e+002,6.297086e-004
5.824065e+002,5.662534e-004
5.843350e+002,6.474145e-004
5.862635e+002,8.564452e-004
5.881920e+002,1.043651e-003
5.901205e+002,1.050835e-003
5.920490e+002,9.809118e-004
5.939775e+002,7.642140e-004
5.959060e+002,8.358313e-004
5.978345e+002,9.039179e-004
5.997630e+002,1.034633e-003
6.016915e+002,1.099562e-003
6.036200e+002,1.120640e-003
6.055485e+002,1.059127e-003
6.074770e+002,1.002578e-003
6.094055e+002,9.504207e-004
6.113340e+002,8.909432e-004
6.132625e+002,6.883307e-004
6.151910e+002,5.771159e-004
6.171195e+002,4.494255e-004
6.190480e+002,5.239854e-004
6.209765e+002,6.577470e-004
6.229050e+002,7.856721e-004
6.248335e+002,7.985579e-004
6.267620e+002,8.605113e-004
6.286905e+002,8.772262e-004
6.306190e+002,9.410703e-004
6.325475e+002,1.048084e-003
6.344760e+002,1.169046e-003
6.364045e+002,1.223660e-003
6.383330e+002,1.409553e-003
6.402615e+002,1.399820e-003
6.421899e+002,1.293099e-003
6.441185e+002,1.369774e-003
6.460470e+002,1.510168e-003
6.479755e+002,1.538843e-003
6.499039e+002,1.544575e-003
6.518325e+002,1.493254e-003
6.537610e+002,1.550832e-003
6.556895e+002,1.692721e-003
6.576179e+002,1.921401e-003
6.595464e+002,1.935950e-003
6.614750e+002,1.932092e-003
6.634034e+002,2.034787e-003
6.653319e+002,2.240614e-003
6.672604e+002,2.428027e-003
6.691890e+002,2.696477e-003
6.711174e+002,2.871925e-003
6.730460e+002,3.060022e-003
6.749745e+002,3.144161e-003
6.769030e+002,3.342653e-003
6.788314e+002,3.600862e-003
6.807599e+002,3.972962e-003
6.826885e+002,4.223946e-003
6.846169e+002,4.454706e-003
6.865454e+002,4.665630e-003
6.884739e+002,4.995671e-003
6.904025e+002,5.254633e-003
6.923309e+002,5.488633e-003
6.942594e+002,5.784466e-003
6.961879e+002,6.096506e-003
6.981165e+002,6.278979e-003
7.000449e+002,6.473402e-003
7.019734e+002,6.599611e-003
7.039019e+002,6.804049e-003
7.058304e+002,7.177433e-003
7.077589e+002,7.655487e-003
7.096874e+002,8.052515e-003
7.116159e+002,8.472748e-003
7.135444e+002,8.982364e-003
7.154729e+002,9.686539e-003
7.174014e+002,1.068312e-002
7.193299e+002,1.188215e-002
7.212584e+002,1.270175e-002
7.231869e+002,1.287470e-002
7.251154e+002,1.227058e-002
7.270439e+002,1.140993e-002
7.289724e+002,1.040522e-002
7.309009e+002,9.452835e-003
7.328294e+002,8.609463e-003
7.347579e+002,7.923485e-003
7.366864e+002,7.239964e-003
7.386149e+002,6.633477e-003
7.405434e+002,6.155193e-003
7.424719e+002,5.758615e-003
7.444004e+002,5.252765e-003
7.463289e+002,4.896671e-003
7.482574e+002,4.592863e-003
7.501859e+002,4.261239e-003
7.521144e+002,4.033706e-003
7.540428e+002,3.925023e-003
7.559714e+002,3.763719e-003
7.578999e+002,3.822260e-003
7.598284e+002,3.892395e-003
7.617568e+002,3.865746e-003
7.636854e+002,3.825824e-003
7.656139e+002,3.797664e-003
7.675424e+002,3.708596e-003
7.694709e+002,3.715049e-003
7.713994e+002,3.532899e-003
7.733279e+002,3.385859e-003
7.752563e+002,3.316655e-003
7.771849e+002,3.335039e-003
7.791134e+002,3.378493e-003
7.810419e+002,3.493992e-003
7.829703e+002,3.533102e-003
7.848989e+002,3.667000e-003
7.868274e+002,4.012222e-003
7.887559e+002,4.497297e-003
7.906843e+002,4.884308e-003
7.926129e+002,5.322751e-003
7.945414e+002,5.713739e-003
7.964698e+002,6.152354e-003
7.983983e+002,6.664761e-003
8.003268e+002,7.334818e-003
8.022554e+002,8.172092e-003
8.041838e+002,9.737112e-003
8.061123e+002,1.218679e-002
8.080408e+002,1.428696e-002
8.099694e+002,1.410668e-002
8.118978e+002,1.203796e-002
8.138263e+002,9.617236e-003
8.157548e+002,8.071173e-003
8.176833e+002,7.346465e-003
8.196118e+002,7.153355e-003
8.215403e+002,7.032086e-003
8.234689e+002,7.027423e-003
8.253973e+002,7.085988e-003
8.273258e+002,7.382955e-003
8.292543e+002,7.830117e-003
8.311829e+002,8.505050e-003
8.331113e+002,9.308209e-003
8.350398e+002,1.101516e-002
8.369683e+002,1.570381e-002
8.388969e+002,2.598183e-002
8.408253e+002,3.209938e-002
8.427538e+002,2.431342e-002
8.446823e+002,1.489514e-002
8.466108e+002,1.079553e-002
8.485393e+002,9.134425e-003
8.504678e+002,8.377271e-003
8.523963e+002,7.978799e-003
8.543248e+002,7.686055e-003
8.562533e+002,7.434556e-003
8.581818e+002,7.288926e-003
8.601103e+002,7.122604e-003
8.620388e+002,7.023682e-003
8.639673e+002,6.991956e-003
8.658958e+002,7.006021e-003
8.678243e+002,6.958048e-003
8.697528e+002,6.929618e-003
8.716813e+002,6.895688e-003
8.736098e+002,6.913659e-003
8.755383e+002,6.826669e-003
8.774668e+002,6.772299e-003
8.793953e+002,6.719290e-003
8.813238e+002,6.766498e-003
8.832523e+002,6.904019e-003
8.851808e+002,7.143109e-003
8.871093e+002,7.355564e-003
8.890378e+002,7.624638e-003
8.909663e+002,8.007445e-003
8.928948e+002,8.821908e-003
8.948232e+002,1.036859e-002
8.967518e+002,1.269735e-002
8.986803e+002,1.425170e-002
9.006088e+002,1.346252e-002
9.025372e+002,1.090853e-002
9.044658e+002,8.731871e-003
9.063943e+002,7.610716e-003
9.083228e+002,7.215504e-003
9.102512e+002,7.073279e-003
9.121797e+002,7.012984e-003
9.141083e+002,6.864815e-003
9.160367e+002,6.801617e-003
9.179653e+002,6.704331e-003
9.198937e+002,6.709750e-003
9.218223e+002,6.693757e-003
9.237507e+002,6.798349e-003
9.256793e+002,6.821834e-003
9.276077e+002,6.914182e-003
9.295363e+002,7.049656e-003
9.314647e+002,7.337603e-003
9.333932e+002,7.715655e-003
9.353217e+002,8.404773e-003
9.372502e+002,9.374811e-003
9.391787e+002,1.026600e-002
9.411072e+002,1.036861e-002
9.430358e+002,1.014687e-002
9.449642e+002,9.908746e-003
9.468928e+002,9.899250e-003
9.488212e+002,1.010051e-002
9.507498e+002,1.043156e-002
9.526782e+002,1.080268e-002
9.546068e+002,1.143714e-002
9.565352e+002,1.222582e-002
9.584637e+002,1.322622e-002
9.603922e+002,1.439445e-002
9.623207e+002,1.572094e-002
9.642492e+002,1.749353e-002
9.661777e+002,2.071349e-002
9.681062e+002,2.679280e-002
9.700347e+002,3.664788e-002
9.719632e+002,4.420673e-002
9.738917e+002,4.166961e-002
9.758202e+002,3.297023e-002
9.777487e+002,2.509719e-002
9.796772e+002,1.974836e-002
9.816057e+002,1.678655e-002
9.835342e+002,1.542587e-002
9.854627e+002,1.506583e-002
9.873912e+002,1.544690e-002
9.893197e+002,1.680362e-002
9.912482e+002,1.961579e-002
9.931767e+002,2.509495e-002
9.951052e+002,3.345288e-002
9.970337e+002,3.997602e-002
9.989622e+002,3.738750e-002
1.000891e+003,2.876445e-002
1.002819e+003,2.180678e-002
1.004748e+003,1.813899e-002
1.006676e+003,1.625365e-002
1.008605e+003,1.531684e-002
1.010533e+003,1.482642e-002
1.012462e+003,1.460239e-002
1.014390e+003,1.460400e-002
1.016319e+003,1.483882e-002
1.018247e+003,1.497114e-002
1.020176e+003,1.513351e-002
1.022104e+003,1.527251e-002
1.024033e+003,1.546905e-002
1.025961e+003,1.559921e-002
1.027890e+003,1.580400e-002
1.029818e+003,1.598639e-002
1.031747e+003,1.625515e-002
1.033675e+003,1.655163e-002
1.035604e+003,1.679204e-002
1.037532e+003,1.688755e-002
1.039461e+003,1.715230e-002
1.041389e+003,1.765795e-002
1.043318e+003,1.835380e-002
1.045246e+003,1.853051e-002
1.047175e+003,1.819927e-002
1.049103e+003,1.781021e-002
1.051032e+003,1.771753e-002
1.052960e+003,1.776504e-002
1.054889e+003,1.797141e-002
1.056817e+003,1.816094e-002
1.058746e+003,1.838557e-002
1.060674e+003,1.854290e-002
1.062603e+003,1.869429e-002
1.064531e+003,1.874999e-002
1.066460e+003,1.882825e-002
1.068388e+003,1.891047e-002
1.070317e+003,1.920994e-002
1.072245e+003,1.968924e-002
1.074174e+003,2.053011e-002
1.076102e+003,2.166533e-002
1.078031e+003,2.314498e-002
1.079959e+003,2.462262e-002
1.081888e+003,2.596399e-002
1.083816e+003,2.694092e-002
1.085745e+003,2.779935e-002
1.087673e+003,2.873069e-002
1.089602e+003,2.981062e-002
1.091530e+003,3.087608e-002
1.093459e+003,3.201078e-002
1.095387e+003,3.288322e-002
1.097316e+003,3.353212e-002
1.099244e+003,3.400267e-002
1.101173e+003,3.423216e-002
1.103101e+003,3.362127e-002
1.105030e+003,3.235833e-002
1.106958e+003,3.113066e-002
1.108887e+003,3.068473e-002
1.110815e+003,3.093575e-002
1.112744e+003,3.174575e-002
1.114672e+003,3.269541e-002
1.116601e+003,3.347211e-002
1.118529e+003,3.366820e-002
1.120458e+003,3.326086e-002
1.122386e+003,3.209906e-002
1.124315e+003,3.066093e-002
1.126243e+003,2.945810e-002
1.128172e+003,2.906236e-002
1.130100e+003,2.971992e-002
1.132029e+003,3.156009e-002
1.133957e+003,3.414642e-002
1.135885e+003,3.733100e-002
1.137814e+003,4.069483e-002
1.139743e+003,4.401144e-002
1.141671e+003,4.688882e-002
1.143600e+003,4.940548e-002
1.145528e+003,5.170288e-002
1.147457e+003,5.434204e-002
1.149385e+003,5.729156e-002
1.151314e+003,6.026830e-002
1.153242e+003,6.271708e-002
1.155171e+003,6.493014e-002
1.157099e+003,6.714017e-002
1.159028e+003,6.980579e-002
1.160956e+003,7.288896e-002
1.162885e+003,7.667825e-002
1.164813e+003,8.067639e-002
1.166742e+003,8.265740e-002
1.168670e+003,7.886750e-002
1.170599e+003,7.023804e-002
1.172527e+003,6.140774e-002
1.174456e+003,5.502097e-002
1.176384e+003,5.064455e-002
1.178313e+003,4.764172e-002
1.180241e+003,4.532811e-002
1.182170e+003,4.348638e-002
1.184098e+003,4.186412e-002
1.186027e+003,4.051641e-002
1.187955e+003,3.922737e-002
1.189884e+003,3.810952e-002
1.191812e+003,3.689975e-002
1.193740e+003,3.572510e-002
1.195669e+003,3.451854e-002
1.197598e+003,3.350463e-002
1.199526e+003,3.257719e-002
1.201455e+003,3.189395e-002
1.203383e+003,3.138933e-002
1.205312e+003,3.118997e-002
1.207240e+003,3.113225e-002
1.209168e+003,3.126001e-002
1.211097e+003,3.128742e-002
1.213026e+003,3.140739e-002
1.214954e+003,3.163325e-002
1.216883e+003,3.206727e-002
1.218811e+003,3.240050e-002
1.220740e+003,3.261302e-002
1.222668e+003,3.257153e-002
1.224596e+003,3.270516e-002
1.226525e+003,3.301238e-002
1.228453e+003,3.353083e-002
1.230382e+003,3.401542e-002
1.232311e+003,3.453589e-002
1.234239e+003,3.489014e-002
1.236167e+003,3.523624e-002
1.238096e+003,3.534069e-002
1.240025e+003,3.533152e-002
1.241953e+003,3.506146e-002
1.243882e+003,3.461914e-002
1.245810e+003,3.388309e-002
1.247739e+003,3.316766e-002
1.249667e+003,3.256515e-002
1.251595e+003,3.283183e-002
1.253524e+003,3.401300e-002
1.255453e+003,3.453183e-002
1.257381e+003,3.301258e-002
1.259310e+003,3.106213e-002
1.261238e+003,2.948324e-002
1.263167e+003,2.838858e-002
1.265095e+003,2.732659e-002
1.267023e+003,2.647240e-002
1.268952e+003,2.578254e-002
1.270880e+003,2.541448e-002
1.272809e+003,2.515903e-002
1.274738e+003,2.519579e-002
1.276666e+003,2.522263e-002
1.278594e+003,2.526418e-002
1.280523e+003,2.505152e-002
1.282451e+003,2.470497e-002
1.284380e+003,2.409330e-002
1.286308e+003,2.366272e-002
1.288237e+003,2.347352e-002
1.290166e+003,2.372996e-002
1.292094e+003,2.433726e-002
1.294022e+003,2.513294e-002
1.295951e+003,2.548552e-002
1.297879e+003,2.553101e-002
1.299808e+003,2.572457e-002
1.301736e+003,2.711220e-002
1.303665e+003,2.868621e-002
1.305594e+003,2.776284e-002
1.307522e+003,2.461213e-002
1.309450e+003,2.254647e-002
1.311379e+003,2.175653e-002
1.313307e+003,2.167329e-002
1.315236e+003,2.158195e-002
1.317164e+003,2.178478e-002
1.319093e+003,2.189980e-002
1.321021e+003,2.208459e-002
1.322950e+003,2.234434e-002
1.324878e+003,2.299693e-002
1.326807e+003,2.327634e-002
1.328735e+003,2.340848e-002
1.330664e+003,2.289391e-002
1.332592e+003,2.218648e-002
1.334521e+003,2.162657e-002
1.336449e+003,2.189085e-002
1.338378e+003,2.262044e-002
1.340306e+003,2.378036e-002
1.342235e+003,2.433413e-002
1.344163e+003,2.549673e-002
1.346092e+003,2.699118e-002
1.348021e+003,2.923294e-002
1.349949e+003,3.187539e-002
1.351877e+003,3.575191e-002
1.353806e+003,4.132663e-002
1.355734e+003,4.939140e-002
1.357663e+003,5.539459e-002
1.359591e+003,5.624544e-002
1.361520e+003,5.220679e-002
1.363448e+003,4.866908e-002
1.365377e+003,4.801890e-002
1.367305e+003,5.366162e-002
1.369234e+003,6.996032e-002
1.371162e+003,1.006399e-001
1.373091e+003,1.473375e-001
1.375019e+003,1.921639e-001
1.376948e+003,1.741177e-001
1.378876e+003,1.239275e-001
1.380805e+003,8.223024e-002
1.382733e+003,5.517468e-002
1.384662e+003,3.912007e-002
1.386590e+003,3.013037e-002
1.388519e+003,2.488988e-002
1.390447e+003,2.212237e-002
1.392376e+003,2.083388e-002
1.394304e+003,2.003882e-002
1.396233e+003,1.982556e-002
1.398161e+003,1.967092e-002
1.400090e+003,1.982780e-002
1.402018e+003,1.942864e-002
1.403947e+003,1.935572e-002
1.405875e+003,1.885023e-002
1.407804e+003,1.860717e-002
1.409732e+003,1.890758e-002
1.411661e+003,1.995973e-002
1.413589e+003,2.111264e-002
1.415518e+003,2.240308e-002
1.417446e+003,2.345905e-002
1.419375e+003,2.388259e-002
1.421303e+003,2.330063e-002
1.423232e+003,2.338494e-002
1.425160e+003,2.430842e-002
1.427089e+003,2.599545e-002
1.429017e+003,2.981497e-002
1.430946e+003,3.718685e-002
1.432874e+003,4.674612e-002
1.434803e+003,5.471386e-002
1.436731e+003,5.786842e-002
1.438660e+003,5.834503e-002
1.440588e+003,6.182250e-002
1.442517e+003,7.004304e-002
1.444445e+003,8.332500e-002
1.446374e+003,9.997064e-002
1.448302e+003,1.188669e-001
1.450231e+003,1.285589e-001
1.452159e+003,1.336773e-001
1.454088e+003,1.366211e-001
1.456016e+003,1.397149e-001
1.457945e+003,1.374269e-001
1.459873e+003,1.332044e-001
1.461802e+003,1.272786e-001
1.463730e+003,1.194350e-001
1.465659e+003,1.027413e-001
1.467587e+003,8.618753e-002
1.469516e+003,6.908470e-002
1.471444e+003,5.299491e-002
1.473373e+003,3.477325e-002
1.475301e+003,2.697931e-002
1.477230e+003,2.121135e-002
1.479158e+003,1.802158e-002
1.481087e+003,1.560810e-002
1.483015e+003,1.374166e-002
1.484944e+003,1.231147e-002
1.486872e+003,1.172942e-002
1.488801e+003,1.141311e-002
1.490729e+003,1.100121e-002
1.492658e+003,9.836528e-003
1.494586e+003,9.417409e-003
1.496515e+003,9.212079e-003
1.498443e+003,8.846039e-003
1.500372e+003,8.077574e-003
1.502300e+003,7.454874e-003
1.504229e+003,6.773837e-003
1.506157e+003,7.418617e-003
1.508086e+003,8.556115e-003
1.510014e+003,7.844020e-003
1.511943e+003,7.100507e-003
1.513871e+003,6.759525e-003
1.515800e+003,6.851097e-003
1.517728e+003,6.999812e-003
1.519657e+003,6.788660e-003
1.521585e+003,7.330026e-003
1.523514e+003,6.870092e-003
1.525442e+003,6.638404e-003
1.527371e+003,6.549395e-003
1.529299e+003,6.279189e-003
1.531228e+003,6.053797e-003
1.533156e+003,6.605084e-003
1.535085e+003,6.372040e-003
1.537013e+003,5.889246e-003
1.538942e+003,6.200802e-003
1.540870e+003,7.638109e-003
1.542799e+003,7.453327e-003
1.544727e+003,7.214493e-003
1.546656e+003,6.316887e-003
1.548584e+003,6.181930e-003
1.550513e+003,6.301009e-003
1.552441e+003,6.097956e-003
1.554370e+003,6.130826e-003
1.556298e+003,5.966888e-003
1.558227e+003,6.400009e-003
1.560155e+003,7.264222e-003
1.562084e+003,6.002611e-003
1.564012e+003,5.576291e-003
1.565941e+003,5.404492e-003
1.567869e+003,5.360119e-003
1.569798e+003,5.760531e-003
1.571726e+003,5.478700e-003
1.573655e+003,5.060481e-003
1.575583e+003,5.571742e-003
1.577512e+003,5.969569e-003
1.579440e+003,5.426203e-003
1.581369e+003,5.054284e-003
1.583297e+003,4.984587e-003
1.585226e+003,4.951269e-003
1.587154e+003,4.997004e-003
1.589083e+003,5.138954e-003
1.591011e+003,5.208752e-003
1.592940e+003,5.181099e-003
1.594868e+003,5.316759e-003
1.596797e+003,5.379069e-003
1.598725e+003,5.348378e-003
1.600654e+003,5.337751e-003
1.602582e+003,5.421321e-003
1.604511e+003,5.528864e-003
1.606439e+003,5.777049e-003
1.608368e+003,5.967156e-003
1.610296e+003,5.972581e-003
1.612225e+003,5.880106e-003
1.614153e+003,5.843151e-003
1.616082e+003,6.366314e-003
1.618010e+003,6.859163e-003
1.619939e+003,6.531410e-003
1.621867e+003,6.572944e-003
1.623796e+003,7.096388e-003
1.625724e+003,7.200462e-003
1.627653e+003,7.414033e-003
1.629581e+003,7.449991e-003
1.631510e+003,7.207674e-003
1.633438e+003,7.074611e-003
1.635367e+003,8.051990e-003
1.637295e+003,8.954979e-003
1.639224e+003,8.432851e-003
1.641152e+003,8.278813e-003
1.643081e+003,8.473156e-003
1.645009e+003,8.863906e-003
1.646938e+003,1.023255e-002
1.648866e+003,1.025242e-002
1.650795e+003,9.672571e-003
1.652723e+003,1.029066e-002
1.654652e+003,1.135598e-002
1.656580e+003,1.033678e-002
1.658509e+003,9.610981e-003
1.660437e+003,9.232838e-003
1.662366e+003,9.086292e-003
1.664294e+003,8.958073e-003
1.666223e+003,8.686924e-003
1.668151e+003,8.794998e-003
1.670080e+003,9.293417e-003
1.672008e+003,9.063890e-003
1.673937e+003,8.984243e-003
1.675865e+003,9.279979e-003
1.677794e+003,9.085147e-003
1.679722e+003,9.175768e-003
1.681651e+003,9.187809e-003
1.683579e+003,9.675564e-003
1.685508e+003,1.082192e-002
1.687436e+003,1.073302e-002
1.689365e+003,1.104529e-002
1.691293e+003,1.119222e-002
1.693222e+003,1.115789e-002
1.695150e+003,1.209737e-002
1.697079e+003,1.385585e-002
1.699007e+003,1.428575e-002
1.700936e+003,1.658361e-002
1.702864e+003,1.758946e-002
1.704793e+003,1.906428e-002
1.706721e+003,2.125538e-002
1.708650e+003,2.251717e-002
1.710578e+003,2.345318e-002
1.712507e+003,2.422342e-002
1.714435e+003,2.493998e-002
1.716364e+003,2.629891e-002
1.718292e+003,2.821646e-002
1.720221e+003,2.918126e-002
1.722149e+003,3.048789e-002
1.724078e+003,3.337596e-002
1.726006e+003,3.648168e-002
1.727935e+003,4.051927e-002
1.729863e+003,4.678287e-002
1.731792e+003,5.321446e-002
1.733720e+003,6.467830e-002
1.735649e+003,8.069153e-002
1.737577e+003,8.895565e-002
1.739506e+003,1.035565e-001
1.741434e+003,1.165233e-001
1.743363e+003,1.246449e-001
1.745291e+003,1.274371e-001
1.747220e+003,1.246231e-001
1.749148e+003,1.143663e-001
1.751077e+003,9.826852e-002
1.753005e+003,8.044562e-002
1.754934e+003,6.693369e-002
1.756862e+003,5.107433e-002
1.758791e+003,3.878303e-002
1.760719e+003,3.043605e-002
1.762648e+003,2.262092e-002
1.764576e+003,1.765691e-002
1.766505e+003,1.447377e-002
1.768433e+003,1.197492e-002
1.770362e+003,1.064016e-002
1.772290e+003,9.645119e-003
1.774219e+003,8.525396e-003
1.776147e+003,7.331226e-003
1.778076e+003,6.490612e-003
1.780004e+003,6.201185e-003
1.781933e+003,5.828887e-003
1.783861e+003,5.438925e-003
1.785790e+003,5.045621e-003
1.787718e+003,4.533545e-003
1.789646e+003,4.235906e-003
1.791575e+003,4.347304e-003
1.793504e+003,4.319181e-003
1.795432e+003,3.939563e-003
1.797361e+003,3.495811e-003
1.799289e+003,3.375243e-003
1.801218e+003,3.329031e-003
1.803146e+003,3.028508e-003
1.805074e+003,2.661425e-003
1.807003e+003,2.478587e-003
1.808932e+003,2.351614e-003
1.810860e+003,2.364636e-003
1.812789e+003,2.132555e-003
1.814717e+003,1.525946e-003
1.816646e+003,1.233389e-003
1.818574e+003,1.563377e-003
1.820502e+003,1.796437e-003
1.822431e+003,1.727251e-003
1.824360e+003,1.633779e-003
1.826288e+003,1.565433e-003
1.828217e+003,1.433320e-003
1.830145e+003,1.718797e-003
1.832073e+003,1.424447e-003
1.834002e+003,1.124772e-003
1.835931e+003,9.694104e-004
1.837859e+003,8.741491e-004
1.839788e+003,8.261015e-004
1.841716e+003,8.892370e-004
1.843645e+003,9.291077e-004
1.845573e+003,1.150503e-003
1.847501e+003,9.872392e-004
1.849430e+003,7.660810e-004
1.851359e+003,4.882386e-004
1.853287e+003,4.004973e-004
1.855216e+003,2.655571e-004
1.857144e+003,1.591805e-004
1.859073e+003,6.415765e-005
1.861001e+003,2.120591e-004
1.862929e+003,1.670287e-004
1.864858e+003,2.261198e-004
1.866787e+003,2.736710e-004
1.868715e+003,3.071816e-004
1.870644e+003,4.178379e-005
1.872572e+003,-2.730452e-005
1.874500e+003,-2.003633e-004
1.876429e+003,-3.994908e-004
1.878357e+003,-5.213968e-004
1.880286e+003,-4.827394e-004
1.882215e+003,-4.993458e-004
1.884143e+003,-2.714479e-004
1.886072e+003,-4.907311e-004
1.888000e+003,-5.527586e-004
1.889928e+003,-2.714945e-004
1.891857e+003,-2.337969e-004
1.893785e+003,-4.256531e-004
1.895714e+003,-2.865135e-004
1.897643e+003,-5.319309e-004
1.899571e+003,-6.736210e-004
1.901500e+003,-6.610444e-004
1.903428e+003,-6.484846e-004
1.905356e+003,-6.359359e-004
1.907285e+003,-6.234040e-004
1.909213e+003,-6.108852e-004
1.911142e+003,-5.983813e-004
1.913071e+003,-5.858880e-004
1.914999e+003,-5.734120e-004
1.916927e+003,-5.609477e-004
1.918856e+003,-5.484996e-004
1.920784e+003,-5.360642e-004
1.922713e+003,-5.236422e-004
1.924641e+003,-5.112374e-004
1.926570e+003,-4.988429e-004
1.928499e+003,-4.864642e-004
1.930427e+003,-4.740995e-004
1.932355e+003,-4.617507e-004
1.934284e+003,-4.494120e-004
1.936212e+003,-4.370883e-004
1.938141e+003,-4.247786e-004
1.940070e+003,-4.124846e-004
1.941998e+003,-4.002047e-004
1.943927e+003,-3.879368e-004
1.945855e+003,-3.756848e-004
1.947783e+003,-3.634449e-004
1.949712e+003,-3.512208e-004
1.951640e+003,-3.390112e-004
1.953569e+003,-3.268123e-004
1.955498e+003,-3.146306e-004
1.957426e+003,-3.024600e-004
1.959354e+003,-2.903063e-004
1.961283e+003,-2.781674e-004
1.963211e+003,-2.660416e-004
1.965140e+003,-2.539270e-004
1.967068e+003,-2.418291e-004
1.968997e+003,-2.297442e-004
1.970926e+003,-2.176743e-004
1.972854e+003,-2.056174e-004
1.974782e+003,-1.935735e-004
1.976711e+003,-1.815464e-004
1.978639e+003,-1.695300e-004
1.980568e+003,-1.575309e-004
1.982496e+003,-1.455448e-004
1.984425e+003,-1.335721e-004
1.986354e+003,-1.216135e-004
1.988282e+003,-1.096684e-004
1.990210e+003,-9.773858e-005
1.992139e+003,-8.582277e-005
1.994067e+003,-7.392047e-005
1.995996e+003,-6.203121e-005
1.997924e+003,-5.015684e-005
1.999853e+003,-3.829552e-005
2.001781e+003,-2.644910e-005
2.003710e+003,-1.461757e-005
2.005638e+003,-2.800953e-006
2.007567e+003,9.004492e-006
2.009495e+003,2.079504e-005
2.011424e+003,3.257254e-005
2.013352e+003,4.433375e-005
2.015281e+003,5.608145e-005
2.017209e+003,6.781612e-005
2.019138e+003,7.953541e-005
2.021066e+003,9.124260e-005
2.022995e+003,1.029344e-004
2.024923e+003,1.146132e-004
2.026852e+003,1.262752e-004
2.028781e+003,1.379261e-004
2.030709e+003,1.495639e-004
2.032637e+003,1.611849e-004
2.034566e+003,1.727929e-004
2.036494e+003,1.843860e-004
2.038423e+003,1.959680e-004
2.040351e+003,2.075331e-004
2.042280e+003,2.190857e-004
2.044208e+003,2.306225e-004
2.046137e+003,2.421471e-004
2.048065e+003,2.536559e-004
2.049994e+003,2.651522e-004
2.051922e+003,2.766354e-004
2.053851e+003,2.881042e-004
2.055779e+003,2.995576e-004
2.057708e+003,3.109961e-004
2.059636e+003,3.224234e-004
2.061565e+003,3.338340e-004
2.063493e+003,3.452334e-004
2.065422e+003,3.566160e-004
2.067350e+003,3.679856e-004
2.069279e+003,3.793407e-004
2.071207e+003,3.906838e-004
2.073136e+003,4.020128e-004
2.075064e+003,4.133242e-004
2.076993e+003,4.246249e-004
2.078921e+003,4.359093e-004
2.080850e+003,4.471815e-004
2.082778e+003,4.584412e-004
2.084707e+003,4.696846e-004
2.086635e+003,4.809126e-004
2.088564e+003,4.921276e-004
2.090492e+003,5.033296e-004
2.092421e+003,5.145166e-004
2.094349e+003,5.256925e-004
2.096278e+003,5.368516e-004
2.098206e+003,5.479958e-004
2.100135e+003,5.591270e-004
2.102063e+003,5.702451e-004
2.103992e+003,5.813502e-004
2.105920e+003,5.924385e-004
2.107849e+003,6.035138e-004
2.109777e+003,6.145742e-004
2.111706e+003,6.256234e-004
2.113634e+003,6.366563e-004
2.115563e+003,6.476757e-004
2.117491e+003,6.586816e-004
2.119420e+003,6.696717e-004
2.121348e+003,6.806478e-004
2.123277e+003,6.916132e-004
2.125205e+003,7.025641e-004
2.127134e+003,7.134974e-004
2.129062e+003,7.244186e-004
2.130991e+003,7.353248e-004
2.132919e+003,7.462190e-004
2.134848e+003,7.570991e-004
2.136776e+003,7.679635e-004
2.138705e+003,7.788152e-004
2.140633e+003,7.896521e-004
2.142562e+003,8.004745e-004
2.144490e+003,8.112853e-004
2.146419e+003,8.220812e-004
2.148347e+003,8.328604e-004
2.150276e+003,8.436283e-004
2.152204e+003,8.543790e-004
2.154133e+003,8.651190e-004
2.156061e+003,8.758446e-004
2.157990e+003,8.865567e-004
2.159918e+003,8.972539e-004
2.161847e+003,9.079361e-004
2.163775e+003,9.186035e-004
2.165704e+003,9.292597e-004
2.167632e+003,9.399010e-004
2.169561e+003,9.505274e-004
2.171489e+003,9.611407e-004
2.173418e+003,9.717392e-004
2.175346e+003,9.823246e-004
2.177275e+003,9.928970e-004
2.179203e+003,1.003453e-003
2.181132e+003,1.013995e-003
2.183060e+003,1.024523e-003
2.184989e+003,1.035037e-003
2.186917e+003,1.045539e-003
2.188846e+003,1.056028e-003
2.190774e+003,1.066500e-003
2.192703e+003,1.076957e-003
2.194631e+003,1.087401e-003
2.196560e+003,1.097833e-003
2.198488e+003,1.108251e-003
2.200417e+003,1.118654e-003
2.202345e+003,1.129042e-003
2.204274e+003,1.139415e-003
2.206202e+003,1.149777e-003
2.208131e+003,1.160122e-003
2.210059e+003,1.170456e-003
2.211988e+003,1.180775e-003
2.213916e+003,1.191078e-003
2.215845e+003,1.201368e-003
2.217773e+003,1.211647e-003
2.219702e+003,1.221910e-003
2.221630e+003,1.232158e-003
2.223559e+003,1.242392e-003
2.225487e+003,1.252610e-003
2.227416e+003,1.262819e-003
2.229344e+003,1.273010e-003
2.231273e+003,1.283189e-003
2.233201e+003,1.293354e-003
2.235130e+003,1.303503e-003
2.237058e+003,1.313640e-003
2.238987e+003,1.323763e-003
2.240915e+003,1.333872e-003
2.242844e+003,1.343966e-003
2.244772e+003,1.354047e-003
2.246701e+003,1.364111e-003
2.248629e+003,1.374165e-003
2.250558e+003,1.384202e-003
2.252486e+003,1.394227e-003
2.254415e+003,1.404237e-003
2.256343e+003,1.414232e-003
2.258272e+003,1.424214e-003
2.260200e+003,1.434183e-003
2.262129e+003,1.444139e-003
2.264057e+003,1.454078e-003
2.265986e+003,1.464005e-003
2.267914e+003,1.473915e-003
2.269843e+003,1.483815e-003
2.271771e+003,1.493700e-003
2.273700e+003,1.503569e-003
2.275628e+003,1.513424e-003
2.277557e+003,1.523267e-003
2.279485e+003,1.533095e-003
2.281414e+003,1.542908e-003
2.283342e+003,1.552709e-003
2.285271e+003,1.562495e-003
2.287199e+003,1.572265e-003
2.289128e+003,1.582024e-003
2.291056e+003,1.591769e-003
2.292985e+003,1.601500e-003
2.294913e+003,1.611215e-003
2.296842e+003,1.620916e-003
2.298770e+003,1.630603e-003
2.300699e+003,1.640278e-003
2.302627e+003,1.649938e-003
2.304556e+003,1.659584e-003
2.306484e+003,1.669216e-003
2.308413e+003,1.678833e-003
2.310341e+003,1.688435e-003
2.312270e+003,1.698026e-003
2.314198e+003,1.707603e-003
2.316127e+003,1.717165e-003
2.318055e+003,1.726710e-003
2.319984e+003,1.736244e-003
2.321912e+003,1.745766e-003
2.323841e+003,1.755271e-003
2.325769e+003,1.764763e-003
2.327698e+003,1.774239e-003
2.329626e+003,1.783702e-003
2.331555e+003,1.793151e-003
2.333483e+003,1.802590e-003
2.335412e+003,1.812011e-003
2.337340e+003,1.821419e-003
2.339269e+003,1.830810e-003
2.341197e+003,1.840189e-003
2.343126e+003,1.849556e-003
2.345054e+003,1.858906e-003
2.346983e+003,1.868246e-003
2.348911e+003,1.877569e-003
2.350840e+003,1.886878e-003
2.352768e+003,1.896172e-003
2.354697e+003,1.905454e-003
2.356625e+003,1.914723e-003
2.358554e+003,1.923976e-003
2.360482e+003,1.933215e-003
2.362411e+003,1.942439e-003
2.364339e+003,1.951652e-003
2.366268e+003,1.960849e-003
2.368196e+003,1.970033e-003
2.370125e+003,1.979201e-003
2.372053e+003,1.988355e-003
2.373982e+003,1.997499e-003
2.375910e+003,2.006624e-003
2.377839e+003,2.015740e-003
2.379767e+003,2.024837e-003
2.381696e+003,2.033921e-003
2.383624e+003,2.042992e-003
2.385553e+003,2.052050e-003
2.387481e+003,2.061096e-003
2.389410e+003,2.070123e-003
2.391338e+003,2.079137e-003
2.393267e+003,2.088137e-003
2.395195e+003,2.097127e-003
2.397124e+003,2.106099e-003
2.399052e+003,2.115060e-003
2.400981e+003,2.214201e-003
2.402909e+003,2.052117e-003
2.404838e+003,1.939687e-003
2.406766e+003,2.181816e-003
2.408695e+003,2.551276e-003
2.410623e+003,2.565474e-003
2.412552e+003,2.550923e-003
2.414480e+003,2.507475e-003
2.416409e+003,2.500796e-003
2.418337e+003,2.436447e-003
2.420266e+003,2.442765e-003
2.422194e+003,2.602277e-003
2.424123e+003,2.765971e-003
2.426051e+003,2.786046e-003
2.427979e+003,2.722676e-003
2.429908e+003,2.758035e-003
2.431837e+003,3.027770e-003
2.433765e+003,2.946123e-003
2.435694e+003,2.787765e-003
2.437622e+003,2.718659e-003
2.439551e+003,2.724980e-003
2.441479e+003,2.816258e-003
2.443407e+003,2.893144e-003
2.445336e+003,2.950353e-003
2.447265e+003,2.889639e-003
2.449193e+003,2.877989e-003
2.451122e+003,3.090121e-003
2.453050e+003,3.104331e-003
2.454979e+003,3.008679e-003
2.456907e+003,3.021673e-003
2.458836e+003,2.942098e-003
2.460764e+003,2.684452e-003
2.462693e+003,2.597077e-003
2.464621e+003,2.684077e-003
2.466550e+003,2.668591e-003
2.468478e+003,2.503860e-003
2.470406e+003,2.470807e-003
2.472335e+003,2.531210e-003
2.474264e+003,2.746484e-003
2.476192e+003,2.734898e-003
2.478121e+003,2.751176e-003
2.480049e+003,2.698193e-003
2.481978e+003,2.661663e-003
2.483906e+003,2.949820e-003
2.485835e+003,3.150056e-003
2.487763e+003,3.135655e-003
2.489692e+003,3.199498e-003
2.491620e+003,3.151168e-003
2.493549e+003,3.165670e-003
2.495477e+003,3.118605e-003
2.497406e+003,3.228994e-003
2.499334e+003,3.153056e-003
2.501263e+003,3.082110e-003
2.503191e+003,3.266833e-003
2.505120e+003,3.173644e-003
2.507048e+003,3.110855e-003
2.508977e+003,3.407610e-003
2.510905e+003,3.423320e-003
2.512833e+003,3.407239e-003
2.514762e+003,3.656402e-003
2.516691e+003,3.735154e-003
2.518619e+003,3.547786e-003
2.520548e+003,3.474633e-003
2.522476e+003,3.566025e-003
2.524405e+003,3.843565e-003
2.526333e+003,3.995568e-003
2.528261e+003,4.131843e-003
2.530190e+003,4.152143e-003
2.532119e+003,4.341717e-003
2.534047e+003,4.610781e-003
2.535976e+003,4.548081e-003
2.537904e+003,4.379288e-003
2.539833e+003,4.513132e-003
2.541761e+003,4.623133e-003
2.543689e+003,4.758111e-003
2.545618e+003,4.990548e-003
2.547547e+003,5.347616e-003
2.549475e+003,5.549373e-003
2.551404e+003,5.680506e-003
2.553332e+003,5.744128e-003
2.555260e+003,5.762322e-003
2.557189e+003,5.768330e-003
2.559117e+003,5.803810e-003
2.561046e+003,5.849070e-003
2.562975e+003,5.935366e-003
2.564903e+003,6.181101e-003
2.566832e+003,6.493130e-003
2.568760e+003,6.680927e-003
2.570688e+003,6.983158e-003
2.572617e+003,7.140178e-003
2.574546e+003,7.335749e-003
2.576474e+003,7.655403e-003
2.578403e+003,8.173504e-003
2.580331e+003,8.539146e-003
2.582260e+003,8.627400e-003
2.584188e+003,8.478312e-003
2.586116e+003,8.327713e-003
2.588045e+003,8.249262e-003
2.589974e+003,8.103237e-003
2.591902e+003,7.965591e-003
2.593831e+003,7.966480e-003
2.595759e+003,7.869387e-003
2.597688e+003,7.993097e-003
2.599616e+003,8.138450e-003
2.601544e+003,8.194781e-003
2.603473e+003,8.349549e-003
2.605402e+003,8.663875e-003
2.607330e+003,8.933548e-003
2.609259e+003,9.202361e-003
2.611187e+003,9.466405e-003
2.613115e+003,9.717942e-003
2.615044e+003,9.908199e-003
2.616972e+003,1.014995e-002
2.618901e+003,1.014450e-002
2.620830e+003,1.019040e-002
2.622758e+003,1.025490e-002
2.624687e+003,1.026618e-002
2.626615e+003,1.021723e-002
2.628543e+003,1.027623e-002
2.630472e+003,1.039867e-002
2.632400e+003,1.049328e-002
2.634329e+003,1.053198e-002
2.636258e+003,1.066902e-002
2.638186e+003,1.077801e-002
2.640115e+003,1.089882e-002
2.642043e+003,1.108664e-002
2.643971e+003,1.124503e-002
2.645900e+003,1.142502e-002
2.647828e+003,1.167618e-002
2.649757e+003,1.182705e-002
2.651686e+003,1.199781e-002
2.653614e+003,1.226791e-002
2.655542e+003,1.253286e-002
2.657471e+003,1.257570e-002
2.659399e+003,1.255456e-002
2.661328e+003,1.248907e-002
2.663256e+003,1.227276e-002
2.665185e+003,1.200250e-002
2.667114e+003,1.193172e-002
2.669042e+003,1.195655e-002
2.670970e+003,1.202983e-002
2.672899e+003,1.221161e-002
2.674827e+003,1.236170e-002
2.676756e+003,1.241363e-002
2.678685e+003,1.239027e-002
2.680613e+003,1.230521e-002
2.682542e+003,1.230811e-002
2.684470e+003,1.225534e-002
2.686398e+003,1.218897e-002
2.688327e+003,1.220505e-002
2.690255e+003,1.222157e-002
2.692184e+003,1.207147e-002
2.694113e+003,1.191255e-002
2.696041e+003,1.191142e-002
2.697969e+003,1.194213e-002
2.699898e+003,1.204374e-002
2.701826e+003,1.227682e-002
2.703755e+003,1.252340e-002
2.705683e+003,1.285188e-002
2.707612e+003,1.321740e-002
2.709541e+003,1.362487e-002
2.711469e+003,1.410967e-002
2.713397e+003,1.474153e-002
2.715326e+003,1.555425e-002
2.717254e+003,1.652046e-002
2.719183e+003,1.755314e-002
2.721111e+003,1.836367e-002
2.723040e+003,1.847227e-002
2.724969e+003,1.797367e-002
2.726897e+003,1.723015e-002
2.728825e+003,1.648566e-002
2.730754e+003,1.587199e-002
2.732682e+003,1.535877e-002
2.734611e+003,1.491998e-002
2.736539e+003,1.454393e-002
2.738468e+003,1.409673e-002
2.740396e+003,1.369952e-002
2.742325e+003,1.335156e-002
2.744253e+003,1.317487e-002
2.746182e+003,1.302976e-002
2.748110e+003,1.285443e-002
2.750039e+003,1.277030e-002
2.751967e+003,1.270628e-002
2.753896e+003,1.279624e-002
2.755824e+003,1.306970e-002
2.757753e+003,1.335910e-002
2.759681e+003,1.356594e-002
2.761610e+003,1.379378e-002
2.763538e+003,1.405832e-002
2.765467e+003,1.423709e-002
2.767395e+003,1.442929e-002
2.769324e+003,1.466636e-002
2.771252e+003,1.499054e-002
2.773181e+003,1.537119e-002
2.775109e+003,1.585478e-002
2.777038e+003,1.643247e-002
2.778966e+003,1.709548e-002
2.780895e+003,1.786347e-002
2.782823e+003,1.866368e-002
2.784752e+003,1.958199e-002
2.786680e+003,2.077939e-002
2.788609e+003,2.211482e-002
2.790537e+003,2.343159e-002
2.792466e+003,2.463150e-002
2.794394e+003,2.567429e-002
2.796323e+003,2.654776e-002
2.798251e+003,2.753460e-002
2.800180e+003,2.879679e-002
2.802108e+003,3.052082e-002
2.804037e+003,3.267096e-002
2.805965e+003,3.494244e-002
2.807894e+003,3.710513e-002
2.809822e+003,3.913978e-002
2.811751e+003,4.114065e-002
2.813679e+003,4.343555e-002
2.815608e+003,4.612432e-002
2.817536e+003,4.941705e-002
2.819465e+003,5.357403e-002
2.821393e+003,5.873856e-002
2.823322e+003,6.528211e-002
2.825250e+003,7.397193e-002
2.827179e+003,8.601083e-002
2.829107e+003,1.035408e-001
2.831036e+003,1.290237e-001
2.832964e+003,1.627954e-001
2.834893e+003,1.989802e-001
2.836821e+003,2.260671e-001
2.838750e+003,2.362540e-001
2.840678e+003,2.314351e-001
2.842607e+003,2.200481e-001
2.844535e+003,2.116996e-001
2.846464e+003,2.117977e-001
2.848392e+003,2.195407e-001
2.850321e+003,2.304036e-001
2.852249e+003,2.384089e-001
2.854178e+003,2.394783e-001
2.856106e+003,2.344532e-001
2.858035e+003,2.292026e-001
2.859963e+003,2.308716e-001
2.861892e+003,2.425109e-001
2.863820e+003,2.573733e-001
2.865749e+003,2.628446e-001
2.867677e+003,2.561194e-001
2.869606e+003,2.453001e-001
2.871534e+003,2.361037e-001
2.873463e+003,2.302610e-001
2.875391e+003,2.284862e-001
2.877320e+003,2.274837e-001
2.879248e+003,2.237484e-001
2.881177e+003,2.188251e-001
2.883105e+003,2.155330e-001
2.885034e+003,2.148316e-001
2.886962e+003,2.166387e-001
2.888891e+003,2.207960e-001
2.890819e+003,2.279759e-001
2.892748e+003,2.392140e-001
2.894676e+003,2.552572e-001
2.896605e+003,2.761960e-001
2.898533e+003,3.011809e-001
2.900462e+003,3.289002e-001
2.902390e+003,3.582243e-001
2.904319e+003,3.877895e-001
2.906247e+003,4.158979e-001
2.908176e+003,4.433842e-001
2.910104e+003,4.759046e-001
2.912033e+003,5.199746e-001
2.913961e+003,5.730618e-001
2.915890e+003,6.181154e-001
2.917818e+003,6.353468e-001
2.919747e+003,6.236974e-001
2.921675e+003,5.976313e-001
2.923604e+003,5.659465e-001
2.925532e+003,5.277023e-001
2.927461e+003,4.816608e-001
2.929389e+003,4.316049e-001
2.931318e+003,3.834832e-001
2.933246e+003,3.418365e-001
2.935175e+003,3.089036e-001
2.937103e+003,2.861355e-001
2.939032e+003,2.754038e-001
2.940960e+003,2.793425e-001
2.942889e+003,2.995963e-001
2.944817e+003,3.337960e-001
2.946746e+003,3.723109e-001
2.948674e+003,3.983322e-001
2.950603e+003,3.972305e-001
2.952531e+003,3.731399e-001
2.954460e+003,3.457989e-001
2.956388e+003,3.301732e-001
2.958317e+003,3.253573e-001
2.960245e+003,3.177077e-001
2.962174e+003,2.936385e-001
2.964102e+003,2.560964e-001
2.966031e+003,2.169702e-001
2.967959e+003,1.814217e-001
2.969888e+003,1.499428e-001
2.971816e+003,1.231855e-001
2.973745e+003,1.013509e-001
2.975673e+003,8.412214e-002
2.977602e+003,7.070610e-002
2.979530e+003,6.032084e-002
2.981459e+003,5.213525e-002
2.983387e+003,4.575548e-002
2.985316e+003,4.087706e-002
2.987244e+003,3.702982e-002
2.989173e+003,3.407981e-002
2.991101e+003,3.219903e-002
2.993030e+003,3.122145e-002
2.994958e+003,3.100823e-002
2.996887e+003,3.154406e-002
2.998815e+003,3.269523e-002
3.000744e+003,3.388099e-002
3.002672e+003,3.470610e-002
3.004601e+003,3.493100e-002
3.006529e+003,3.420579e-002
3.008458e+003,3.255446e-002
3.010386e+003,3.028695e-002
3.012315e+003,2.742788e-002
3.014243e+003,2.443183e-002
3.016172e+003,2.161546e-002
3.018100e+003,1.907169e-002
3.020029e+003,1.691177e-002
3.021957e+003,1.525922e-002
3.023886e+003,1.401028e-002
3.025814e+003,1.295418e-002
3.027743e+003,1.206143e-002
3.029671e+003,1.149528e-002
3.031600e+003,1.106046e-002
3.033528e+003,1.059478e-002
3.035457e+003,1.014771e-002
3.037385e+003,9.746473e-003
3.039314e+003,9.475813e-003
3.041242e+003,9.394826e-003
3.043171e+003,9.187938e-003
3.045099e+003,8.975653e-003
3.047028e+003,8.894272e-003
3.048956e+003,8.867480e-003
3.050885e+003,8.718926e-003
3.052813e+003,8.642662e-003
3.054742e+003,8.702819e-003
3.056670e+003,8.612226e-003
3.058599e+003,8.454683e-003
3.060527e+003,8.354875e-003
3.062456e+003,8.319087e-003
3.064384e+003,8.322552e-003
3.066313e+003,8.230460e-003
3.068241e+003,8.223466e-003
3.070170e+003,8.124963e-003
3.072098e+003,7.881560e-003
3.074027e+003,7.737081e-003
3.075955e+003,7.717467e-003
3.077884e+003,7.584213e-003
3.079812e+003,7.418039e-003
3.081741e+003,7.270854e-003
3.083669e+003,7.252885e-003
3.085598e+003,7.164874e-003
3.087526e+003,7.040547e-003
3.089455e+003,7.079345e-003
3.091383e+003,7.165070e-003
3.093312e+003,7.104183e-003
3.095240e+003,7.119777e-003
3.097169e+003,7.102760e-003
3.099097e+003,7.038599e-003
3.101026e+003,7.154475e-003
3.102954e+003,7.237086e-003
3.104883e+003,7.075664e-003
3.106811e+003,6.998611e-003
3.108740e+003,6.982498e-003
3.110668e+003,7.029698e-003
3.112597e+003,7.089832e-003
3.114525e+003,7.077310e-003
3.116454e+003,7.124409e-003
3.118382e+003,7.207599e-003
3.120311e+003,7.192702e-003
3.122239e+003,7.244367e-003
3.124168e+003,7.207092e-003
3.126096e+003,7.225874e-003
3.128025e+003,7.339257e-003
3.129953e+003,7.352830e-003
3.131882e+003,7.422836e-003
3.133810e+003,7.595594e-003
3.135739e+003,7.612942e-003
3.137667e+003,7.588507e-003
3.139596e+003,7.630595e-003
3.141524e+003,7.652946e-003
3.143453e+003,7.676767e-003
3.145381e+003,7.717692e-003
3.147310e+003,7.693378e-003
3.149238e+003,7.727864e-003
3.151167e+003,7.774075e-003
3.153095e+003,7.769133e-003
3.155024e+003,7.708141e-003
3.156952e+003,7.639114e-003
3.158881e+003,7.546654e-003
3.160809e+003,7.627471e-003
3.162738e+003,7.675266e-003
3.164666e+003,7.705806e-003
3.166594e+003,7.759974e-003
3.168523e+003,7.871938e-003
3.170452e+003,7.962811e-003
3.172380e+003,7.985661e-003
3.174309e+003,7.981805e-003
3.176237e+003,8.037502e-003
3.178166e+003,8.149185e-003
3.180094e+003,8.229906e-003
3.182022e+003,8.226653e-003
3.183951e+003,8.288916e-003
3.185880e+003,8.366978e-003
3.187808e+003,8.357313e-003
3.189737e+003,8.362949e-003
3.191665e+003,8.502625e-003
3.193594e+003,8.576086e-003
3.195522e+003,8.635426e-003
3.197450e+003,8.701926e-003
3.199379e+003,8.637280e-003
3.201308e+003,8.574774e-003
3.203236e+003,8.535009e-003
3.205165e+003,8.429731e-003
3.207093e+003,8.372052e-003
3.209021e+003,8.364391e-003
3.210950e+003,8.268366e-003
3.212878e+003,8.177223e-003
3.214807e+003,8.195492e-003
3.216736e+003,8.162058e-003
3.218664e+003,8.127823e-003
3.220593e+003,8.054365e-003
3.222521e+003,7.909690e-003
3.224449e+003,7.819754e-003
3.226378e+003,7.791809e-003
3.228307e+003,7.780611e-003
3.230235e+003,7.746803e-003
3.232164e+003,7.713906e-003
3.234092e+003,7.625665e-003
3.236021e+003,7.519090e-003
3.237949e+003,7.490570e-003
3.239877e+003,7.537989e-003
3.241806e+003,7.589750e-003
3.243735e+003,7.651874e-003
3.245663e+003,7.588790e-003
3.247592e+003,7.503351e-003
3.249520e+003,7.521460e-003
3.251448e+003,7.448565e-003
3.253377e+003,7.650502e-003
3.255305e+003,7.889150e-003
3.257234e+003,7.888375e-003
3.259163e+003,7.788020e-003
3.261091e+003,7.775056e-003
3.263020e+003,7.807360e-003
3.264948e+003,7.981413e-003
3.266876e+003,8.068634e-003
3.268805e+003,8.041012e-003
3.270733e+003,8.060709e-003
3.272662e+003,8.204929e-003
3.274591e+003,8.339657e-003
3.276519e+003,8.380160e-003
3.278448e+003,8.260633e-003
3.280376e+003,8.245765e-003
3.282304e+003,8.418425e-003
3.284233e+003,8.531958e-003
3.286161e+003,8.413255e-003
3.288090e+003,8.427702e-003
3.290019e+003,8.566484e-003
3.291947e+003,8.601198e-003
3.293875e+003,8.471822e-003
3.295804e+003,8.512392e-003
3.297732e+003,8.570487e-003
3.299661e+003,8.475059e-003
3.301589e+003,8.537111e-003
3.303518e+003,8.595061e-003
3.305447e+003,8.479163e-003
3.307375e+003,8.423314e-003
3.309303e+003,8.501985e-003
3.311232e+003,8.489192e-003
3.313160e+003,8.475160e-003
3.315089e+003,8.487032e-003
3.317018e+003,8.437991e-003
3.318946e+003,8.260059e-003
3.320875e+003,8.151924e-003
3.322803e+003,8.229432e-003
3.324731e+003,8.388898e-003
3.326660e+003,8.384247e-003
3.328588e+003,8.396124e-003
3.330517e+003,8.481530e-003
3.332446e+003,8.571001e-003
3.334374e+003,8.669078e-003
3.336302e+003,8.712064e-003
3.338231e+003,8.635560e-003
3.340159e+003,8.601367e-003
3.342088e+003,8.661184e-003
3.344016e+003,8.671615e-003
3.345945e+003,8.609054e-003
3.347874e+003,8.605453e-003
3.349802e+003,8.675908e-003
3.351730e+003,8.664088e-003
3.353659e+003,8.602436e-003
3.355587e+003,8.574070e-003
3.357516e+003,8.449719e-003
3.359444e+003,8.379004e-003
3.361373e+003,8.511320e-003
3.363302e+003,8.514557e-003
3.365230e+003,8.498930e-003
3.367158e+003,8.483834e-003
3.369087e+003,8.419454e-003
3.371015e+003,8.303704e-003
3.372944e+003,8.264951e-003
3.374872e+003,8.251533e-003
3.376801e+003,8.136244e-003
3.378729e+003,8.034701e-003
3.380658e+003,8.001038e-003
3.382586e+003,8.046796e-003
3.384515e+003,8.098090e-003
3.386443e+003,7.881332e-003
3.388372e+003,7.821295e-003
3.390300e+003,7.893171e-003
3.392229e+003,7.980970e-003
3.394157e+003,7.945472e-003
3.396086e+003,7.986221e-003
3.398014e+003,8.004034e-003
3.399943e+003,7.923720e-003
3.401871e+003,7.776579e-003
3.403800e+003,7.686222e-003
3.405728e+003,7.737587e-003
3.407657e+003,7.700030e-003
3.409585e+003,7.662193e-003
3.411514e+003,7.763890e-003
3.413442e+003,7.877121e-003
3.415371e+003,7.685715e-003
3.417299e+003,7.514710e-003
3.419228e+003,7.814629e-003
3.421156e+003,7.996345e-003
3.423085e+003,7.820385e-003
3.425013e+003,7.666361e-003
3.426942e+003,7.643411e-003
3.428870e+003,7.585206e-003
3.430799e+003,7.524311e-003
3.432727e+003,7.467090e-003
3.434656e+003,7.482157e-003
3.436584e+003,7.566560e-003
3.438513e+003,7.533717e-003
3.440441e+003,7.471647e-003
3.442370e+003,7.672249e-003
3.444298e+003,7.586877e-003
3.446227e+003,7.753273e-003
3.448155e+003,7.839540e-003
3.450084e+003,7.471976e-003
3.452012e+003,7.286781e-003
3.453941e+003,7.491515e-003
3.455869e+003,7.507009e-003
3.457798e+003,7.472907e-003
3.459726e+003,7.490327e-003
3.461655e+003,7.657534e-003
3.463583e+003,7.747467e-003
3.465512e+003,7.673983e-003
3.467440e+003,7.584902e-003
3.469369e+003,7.527204e-003
3.471297e+003,7.490594e-003
3.473226e+003,7.504785e-003
3.475154e+003,7.432637e-003
3.477083e+003,7.281620e-003
3.479011e+003,7.288307e-003
3.480940e+003,7.505309e-003
3.482868e+003,7.565294e-003
3.484797e+003,7.243461e-003
3.486725e+003,6.984141e-003
3.488654e+003,6.938050e-003
3.490582e+003,6.767296e-003
3.492511e+003,6.762994e-003
3.494439e+003,6.779389e-003
3.496368e+003,6.741261e-003
3.498296e+003,6.545786e-003
3.500225e+003,6.463552e-003
3.502153e+003,6.793773e-003
3.504082e+003,6.806226e-003
3.506010e+003,6.212427e-003
3.507939e+003,6.234067e-003
3.509867e+003,6.484963e-003
3.511796e+003,6.216005e-003
3.513724e+003,6.012260e-003
3.515653e+003,6.000278e-003
3.517581e+003,6.026107e-003
3.519510e+003,5.932328e-003
3.521438e+003,6.034232e-003
3.523367e+003,6.494662e-003
3.525295e+003,6.420993e-003
3.527224e+003,6.431896e-003
3.529152e+003,6.326553e-003
3.531081e+003,5.801182e-003
3.533009e+003,5.152104e-003
3.534938e+003,5.379206e-003
3.536866e+003,5.755916e-003
3.538795e+003,5.254166e-003
3.540723e+003,4.839961e-003
3.542652e+003,5.134915e-003
3.544580e+003,5.786550e-003
3.546509e+003,6.076164e-003
3.548437e+003,5.366547e-003
3.550366e+003,4.795488e-003
3.552294e+003,4.922791e-003
3.554223e+003,4.493672e-003
3.556151e+003,4.042919e-003
3.558080e+003,4.096180e-003
3.560008e+003,4.277066e-003
3.561937e+003,4.143739e-003
3.563865e+003,4.021105e-003
3.565794e+003,5.187315e-003
3.567722e+003,6.130440e-003
3.569651e+003,4.531993e-003
3.571579e+003,3.188183e-003
3.573508e+003,2.660801e-003
3.575436e+003,2.590627e-003
3.577365e+003,2.783373e-003
3.579293e+003,3.112325e-003
3.581222e+003,2.848344e-003
3.583150e+003,2.163128e-003
3.585079e+003,2.095908e-003
3.587007e+003,4.012731e-003
3.588936e+003,4.177809e-003
3.590864e+003,2.574936e-003
3.592793e+003,2.073776e-003
3.594721e+003,2.455303e-003
3.596650e+003,2.487253e-003
3.598578e+003,2.617991e-003
3.600507e+003,3.095102e-003
3.602435e+003,2.690462e-003
3.604364e+003,1.665995e-003
3.606292e+003,1.613866e-003
3.608221e+003,2.980456e-003
3.610149e+003,2.869049e-003
3.612078e+003,2.551724e-003
3.614006e+003,2.809652e-003
3.615935e+003,1.874202e-003
3.617863e+003,2.912032e-003
3.619792e+003,4.568009e-003
3.621720e+003,3.254517e-003
3.623649e+003,1.798950e-003
3.625577e+003,8.223709e-004
3.627506e+003,1.344309e-003
3.629434e+003,4.859303e-003
3.631363e+003,3.522121e-003
3.633291e+003,2.029517e-003
3.635220e+003,1.244836e-003
3.637148e+003,7.589278e-004
3.639077e+003,1.194654e-003
3.641005e+003,1.768336e-003
3.642934e+003,1.586661e-003
3.644862e+003,8.438402e-004
3.646791e+003,1.940922e-003
3.648719e+003,5.542819e-003
3.650648e+003,6.280935e-003
3.652576e+003,2.633667e-003
3.654505e+003,5.336767e-004
3.656433e+003,1.054498e-003
3.658362e+003,1.296990e-003
3.660290e+003,8.990653e-004
3.662219e+003,4.401682e-004
3.664147e+003,-9.243377e-005
3.666076e+003,-5.347868e-004
3.668004e+003,1.068180e-005
3.669933e+003,3.092715e-003
3.671861e+003,1.875343e-003
3.673790e+003,1.662113e-004
3.675718e+003,3.421253e-003
3.677647e+003,3.294882e-003
3.679575e+003,2.257606e-003
3.681504e+003,1.405808e-003
3.683432e+003,4.463829e-004
3.685361e+003,-2.233251e-004
3.687289e+003,1.343042e-004
3.689218e+003,2.682691e-003
3.691146e+003,3.707316e-003
3.693075e+003,2.142945e-003
3.695003e+003,7.143747e-004
3.696932e+003,8.642720e-005
3.698860e+003,-3.590146e-004
3.700789e+003,5.567935e-004
3.702717e+003,1.300894e-003
3.704646e+003,4.399498e-004
3.706574e+003,-3.147544e-004
3.708503e+003,-2.264529e-004
3.710431e+003,1.847832e-003
3.712360e+003,3.513528e-003
3.714288e+003,2.010385e-003
3.716217e+003,3.448697e-004
3.718145e+003,-4.381454e-005
3.720074e+003,2.982640e-004
3.722002e+003,1.202689e-003
3.723931e+003,1.974766e-003
3.725859e+003,2.530518e-003
3.727788e+003,1.772846e-003
3.729716e+003,-1.904089e-006
3.731645e+003,1.431396e-005
3.733573e+003,1.920024e-003
3.735502e+003,4.304986e-003
3.737430e+003,3.866869e-003
3.739359e+003,2.456149e-003
3.741287e+003,1.058886e-003
3.743216e+003,9.711608e-004
3.745144e+003,3.952794e-003
3.747073e+003,2.922104e-003
3.749001e+003,2.858004e-003
3.750930e+003,5.762535e-003
3.752858e+003,4.682958e-003
3.754787e+003,2.364733e-003
3.756715e+003,1.389429e-003
3.758644e+003,1.969704e-003
3.760572e+003,2.245447e-003
3.762501e+003,1.068051e-003
3.764429e+003,8.322820e-004
3.766358e+003,1.026723e-003
3.768286e+003,9.222575e-004
3.770215e+003,2.219506e-003
3.772143e+003,1.546458e-003
3.774072e+003,4.239087e-004
3.776000e+003,-1.265900e-005
3.777929e+003,1.965128e-004
3.779857e+003,1.347000e-003
3.781786e+003,8.704024e-004
3.783714e+003,4.758388e-004
3.785643e+003,8.973624e-004
3.787571e+003,3.605471e-004
3.789500e+003,1.200959e-004
3.791428e+003,2.791504e-004
3.793357e+003,-3.647176e-004
3.795285e+003,1.276964e-004
3.797214e+003,1.289639e-003
3.799142e+003,3.507934e-004
3.801071e+003,1.801354e-003
3.802999e+003,2.477418e-003
3.804927e+003,9.115189e-004
3.806856e+003,1.785679e-003
3.808785e+003,1.478423e-003
3.810713e+003,4.743976e-004
3.812642e+003,-2.399669e-004
3.814570e+003,-7.482152e-005
3.816499e+003,1.484360e-003
3.818427e+003,4.226924e-004
3.820355e+003,1.372576e-003
3.822284e+003,3.308008e-003
3.824213e+003,1.372404e-003
3.826141e+003,1.130479e-003
3.828070e+003,1.007110e-003
3.829998e+003,-3.125053e-005
3.831927e+003,3.462429e-004
3.833855e+003,8.573150e-004
3.835783e+003,1.066024e-003
3.837712e+003,2.418966e-003
3.839641e+003,3.109636e-003
3.841569e+003,2.240151e-003
3.843498e+003,2.018567e-003
3.845426e+003,1.181589e-003
3.847354e+003,-2.008644e-004
3.849283e+003,-1.049753e-003
3.851211e+003,-1.295003e-003
3.853140e+003,3.849252e-003
3.855069e+003,5.185051e-003
3.856997e+003,2.661178e-003
3.858926e+003,5.162312e-004
3.860854e+003,-2.104640e-004
3.862782e+003,5.879598e-004
3.864711e+003,2.253489e-003
3.866640e+003,8.614580e-004
3.868568e+003,1.923935e-004
3.870497e+003,2.575742e-003
3.872425e+003,2.168397e-003
3.874354e+003,2.430730e-003
3.876282e+003,1.179460e-003
3.878210e+003,-5.862843e-004
3.880139e+003,8.163066e-004
3.882068e+003,1.411893e-003
3.883996e+003,7.348852e-004
3.885925e+003,1.742272e-003
3.887853e+003,5.195658e-004
3.889781e+003,-2.709795e-004
3.891710e+003,1.911318e-003
3.893638e+003,1.734605e-003
3.895567e+003,1.463825e-004
3.897496e+003,-2.786117e-004
3.899424e+003,6.712978e-004
3.901353e+003,1.270710e-003
3.903281e+003,2.645196e-003
3.905209e+003,3.128756e-003
3.907138e+003,1.377450e-003
3.909066e+003,-6.815419e-005
3.910995e+003,-4.195198e-004
3.912924e+003,-5.543493e-004
3.914852e+003,-3.077113e-004
3.916781e+003,6.258250e-004
3.918709e+003,7.918226e-004
3.920637e+003,5.686888e-004
3.922566e+003,5.386476e-004
3.924494e+003,1.044013e-003
3.926423e+003,5.134437e-004
3.928352e+003,-1.872885e-004
3.930280e+003,2.562352e-004
3.932208e+003,1.167669e-003
3.934137e+003,9.595677e-004
3.936065e+003,2.261531e-004
3.937994e+003,-7.646671e-005
3.939922e+003,-3.482732e-004
3.941851e+003,1.408998e-004
3.943780e+003,6.004898e-004
3.945708e+003,9.982567e-005
3.947636e+003,1.697266e-004
3.949565e+003,4.446111e-004
3.951493e+003,1.206291e-004
3.953422e+003,-1.266571e-004
3.955351e+003,-1.781429e-004
3.957279e+003,-2.709422e-004
3.959208e+003,-3.017853e-004
3.961136e+003,-1.950422e-005
3.963064e+003,1.460346e-004
3.964993e+003,-2.605743e-004
3.966921e+003,-5.896324e-004
3.968850e+003,-3.502197e-004
3.970779e+003,-2.271552e-004
3.972707e+003,-1.591556e-004
3.974635e+003,-2.951827e-006
3.976564e+003,-8.739997e-005
3.978492e+003,-2.533216e-004
3.980421e+003,-2.271258e-004
3.982349e+003,-1.189099e-004
3.984278e+003,-2.013599e-004
3.986207e+003,-3.779363e-004
3.988135e+003,-4.303292e-004
3.990063e+003,-2.535745e-004
3.991992e+003,-1.015305e-004
3.993920e+003,-2.617622e-005
3.995849e+003,-5.585374e-005
3.997777e+003,-2.013980e-004
3.999706e+003,-2.377960e-004
4.001635e+003,0.000000e+000
