3.991992e+002,0.000000e+000
4.011277e+002,0.000000e+000
4.030562e+002,0.000000e+000
4.049846e+002,0.000000e+000
4.069131e+002,0.000000e+000
4.088416e+002,0.000000e+000
4.107701e+002,0.000000e+000
4.126986e+002,0.000000e+000
4.146271e+002,0.000000e+000
4.165556e+002,0.000000e+000
4.184841e+002,0.000000e+000
4.204126e+002,0.000000e+000
4.223411e+002,0.000000e+000
4.242697e+002,0.000000e+000
4.261982e+002,0.000000e+000
4.281266e+002,0.000000e+000
4.300551e+002,0.000000e+000
4.319836e+002,0.000000e+000
4.339121e+002,0.000000e+000
4.358406e+002,0.000000e+000
4.377691e+002,0.000000e+000
4.396976e+002,0.000000e+000
4.416261e+002,0.000000e+000
4.435546e+002,0.000000e+000
4.454831e+002,0.000000e+000
4.474116e+002,0.000000e+000
4.493401e+002,0.000000e+000
4.512686e+002,0.000000e+000
4.531971e+002,0.000000e+000
4.551256e+002,0.000000e+000
4.570541e+002,0.000000e+000
4.589826e+002,0.000000e+000
4.609111e+002,0.000000e+000
4.628396e+002,0.000000e+000
4.647681e+002,0.000000e+000
4.666966e+002,0.000000e+000
4.686251e+002,0.000000e+000
4.705536e+002,0.000000e+000
4.724821e+002,0.000000e+000
4.744106e+002,0.000000e+000
4.763391e+002,0.000000e+000
4.782676e+002,0.000000e+000
4.801961e+002,0.000000e+000
4.821246e+002,0.000000e+000
4.840531e+002,0.000000e+000
4.859816e+002,0.000000e+000
4.879101e+002,0.000000e+000
4.898386e+002,0.000000e+000
4.917671e+002,0.000000e+000
4.936956e+002,0.000000e+000
4.956241e+002,0.000000e+000
4.975526e+002,0.000000e+000
4.994811e+002,0.000000e+000
5.014096e+002,0.000000e+000
5.033381e+002,0.000000e+000
5.052666e+002,0.000000e+000
5.071951e+002,0.000000e+000
5.091236e+002,0.000000e+000
5.110521e+002,0.000000e+000
5.129806e+002,0.000000e+000
5.149091e+002,0.000000e+000
5.168376e+002,0.000000e+000
5.187661e+002,0.000000e+000
5.206946e+002,0.000000e+000
5.226230e+002,0.000000e+000
5.245516e+002,3.706571e-004
5.264800e+002,6.466452e-004
5.284086e+002,5.458649e-004
5.303370e+002,3.559105e-004
5.322656e+002,2.228525e-004
5.341940e+002,3.022235e-004
5.361226e+002,1.817066e-004
5.380510e+002,-5.047768e-005
5.399796e+002,-3.307387e-004
5.419081e+002,-3.426671e-004
5.438365e+002,-2.991222e-004
5.457650e+002,-3.096890e-004
5.476935e+002,-4.292186e-004
5.496221e+002,-4.813131e-004
5.515505e+002,-3.664475e-004
5.534790e+002,-6.476231e-005
5.554075e+002,-2.690405e-005
5.573361e+002,-2.172031e-004
5.592645e+002,-3.871713e-004
5.611931e+002,-5.063694e-004
5.631215e+002,-5.456302e-004
5.650500e+002,-4.542395e-004
5.669785e+002,-3.962107e-004
5.689070e+002,-1.827143e-004
5.708355e+002,2.240762e-006
5.727640e+002,1.764596e-004
5.746925e+002,3.061183e-004
5.766210e+002,4.252493e-004
5.785495e+002,3.170706e-004
5.804780e+002,2.593640e-004
5.824065e+002,3.026407e-004
5.843350e+002,5.148035e-004
5.862635e+002,6.439574e-004
5.881920e+002,6.375667e-004
5.901205e+002,4.323609e-004
5.920490e+002,3.662538e-004
5.939775e+002,4.153717e-004
5.959060e+002,4.720949e-004
5.978345e+002,3.996156e-004
5.997630e+002,4.290920e-004
6.016915e+002,4.280806e-004
6.036200e+002,5.025081e-004
6.055485e+002,5.209111e-004
6.074770e+002,5.122218e-004
6.094055e+002,4.589707e-004
6.113340e+002,3.689472e-004
6.132625e+002,1.197029e-004
6.151910e+002,-2.261065e-005
6.171195e+002,-1.667291e-004
6.190480e+002,-1.432803e-004
6.209765e+002,7.959083e-006
6.229050e+002,2.457816e-004
6.248335e+002,3.280975e-004
6.267620e+002,3.293436e-004
6.286905e+002,2.951957e-004
6.306190e+002,3.597252e-004
6.325475e+002,3.791060e-004
6.344760e+002,5.245041e-004
6.364045e+002,6.731208e-004
6.383330e+002,7.647648e-004
6.402615e+002,7.686932e-004
6.421899e+002,7.889681e-004
6.441185e+002,8.111522e-004
6.460470e+002,8.776765e-004
6.479755e+002,8.574966e-004
6.499039e+002,7.893443e-004
6.518325e+002,6.842874e-004
6.537610e+002,8.556452e-004
6.556895e+002,9.596199e-004
6.576179e+002,1.046713e-003
6.595464e+002,1.123799e-003
6.614750e+002,1.177058e-003
6.634034e+002,1.298115e-003
6.653319e+002,1.477007e-003
6.672604e+002,1.418147e-003
6.691890e+002,1.637045e-003
6.711174e+002,1.917254e-003
6.730460e+002,2.092434e-003
6.749745e+002,2.241364e-003
6.769030e+002,2.479212e-003
6.788314e+002,2.643241e-003
6.807599e+002,2.930511e-003
6.826885e+002,3.243033e-003
6.846169e+002,3.693176e-003
6.865454e+002,4.035471e-003
6.884739e+002,4.392639e-003
6.904025e+002,4.732434e-003
6.923309e+002,5.004112e-003
6.942594e+002,5.196020e-003
6.961879e+002,5.523000e-003
6.981165e+002,5.778495e-003
7.000449e+002,5.983790e-003
7.019734e+002,6.184045e-003
7.039019e+002,6.513668e-003
7.058304e+002,6.885547e-003
7.077589e+002,7.303815e-003
7.096874e+002,7.794071e-003
7.116159e+002,8.404069e-003
7.135444e+002,9.128999e-003
7.154729e+002,1.002095e-002
7.174014e+002,1.099976e-002
7.193299e+002,1.226053e-002
7.212584e+002,1.338806e-002
7.231869e+002,1.372591e-002
7.251154e+002,1.307581e-002
7.270439e+002,1.206213e-002
7.289724e+002,1.097386e-002
7.309009e+002,1.003749e-002
7.328294e+002,9.146642e-003
7.347579e+002,8.318644e-003
7.366864e+002,7.455073e-003
7.386149e+002,6.779946e-003
7.405434e+002,6.184429e-003
7.424719e+002,5.569873e-003
7.444004e+002,4.946930e-003
7.463289e+002,4.504139e-003
7.482574e+002,4.173808e-003
7.501859e+002,3.890747e-003
7.521144e+002,3.555326e-003
7.540428e+002,3.406506e-003
7.559714e+002,3.187479e-003
7.578999e+002,3.100473e-003
7.598284e+002,3.117967e-003
7.617568e+002,3.195435e-003
7.636854e+002,3.116913e-003
7.656139e+002,3.078585e-003
7.675424e+002,2.984125e-003
7.694709e+002,2.867170e-003
7.713994e+002,2.707332e-003
7.733279e+002,2.575375e-003
7.752563e+002,2.418654e-003
7.771849e+002,2.329908e-003
7.791134e+002,2.277784e-003
7.810419e+002,2.342707e-003
7.829703e+002,2.485957e-003
7.848989e+002,2.831373e-003
7.868274e+002,3.142307e-003
7.887559e+002,3.442623e-003
7.906843e+002,3.711889e-003
7.926129e+002,4.087068e-003
7.945414e+002,4.498985e-003
7.964698e+002,4.994109e-003
7.983983e+002,5.565442e-003
8.003268e+002,6.312519e-003
8.022554e+002,7.312477e-003
8.041838e+002,9.196416e-003
8.061123e+002,1.205859e-002
8.080408e+002,1.444301e-002
8.099694e+002,1.425295e-002
8.118978e+002,1.184379e-002
8.138263e+002,9.086888e-003
8.157548e+002,7.393762e-003
8.176833e+002,6.514091e-003
8.196118e+002,6.124023e-003
8.215403e+002,5.997118e-003
8.234689e+002,6.083611e-003
8.253973e+002,6.206848e-003
8.273258e+002,6.567109e-003
8.292543e+002,7.026434e-003
8.311829e+002,7.708915e-003
8.331113e+002,8.629017e-003
8.350398e+002,1.046499e-002
8.369683e+002,1.548693e-002
8.388969e+002,2.682431e-002
8.408253e+002,3.410354e-002
8.427538e+002,2.589883e-002
8.446823e+002,1.551880e-002
8.466108e+002,1.085634e-002
8.485393e+002,8.985721e-003
8.504678e+002,8.082371e-003
8.523963e+002,7.513206e-003
8.543248e+002,7.199369e-003
8.562533e+002,6.928083e-003
8.581818e+002,6.684497e-003
8.601103e+002,6.465279e-003
8.620388e+002,6.301187e-003
8.639673e+002,6.185565e-003
8.658958e+002,6.182212e-003
8.678243e+002,6.158851e-003
8.697528e+002,6.124824e-003
8.716813e+002,6.070651e-003
8.736098e+002,6.039996e-003
8.755383e+002,5.939011e-003
8.774668e+002,5.836949e-003
8.793953e+002,5.723570e-003
8.813238e+002,5.748067e-003
8.832523e+002,5.873211e-003
8.851808e+002,6.128103e-003
8.871093e+002,6.349687e-003
8.890378e+002,6.676562e-003
8.909663e+002,7.181142e-003
8.928948e+002,8.130655e-003
8.948232e+002,9.912178e-003
8.967518e+002,1.270116e-002
8.986803e+002,1.468960e-002
9.006088e+002,1.378266e-002
9.025372e+002,1.080878e-002
9.044658e+002,8.258689e-003
9.063943e+002,6.826501e-003
9.083228e+002,6.204233e-003
9.102512e+002,5.847804e-003
9.121797e+002,5.672481e-003
9.141083e+002,5.574286e-003
9.160367e+002,5.519982e-003
9.179653e+002,5.425192e-003
9.198937e+002,5.431451e-003
9.218223e+002,5.364757e-003
9.237507e+002,5.396888e-003
9.256793e+002,5.417719e-003
9.276077e+002,5.527068e-003
9.295363e+002,5.643167e-003
9.314647e+002,5.947985e-003
9.333932e+002,6.358646e-003
9.353217e+002,7.047530e-003
9.372502e+002,8.096926e-003
9.391787e+002,9.162329e-003
9.411072e+002,9.406213e-003
9.430358e+002,9.069446e-003
9.449642e+002,8.768793e-003
9.468928e+002,8.843448e-003
9.488212e+002,9.064138e-003
9.507498e+002,9.501979e-003
9.526782e+002,1.002055e-002
9.546068e+002,1.075045e-002
9.565352e+002,1.161379e-002
9.584637e+002,1.260142e-002
9.603922e+002,1.379276e-002
9.623207e+002,1.532116e-002
9.642492e+002,1.740386e-002
9.661777e+002,2.095456e-002
9.681062e+002,2.769165e-002
9.700347e+002,3.880788e-002
9.719632e+002,4.755784e-002
9.738917e+002,4.507206e-002
9.758202e+002,3.544889e-002
9.777487e+002,2.652451e-002
9.796772e+002,2.041880e-002
9.816057e+002,1.691018e-002
9.835342e+002,1.517123e-002
9.854627e+002,1.478450e-002
9.873912e+002,1.529169e-002
9.893197e+002,1.676717e-002
9.912482e+002,1.980064e-002
9.931767e+002,2.580654e-002
9.951052e+002,3.519734e-002
9.970337e+002,4.264856e-002
9.989622e+002,3.994599e-002
1.000891e+003,3.039379e-002
1.002819e+003,2.265047e-002
1.004748e+003,1.859332e-002
1.006676e+003,1.652864e-002
1.008605e+003,1.543523e-002
1.010533e+003,1.481437e-002
1.012462e+003,1.457479e-002
1.014390e+003,1.454257e-002
1.016319e+003,1.471356e-002
1.018247e+003,1.485550e-002
1.020176e+003,1.493464e-002
1.022104e+003,1.501472e-002
1.024033e+003,1.514417e-002
1.025961e+003,1.518315e-002
1.027890e+003,1.528415e-002
1.029818e+003,1.540480e-002
1.031747e+003,1.557251e-002
1.033675e+003,1.571203e-002
1.035604e+003,1.580859e-002
1.037532e+003,1.573839e-002
1.039461e+003,1.581031e-002
1.041389e+003,1.619731e-002
1.043318e+003,1.680007e-002
1.045246e+003,1.686098e-002
1.047175e+003,1.639128e-002
1.049103e+003,1.590443e-002
1.051032e+003,1.575231e-002
1.052960e+003,1.579084e-002
1.054889e+003,1.605502e-002
1.056817e+003,1.634524e-002
1.058746e+003,1.668344e-002
1.060674e+003,1.698650e-002
1.062603e+003,1.724626e-002
1.064531e+003,1.737218e-002
1.066460e+003,1.760766e-002
1.068388e+003,1.791568e-002
1.070317e+003,1.835910e-002
1.072245e+003,1.898132e-002
1.074174e+003,2.000139e-002
1.076102e+003,2.136418e-002
1.078031e+003,2.309388e-002
1.079959e+003,2.483211e-002
1.081888e+003,2.646069e-002
1.083816e+003,2.773079e-002
1.085745e+003,2.886380e-002
1.087673e+003,3.008769e-002
1.089602e+003,3.153249e-002
1.091530e+003,3.300211e-002
1.093459e+003,3.443177e-002
1.095387e+003,3.547788e-002
1.097316e+003,3.636096e-002
1.099244e+003,3.710922e-002
1.101173e+003,3.747042e-002
1.103101e+003,3.677953e-002
1.105030e+003,3.523300e-002
1.106958e+003,3.371078e-002
1.108887e+003,3.310933e-002
1.110815e+003,3.344371e-002
1.112744e+003,3.449859e-002
1.114672e+003,3.571946e-002
1.116601e+003,3.683890e-002
1.118529e+003,3.730548e-002
1.120458e+003,3.690651e-002
1.122386e+003,3.559215e-002
1.124315e+003,3.393356e-002
1.126243e+003,3.250501e-002
1.128172e+003,3.210187e-002
1.130100e+003,3.300421e-002
1.132029e+003,3.538115e-002
1.133957e+003,3.887537e-002
1.135885e+003,4.331108e-002
1.137814e+003,4.801465e-002
1.139743e+003,5.255754e-002
1.141671e+003,5.649371e-002
1.143600e+003,5.994411e-002
1.145528e+003,6.316125e-002
1.147457e+003,6.684193e-002
1.149385e+003,7.100496e-002
1.151314e+003,7.511449e-002
1.153242e+003,7.821214e-002
1.155171e+003,8.074374e-002
1.157099e+003,8.327441e-002
1.159028e+003,8.622003e-002
1.160956e+003,8.946320e-002
1.162885e+003,9.344526e-002
1.164813e+003,9.751687e-002
1.166742e+003,9.922292e-002
1.168670e+003,9.452678e-002
1.170599e+003,8.449157e-002
1.172527e+003,7.412879e-002
1.174456e+003,6.643112e-002
1.176384e+003,6.088756e-002
1.178313e+003,5.684854e-002
1.180241e+003,5.368369e-002
1.182170e+003,5.121567e-002
1.184098e+003,4.913360e-002
1.186027e+003,4.738798e-002
1.187955e+003,4.572035e-002
1.189884e+003,4.422732e-002
1.191812e+003,4.272555e-002
1.193740e+003,4.133208e-002
1.195669e+003,3.996407e-002
1.197598e+003,3.886430e-002
1.199526e+003,3.794266e-002
1.201455e+003,3.734485e-002
1.203383e+003,3.699323e-002
1.205312e+003,3.702265e-002
1.207240e+003,3.714058e-002
1.209168e+003,3.734056e-002
1.211097e+003,3.744631e-002
1.213026e+003,3.767567e-002
1.214954e+003,3.800722e-002
1.216883e+003,3.859793e-002
1.218811e+003,3.910789e-002
1.220740e+003,3.942207e-002
1.222668e+003,3.948699e-002
1.224596e+003,3.973680e-002
1.226525e+003,4.014705e-002
1.228453e+003,4.079624e-002
1.230382e+003,4.141812e-002
1.232311e+003,4.202743e-002
1.234239e+003,4.249233e-002
1.236167e+003,4.292795e-002
1.238096e+003,4.310850e-002
1.240025e+003,4.312517e-002
1.241953e+003,4.272251e-002
1.243882e+003,4.208372e-002
1.245810e+003,4.105344e-002
1.247739e+003,3.997107e-002
1.249667e+003,3.905830e-002
1.251595e+003,3.907043e-002
1.253524e+003,3.999486e-002
1.255453e+003,4.023651e-002
1.257381e+003,3.817895e-002
1.259310e+003,3.550766e-002
1.261238e+003,3.331291e-002
1.263167e+003,3.167900e-002
1.265095e+003,3.025743e-002
1.267023e+003,2.916601e-002
1.268952e+003,2.822175e-002
1.270880e+003,2.764256e-002
1.272809e+003,2.723987e-002
1.274738e+003,2.718034e-002
1.276666e+003,2.715762e-002
1.278594e+003,2.719327e-002
1.280523e+003,2.693938e-002
1.282451e+003,2.644781e-002
1.284380e+003,2.570068e-002
1.286308e+003,2.519971e-002
1.288237e+003,2.499910e-002
1.290166e+003,2.529959e-002
1.292094e+003,2.597340e-002
1.294022e+003,2.685552e-002
1.295951e+003,2.727955e-002
1.297879e+003,2.732377e-002
1.299808e+003,2.752113e-002
1.301736e+003,2.892993e-002
1.303665e+003,3.049986e-002
1.305594e+003,2.941075e-002
1.307522e+003,2.607740e-002
1.309450e+003,2.391104e-002
1.311379e+003,2.311600e-002
1.313307e+003,2.303994e-002
1.315236e+003,2.295982e-002
1.317164e+003,2.323725e-002
1.319093e+003,2.340093e-002
1.321021e+003,2.357607e-002
1.322950e+003,2.379415e-002
1.324878e+003,2.444760e-002
1.326807e+003,2.474386e-002
1.328735e+003,2.488158e-002
1.330664e+003,2.431161e-002
1.332592e+003,2.355554e-002
1.334521e+003,2.302831e-002
1.336449e+003,2.341897e-002
1.338378e+003,2.432733e-002
1.340306e+003,2.552810e-002
1.342235e+003,2.599696e-002
1.344163e+003,2.728074e-002
1.346092e+003,2.902753e-002
1.348021e+003,3.155953e-002
1.349949e+003,3.453363e-002
1.351877e+003,3.892806e-002
1.353806e+003,4.514891e-002
1.355734e+003,5.412432e-002
1.357663e+003,6.085934e-002
1.359591e+003,6.185937e-002
1.361520e+003,5.741686e-002
1.363448e+003,5.336766e-002
1.365377e+003,5.258972e-002
1.367305e+003,5.900566e-002
1.369234e+003,7.758613e-002
1.371162e+003,1.129112e-001
1.373091e+003,1.667403e-001
1.375019e+003,2.184174e-001
1.376948e+003,1.992134e-001
1.378876e+003,1.425490e-001
1.380805e+003,9.412561e-002
1.382733e+003,6.243574e-002
1.384662e+003,4.365885e-002
1.386590e+003,3.307040e-002
1.388519e+003,2.657683e-002
1.390447e+003,2.303915e-002
1.392376e+003,2.141413e-002
1.394304e+003,2.059861e-002
1.396233e+003,2.015471e-002
1.398161e+003,1.977215e-002
1.400090e+003,1.977646e-002
1.402018e+003,1.926889e-002
1.403947e+003,1.923981e-002
1.405875e+003,1.856496e-002
1.407804e+003,1.803515e-002
1.409732e+003,1.829946e-002
1.411661e+003,1.955187e-002
1.413589e+003,2.102276e-002
1.415518e+003,2.282556e-002
1.417446e+003,2.433016e-002
1.419375e+003,2.475519e-002
1.421303e+003,2.380646e-002
1.423232e+003,2.384527e-002
1.425160e+003,2.467750e-002
1.427089e+003,2.653151e-002
1.429017e+003,3.081507e-002
1.430946e+003,3.910143e-002
1.432874e+003,5.001796e-002
1.434803e+003,5.947133e-002
1.436731e+003,6.345595e-002
1.438660e+003,6.378237e-002
1.440588e+003,6.750009e-002
1.442517e+003,7.673309e-002
1.444445e+003,9.165266e-002
1.446374e+003,1.106012e-001
1.448302e+003,1.326588e-001
1.450231e+003,1.444907e-001
1.452159e+003,1.511698e-001
1.454088e+003,1.551250e-001
1.456016e+003,1.592514e-001
1.457945e+003,1.573112e-001
1.459873e+003,1.526718e-001
1.461802e+003,1.460527e-001
1.463730e+003,1.373342e-001
1.465659e+003,1.182680e-001
1.467587e+003,9.924135e-002
1.469516e+003,7.956602e-002
1.471444e+003,6.103804e-002
1.473373e+003,3.947620e-002
1.475301e+003,3.022275e-002
1.477230e+003,2.347153e-002
1.479158e+003,1.970081e-002
1.481087e+003,1.686642e-002
1.483015e+003,1.463339e-002
1.484944e+003,1.305073e-002
1.486872e+003,1.254661e-002
1.488801e+003,1.216035e-002
1.490729e+003,1.132287e-002
1.492658e+003,9.770524e-003
1.494586e+003,9.465583e-003
1.496515e+003,9.530138e-003
1.498443e+003,8.947678e-003
1.500372e+003,7.839181e-003
1.502300e+003,7.296234e-003
1.504229e+003,7.087208e-003
1.506157e+003,9.046227e-003
1.508086e+003,9.170849e-003
1.510014e+003,7.340178e-003
1.511943e+003,6.401338e-003
1.513871e+003,6.194543e-003
1.515800e+003,6.748583e-003
1.517728e+003,6.951537e-003
1.519657e+003,6.679229e-003
1.521585e+003,7.425494e-003
1.523514e+003,6.503142e-003
1.525442e+003,6.146219e-003
1.527371e+003,5.769871e-003
1.529299e+003,5.288355e-003
1.531228e+003,5.092777e-003
1.533156e+003,5.945627e-003
1.535085e+003,5.484853e-003
1.537013e+003,5.221482e-003
1.538942e+003,6.718695e-003
1.540870e+003,8.312464e-003
1.542799e+003,6.725900e-003
1.544727e+003,6.224126e-003
1.546656e+003,5.053997e-003
1.548584e+003,5.005382e-003
1.550513e+003,5.218416e-003
1.552441e+003,5.033396e-003
1.554370e+003,5.337175e-003
1.556298e+003,5.723197e-003
1.558227e+003,7.467847e-003
1.560155e+003,6.575443e-003
1.562084e+003,4.544783e-003
1.564012e+003,4.205152e-003
1.565941e+003,4.116382e-003
1.567869e+003,4.250653e-003
1.569798e+003,4.588343e-003
1.571726e+003,3.951367e-003
1.573655e+003,3.687903e-003
1.575583e+003,4.594512e-003
1.577512e+003,4.454624e-003
1.579440e+003,3.602963e-003
1.581369e+003,3.335197e-003
1.583297e+003,3.334358e-003
1.585226e+003,3.338628e-003
1.587154e+003,3.357958e-003
1.589083e+003,3.426868e-003
1.591011e+003,3.508233e-003
1.592940e+003,3.584042e-003
1.594868e+003,3.734939e-003
1.596797e+003,3.685851e-003
1.598725e+003,3.613546e-003
1.600654e+003,3.658619e-003
1.602582e+003,3.770817e-003
1.604511e+003,3.835455e-003
1.606439e+003,4.033133e-003
1.608368e+003,4.181188e-003
1.610296e+003,4.133467e-003
1.612225e+003,4.016958e-003
1.614153e+003,4.122935e-003
1.616082e+003,4.997086e-003
1.618010e+003,5.095072e-003
1.619939e+003,4.535850e-003
1.621867e+003,4.892189e-003
1.623796e+003,5.368724e-003
1.625724e+003,5.114626e-003
1.627653e+003,5.280875e-003
1.629581e+003,5.126894e-003
1.631510e+003,4.971154e-003
1.633438e+003,5.325921e-003
1.635367e+003,6.826703e-003
1.637295e+003,6.887518e-003
1.639224e+003,6.047022e-003
1.641152e+003,5.899362e-003
1.643081e+003,6.291211e-003
1.645009e+003,7.251825e-003
1.646938e+003,9.184558e-003
1.648866e+003,8.495867e-003
1.650795e+003,8.112591e-003
1.652723e+003,1.038754e-002
1.654652e+003,1.009509e-002
1.656580e+003,8.292861e-003
1.658509e+003,7.577483e-003
1.660437e+003,7.336196e-003
1.662366e+003,7.339746e-003
1.664294e+003,6.885026e-003
1.666223e+003,6.519333e-003
1.668151e+003,7.018421e-003
1.670080e+003,7.805169e-003
1.672008e+003,7.056579e-003
1.673937e+003,7.007588e-003
1.675865e+003,7.367786e-003
1.677794e+003,6.931867e-003
1.679722e+003,7.300816e-003
1.681651e+003,7.654622e-003
1.683579e+003,8.815654e-003
1.685508e+003,9.031873e-003
1.687436e+003,8.345060e-003
1.689365e+003,8.372523e-003
1.691293e+003,8.394483e-003
1.693222e+003,8.440308e-003
1.695150e+003,9.921968e-003
1.697079e+003,1.130285e-002
1.699007e+003,1.145148e-002
1.700936e+003,1.244207e-002
1.702864e+003,1.222127e-002
1.704793e+003,1.280782e-002
1.706721e+003,1.333266e-002
1.708650e+003,1.320971e-002
1.710578e+003,1.353879e-002
1.712507e+003,1.449823e-002
1.714435e+003,1.620537e-002
1.716364e+003,1.822511e-002
1.718292e+003,2.039086e-002
1.720221e+003,2.131707e-002
1.722149e+003,2.307598e-002
1.724078e+003,2.677182e-002
1.726006e+003,3.096143e-002
1.727935e+003,3.649288e-002
1.729863e+003,4.538205e-002
1.731792e+003,5.460130e-002
1.733720e+003,7.152669e-002
1.735649e+003,9.412687e-002
1.737577e+003,1.067145e-001
1.739506e+003,1.291950e-001
1.741434e+003,1.494912e-001
1.743363e+003,1.628748e-001
1.745291e+003,1.687607e-001
1.747220e+003,1.665055e-001
1.749148e+003,1.536032e-001
1.751077e+003,1.321132e-001
1.753005e+003,1.078881e-001
1.754934e+003,8.979644e-002
1.756862e+003,6.832907e-002
1.758791e+003,5.149942e-002
1.760719e+003,4.003264e-002
1.762648e+003,2.914000e-002
1.764576e+003,2.231364e-002
1.766505e+003,1.842611e-002
1.768433e+003,1.527976e-002
1.770362e+003,1.351964e-002
1.772290e+003,1.195480e-002
1.774219e+003,9.995118e-003
1.776147e+003,8.476608e-003
1.778076e+003,7.589299e-003
1.780004e+003,7.183939e-003
1.781933e+003,6.497450e-003
1.783861e+003,5.967993e-003
1.785790e+003,5.408410e-003
1.787718e+003,4.867435e-003
1.789646e+003,4.846767e-003
1.791575e+003,5.272187e-003
1.793504e+003,4.829153e-003
1.795432e+003,4.119363e-003
1.797361e+003,3.671430e-003
1.799289e+003,3.616907e-003
1.801218e+003,3.595501e-003
1.803146e+003,3.025543e-003
1.805074e+003,2.578527e-003
1.807003e+003,2.467539e-003
1.808932e+003,2.303515e-003
1.810860e+003,2.298325e-003
1.812789e+003,1.858205e-003
1.814717e+003,1.184512e-003
1.816646e+003,9.194352e-004
1.818574e+003,1.228463e-003
1.820502e+003,1.400277e-003
1.822431e+003,1.509365e-003
1.824360e+003,1.756366e-003
1.826288e+003,1.639009e-003
1.828217e+003,1.653902e-003
1.830145e+003,1.739182e-003
1.832073e+003,1.200568e-003
1.834002e+003,9.408370e-004
1.835931e+003,9.073652e-004
1.837859e+003,8.273348e-004
1.839788e+003,5.737282e-004
1.841716e+003,7.111542e-004
1.843645e+003,1.213104e-003
1.845573e+003,1.194090e-003
1.847501e+003,7.065162e-004
1.849430e+003,4.112460e-004
1.851359e+003,3.394447e-004
1.853287e+003,3.853887e-004
1.855216e+003,1.433715e-004
1.857144e+003,-1.029670e-005
1.859073e+003,3.207102e-005
1.861001e+003,9.717792e-005
1.862929e+003,-7.300079e-005
1.864858e+003,-4.060566e-006
1.866787e+003,1.858510e-004
1.868715e+003,7.707290e-004
1.870644e+003,3.401563e-004
1.872572e+003,-1.709685e-004
1.874500e+003,-3.912225e-004
1.876429e+003,-4.077815e-004
1.878357e+003,-4.692040e-004
1.880286e+003,-4.297607e-004
1.882215e+003,-3.196113e-004
1.884143e+003,-1.784600e-004
1.886072e+003,-1.296476e-004
1.888000e+003,1.087859e-004
1.889928e+003,1.171567e-004
1.891857e+003,-1.279078e-004
1.893785e+003,-3.894418e-005
1.895714e+003,-3.136694e-005
1.897643e+003,-3.969185e-004
1.899571e+003,-4.232340e-004
1.901500e+003,-4.150644e-004
1.903428e+003,-4.069023e-004
1.905356e+003,-3.987588e-004
1.907285e+003,-3.906228e-004
1.909213e+003,-3.825016e-004
1.911142e+003,-3.743842e-004
1.913071e+003,-3.662817e-004
1.914999e+003,-3.581978e-004
1.916927e+003,-3.501214e-004
1.918856e+003,-3.420487e-004
1.920784e+003,-3.339909e-004
1.922713e+003,-3.259517e-004
1.924641e+003,-3.179163e-004
1.926570e+003,-3.098920e-004
1.928499e+003,-3.018789e-004
1.930427e+003,-2.938844e-004
1.932355e+003,-2.858974e-004
1.934284e+003,-2.779216e-004
1.936212e+003,-2.699569e-004
1.938141e+003,-2.619997e-004
1.940070e+003,-2.540573e-004
1.941998e+003,-2.461299e-004
1.943927e+003,-2.382137e-004
1.945855e+003,-2.303049e-004
1.947783e+003,-2.224073e-004
1.949712e+003,-2.145246e-004
1.951640e+003,-2.066530e-004
1.953569e+003,-1.987889e-004
1.955498e+003,-1.909323e-004
1.957426e+003,-1.830943e-004
1.959354e+003,-1.752712e-004
1.961283e+003,-1.674592e-004
1.963211e+003,-1.596473e-004
1.965140e+003,-1.518577e-004
1.967068e+003,-1.440793e-004
1.968997e+003,-1.363046e-004
1.970926e+003,-1.285449e-004
1.972854e+003,-1.207963e-004
1.974782e+003,-1.130626e-004
1.976711e+003,-1.053363e-004
1.978639e+003,-9.762123e-005
1.980568e+003,-8.991733e-005
1.982496e+003,-8.222833e-005
1.984425e+003,-7.455051e-005
1.986354e+003,-6.688759e-005
1.988282e+003,-5.922839e-005
1.990210e+003,-5.158037e-005
1.992139e+003,-4.394725e-005
1.994067e+003,-3.632531e-005
1.995996e+003,-2.871826e-005
1.997924e+003,-2.111867e-005
1.999853e+003,-1.352653e-005
2.001781e+003,-5.949289e-006
2.003710e+003,1.609325e-006
2.005638e+003,9.160489e-006
2.007567e+003,1.670420e-005
2.009495e+003,2.424046e-005
2.011424e+003,3.175810e-005
2.013352e+003,3.926456e-005
2.015281e+003,4.676357e-005
2.017209e+003,5.424768e-005
2.019138e+003,6.171688e-005
2.021066e+003,6.918609e-005
2.022995e+003,7.663667e-005
2.024923e+003,8.407608e-005
2.026852e+003,9.150431e-005
2.028781e+003,9.892508e-005
2.030709e+003,1.063235e-004
2.032637e+003,1.137145e-004
2.034566e+003,1.211017e-004
2.036494e+003,1.284741e-004
2.038423e+003,1.358278e-004
2.040351e+003,1.431778e-004
2.042280e+003,1.505166e-004
2.044208e+003,1.578405e-004
2.046137e+003,1.651570e-004
2.048065e+003,1.724549e-004
2.049994e+003,1.797453e-004
2.051922e+003,1.870245e-004
2.053851e+003,1.943000e-004
2.055779e+003,2.015568e-004
2.057708e+003,2.087951e-004
2.059636e+003,2.160296e-004
2.061565e+003,2.232529e-004
2.063493e+003,2.304614e-004
2.065422e+003,2.376586e-004
2.067350e+003,2.448447e-004
2.069279e+003,2.520308e-004
2.071207e+003,2.591982e-004
2.073136e+003,2.663508e-004
2.075064e+003,2.734959e-004
2.076993e+003,2.806187e-004
2.078921e+003,2.877414e-004
2.080850e+003,2.948493e-004
2.082778e+003,3.019422e-004
2.084707e+003,3.090426e-004
2.086635e+003,3.161058e-004
2.088564e+003,3.231689e-004
2.090492e+003,3.302246e-004
2.092421e+003,3.372580e-004
2.094349e+003,3.442913e-004
2.096278e+003,3.513023e-004
2.098206e+003,3.583133e-004
2.100135e+003,3.653094e-004
2.102063e+003,3.722906e-004
2.103992e+003,3.792569e-004
2.105920e+003,3.862232e-004
2.107849e+003,3.931671e-004
2.109777e+003,4.001036e-004
2.111706e+003,4.070327e-004
2.113634e+003,4.139468e-004
2.115563e+003,4.208535e-004
2.117491e+003,4.277453e-004
2.119420e+003,4.346147e-004
2.121348e+003,4.414842e-004
2.123277e+003,4.483461e-004
2.125205e+003,4.551858e-004
2.127134e+003,4.620254e-004
2.129062e+003,4.688501e-004
2.130991e+003,4.756600e-004
2.132919e+003,4.824623e-004
2.134848e+003,4.892498e-004
2.136776e+003,4.960224e-004
2.138705e+003,5.027875e-004
2.140633e+003,5.095452e-004
2.142562e+003,5.162880e-004
2.144490e+003,5.230159e-004
2.146419e+003,5.297363e-004
2.148347e+003,5.364493e-004
2.150276e+003,5.431473e-004
2.152204e+003,5.498305e-004
2.154133e+003,5.565062e-004
2.156061e+003,5.631745e-004
2.157990e+003,5.698204e-004
2.159918e+003,5.764589e-004
2.161847e+003,5.830899e-004
2.163775e+003,5.897060e-004
2.165704e+003,5.963072e-004
2.167632e+003,6.029010e-004
2.169561e+003,6.094873e-004
2.171489e+003,6.160587e-004
2.173418e+003,6.226227e-004
2.175346e+003,6.291717e-004
2.177275e+003,6.357059e-004
2.179203e+003,6.422326e-004
2.181132e+003,6.487519e-004
2.183060e+003,6.552562e-004
2.184989e+003,6.617382e-004
2.186917e+003,6.682351e-004
2.188846e+003,6.746948e-004
2.190774e+003,6.811544e-004
2.192703e+003,6.875917e-004
2.194631e+003,6.940290e-004
2.196560e+003,7.004514e-004
2.198488e+003,7.068664e-004
2.200417e+003,7.132739e-004
2.202345e+003,7.196590e-004
2.204274e+003,7.260367e-004
2.206202e+003,7.323995e-004
2.208131e+003,7.387549e-004
2.210059e+003,7.450879e-004
2.211988e+003,7.514283e-004
2.213916e+003,7.577464e-004
2.215845e+003,7.640496e-004
2.217773e+003,7.703528e-004
2.219702e+003,7.766411e-004
2.221630e+003,7.829219e-004
2.223559e+003,7.891804e-004
2.225487e+003,7.954314e-004
2.227416e+003,8.016750e-004
2.229344e+003,8.078963e-004
2.231273e+003,8.141249e-004
2.233201e+003,8.203313e-004
2.235130e+003,8.265227e-004
2.237058e+003,8.327067e-004
2.238987e+003,8.388758e-004
2.240915e+003,8.450300e-004
2.242844e+003,8.511767e-004
2.244772e+003,8.573234e-004
2.246701e+003,8.634478e-004
2.248629e+003,8.695647e-004
2.250558e+003,8.756667e-004
2.252486e+003,8.817688e-004
2.254415e+003,8.878410e-004
2.256343e+003,8.939058e-004
2.258272e+003,8.999631e-004
2.260200e+003,9.060055e-004
2.262129e+003,9.120479e-004
2.264057e+003,9.180754e-004
2.265986e+003,9.240806e-004
2.267914e+003,9.300858e-004
2.269843e+003,9.360686e-004
2.271771e+003,9.420514e-004
2.273700e+003,9.480193e-004
2.275628e+003,9.539798e-004
2.277557e+003,9.599254e-004
2.279485e+003,9.658486e-004
2.281414e+003,9.717718e-004
2.283342e+003,9.776801e-004
2.285271e+003,9.835735e-004
2.287199e+003,9.894669e-004
2.289128e+003,9.953454e-004
2.291056e+003,1.001209e-003
2.292985e+003,1.007050e-003
2.294913e+003,1.012899e-003
2.296842e+003,1.018725e-003
2.298770e+003,1.024537e-003
2.300699e+003,1.030348e-003
2.302627e+003,1.036152e-003
2.304556e+003,1.041934e-003
2.306484e+003,1.047708e-003
2.308413e+003,1.053467e-003
2.310341e+003,1.059212e-003
2.312270e+003,1.064949e-003
2.314198e+003,1.070678e-003
2.316127e+003,1.076393e-003
2.318055e+003,1.082093e-003
2.319984e+003,1.087785e-003
2.321912e+003,1.093470e-003
2.323841e+003,1.099139e-003
2.325769e+003,1.104802e-003
2.327698e+003,1.110442e-003
2.329626e+003,1.116082e-003
2.331555e+003,1.121692e-003
2.333483e+003,1.127318e-003
2.335412e+003,1.132913e-003
2.337340e+003,1.138508e-003
2.339269e+003,1.144089e-003
2.341197e+003,1.149654e-003
2.343126e+003,1.155213e-003
2.345054e+003,1.160748e-003
2.346983e+003,1.166284e-003
2.348911e+003,1.171812e-003
2.350840e+003,1.177318e-003
2.352768e+003,1.182817e-003
2.354697e+003,1.188301e-003
2.356625e+003,1.193769e-003
2.358554e+003,1.199245e-003
2.360482e+003,1.204692e-003
2.362411e+003,1.210131e-003
2.364339e+003,1.215570e-003
2.366268e+003,1.220994e-003
2.368196e+003,1.226395e-003
2.370125e+003,1.231782e-003
2.372053e+003,1.237169e-003
2.373982e+003,1.242541e-003
2.375910e+003,1.247905e-003
2.377839e+003,1.253262e-003
2.379767e+003,1.258589e-003
2.381696e+003,1.263916e-003
2.383624e+003,1.269236e-003
2.385553e+003,1.274534e-003
2.387481e+003,1.279831e-003
2.389410e+003,1.285113e-003
2.391338e+003,1.290388e-003
2.393267e+003,1.295649e-003
2.395195e+003,1.300894e-003
2.397124e+003,1.306124e-003
2.399052e+003,1.311354e-003
2.400981e+003,1.217119e-003
2.402909e+003,1.199462e-003
2.404838e+003,1.187243e-003
2.406766e+003,1.476832e-003
2.408695e+003,1.769617e-003
2.410623e+003,1.619622e-003
2.412552e+003,1.535289e-003
2.414480e+003,1.678973e-003
2.416409e+003,1.850583e-003
2.418337e+003,1.911968e-003
2.420266e+003,1.921862e-003
2.422194e+003,1.953743e-003
2.424123e+003,2.026118e-003
2.426051e+003,2.034523e-003
2.427979e+003,1.952991e-003
2.429908e+003,1.981750e-003
2.431837e+003,2.228141e-003
2.433765e+003,2.300568e-003
2.435694e+003,2.253152e-003
2.437622e+003,2.222665e-003
2.439551e+003,2.070554e-003
2.441479e+003,2.066545e-003
2.443407e+003,2.184443e-003
2.445336e+003,2.192847e-003
2.447265e+003,2.288453e-003
2.449193e+003,2.299026e-003
2.451122e+003,2.397656e-003
2.453050e+003,2.481952e-003
2.454979e+003,2.438821e-003
2.456907e+003,2.392799e-003
2.458836e+003,2.331927e-003
2.460764e+003,2.092674e-003
2.462693e+003,1.827948e-003
2.464621e+003,1.571015e-003
2.466550e+003,1.479037e-003
2.468478e+003,1.534931e-003
2.470406e+003,1.678832e-003
2.472335e+003,1.770772e-003
2.474264e+003,1.778245e-003
2.476192e+003,1.797013e-003
2.478121e+003,1.863845e-003
2.480049e+003,1.929991e-003
2.481978e+003,2.029344e-003
2.483906e+003,1.989104e-003
2.485835e+003,1.965500e-003
2.487763e+003,1.975834e-003
2.489692e+003,1.984052e-003
2.491620e+003,2.022967e-003
2.493549e+003,2.055354e-003
2.495477e+003,2.055086e-003
2.497406e+003,2.066381e-003
2.499334e+003,2.097152e-003
2.501263e+003,2.124503e-003
2.503191e+003,2.160244e-003
2.505120e+003,2.210483e-003
2.507048e+003,2.282038e-003
2.508977e+003,2.463646e-003
2.510905e+003,2.595775e-003
2.512833e+003,2.530515e-003
2.514762e+003,2.555855e-003
2.516691e+003,2.569206e-003
2.518619e+003,2.632707e-003
2.520548e+003,2.927653e-003
2.522476e+003,3.209181e-003
2.524405e+003,3.319189e-003
2.526333e+003,3.229178e-003
2.528261e+003,3.251791e-003
2.530190e+003,3.432564e-003
2.532119e+003,3.524028e-003
2.534047e+003,3.616609e-003
2.535976e+003,3.793217e-003
2.537904e+003,3.856383e-003
2.539833e+003,3.925972e-003
2.541761e+003,4.116826e-003
2.543689e+003,4.315078e-003
2.545618e+003,4.579127e-003
2.547547e+003,4.684091e-003
2.549475e+003,4.635677e-003
2.551404e+003,4.634224e-003
2.553332e+003,4.820526e-003
2.555260e+003,5.000010e-003
2.557189e+003,5.088411e-003
2.559117e+003,5.254962e-003
2.561046e+003,5.478904e-003
2.562975e+003,5.687028e-003
2.564903e+003,5.785637e-003
2.566832e+003,5.872123e-003
2.568760e+003,6.078087e-003
2.570688e+003,6.469682e-003
2.572617e+003,6.770730e-003
2.574546e+003,7.126182e-003
2.576474e+003,7.512823e-003
2.578403e+003,7.890299e-003
2.580331e+003,8.271120e-003
2.582260e+003,8.517288e-003
2.584188e+003,8.376963e-003
2.586116e+003,7.989228e-003
2.588045e+003,7.542066e-003
2.589974e+003,7.378809e-003
2.591902e+003,7.265002e-003
2.593831e+003,7.218443e-003
2.595759e+003,7.243462e-003
2.597688e+003,7.349782e-003
2.599616e+003,7.441469e-003
2.601544e+003,7.568546e-003
2.603473e+003,7.821821e-003
2.605402e+003,8.072168e-003
2.607330e+003,8.397564e-003
2.609259e+003,8.753419e-003
2.611187e+003,8.841895e-003
2.613115e+003,9.030506e-003
2.615044e+003,9.355530e-003
2.616972e+003,9.521797e-003
2.618901e+003,9.476356e-003
2.620830e+003,9.414278e-003
2.622758e+003,9.433210e-003
2.624687e+003,9.501487e-003
2.626615e+003,9.432182e-003
2.628543e+003,9.391949e-003
2.630472e+003,9.394161e-003
2.632400e+003,9.470776e-003
2.634329e+003,9.570770e-003
2.636258e+003,9.605557e-003
2.638186e+003,9.748787e-003
2.640115e+003,9.915322e-003
2.642043e+003,1.004405e-002
2.643971e+003,1.026221e-002
2.645900e+003,1.047335e-002
2.647828e+003,1.065023e-002
2.649757e+003,1.082852e-002
2.651686e+003,1.098633e-002
2.653614e+003,1.115239e-002
2.655542e+003,1.137594e-002
2.657471e+003,1.146146e-002
2.659399e+003,1.141577e-002
2.661328e+003,1.124777e-002
2.663256e+003,1.094340e-002
2.665185e+003,1.064220e-002
2.667114e+003,1.051475e-002
2.669042e+003,1.048499e-002
2.670970e+003,1.057642e-002
2.672899e+003,1.071388e-002
2.674827e+003,1.085030e-002
2.676756e+003,1.090559e-002
2.678685e+003,1.087958e-002
2.680613e+003,1.080657e-002
2.682542e+003,1.077770e-002
2.684470e+003,1.078642e-002
2.686398e+003,1.078551e-002
2.688327e+003,1.072989e-002
2.690255e+003,1.063678e-002
2.692184e+003,1.050239e-002
2.694113e+003,1.042352e-002
2.696041e+003,1.040226e-002
2.697969e+003,1.048742e-002
2.699898e+003,1.063687e-002
2.701826e+003,1.084265e-002
2.703755e+003,1.115348e-002
2.705683e+003,1.148743e-002
2.707612e+003,1.184381e-002
2.709541e+003,1.232424e-002
2.711469e+003,1.284310e-002
2.713397e+003,1.355349e-002
2.715326e+003,1.446960e-002
2.717254e+003,1.557563e-002
2.719183e+003,1.665904e-002
2.721111e+003,1.742904e-002
2.723040e+003,1.749030e-002
2.724969e+003,1.690265e-002
2.726897e+003,1.608941e-002
2.728825e+003,1.536838e-002
2.730754e+003,1.474008e-002
2.732682e+003,1.422120e-002
2.734611e+003,1.372047e-002
2.736539e+003,1.323949e-002
2.738468e+003,1.281220e-002
2.740396e+003,1.237147e-002
2.742325e+003,1.190869e-002
2.744253e+003,1.155601e-002
2.746182e+003,1.137483e-002
2.748110e+003,1.131112e-002
2.750039e+003,1.127462e-002
2.751967e+003,1.119366e-002
2.753896e+003,1.126426e-002
2.755824e+003,1.145598e-002
2.757753e+003,1.170499e-002
2.759681e+003,1.199418e-002
2.761610e+003,1.220492e-002
2.763538e+003,1.243591e-002
2.765467e+003,1.271372e-002
2.767395e+003,1.297496e-002
2.769324e+003,1.320448e-002
2.771252e+003,1.352865e-002
2.773181e+003,1.389040e-002
2.775109e+003,1.437699e-002
2.777038e+003,1.504349e-002
2.778966e+003,1.577879e-002
2.780895e+003,1.659148e-002
2.782823e+003,1.750483e-002
2.784752e+003,1.852783e-002
2.786680e+003,1.973344e-002
2.788609e+003,2.103908e-002
2.790537e+003,2.244750e-002
2.792466e+003,2.381551e-002
2.794394e+003,2.493601e-002
2.796323e+003,2.588635e-002
2.798251e+003,2.696028e-002
2.800180e+003,2.835120e-002
2.802108e+003,3.019003e-002
2.804037e+003,3.251085e-002
2.805965e+003,3.497804e-002
2.807894e+003,3.732356e-002
2.809822e+003,3.964224e-002
2.811751e+003,4.198059e-002
2.813679e+003,4.445015e-002
2.815608e+003,4.738965e-002
2.817536e+003,5.101454e-002
2.819465e+003,5.557522e-002
2.821393e+003,6.127711e-002
2.823322e+003,6.860100e-002
2.825250e+003,7.829567e-002
2.827179e+003,9.199945e-002
2.829107e+003,1.119544e-001
2.831036e+003,1.409486e-001
2.832964e+003,1.793414e-001
2.834893e+003,2.201758e-001
2.836821e+003,2.502144e-001
2.838750e+003,2.612258e-001
2.840678e+003,2.560184e-001
2.842607e+003,2.446588e-001
2.844535e+003,2.378103e-001
2.846464e+003,2.408290e-001
2.848392e+003,2.525137e-001
2.850321e+003,2.674253e-001
2.852249e+003,2.784417e-001
2.854178e+003,2.803428e-001
2.856106e+003,2.739598e-001
2.858035e+003,2.662969e-001
2.859963e+003,2.658646e-001
2.861892e+003,2.766398e-001
2.863820e+003,2.914506e-001
2.865749e+003,2.964701e-001
2.867677e+003,2.886608e-001
2.869606e+003,2.765857e-001
2.871534e+003,2.661975e-001
2.873463e+003,2.595176e-001
2.875391e+003,2.571131e-001
2.877320e+003,2.552328e-001
2.879248e+003,2.502936e-001
2.881177e+003,2.442797e-001
2.883105e+003,2.404447e-001
2.885034e+003,2.398242e-001
2.886962e+003,2.420339e-001
2.888891e+003,2.469905e-001
2.890819e+003,2.554516e-001
2.892748e+003,2.685483e-001
2.894676e+003,2.870751e-001
2.896605e+003,3.112270e-001
2.898533e+003,3.401195e-001
2.900462e+003,3.724708e-001
2.902390e+003,4.069069e-001
2.904319e+003,4.417320e-001
2.906247e+003,4.750578e-001
2.908176e+003,5.081222e-001
2.910104e+003,5.475925e-001
2.912033e+003,6.001636e-001
2.913961e+003,6.620936e-001
2.915890e+003,7.140034e-001
2.917818e+003,7.339522e-001
2.919747e+003,7.218851e-001
2.921675e+003,6.935157e-001
2.923604e+003,6.578494e-001
2.925532e+003,6.138683e-001
2.927461e+003,5.607777e-001
2.929389e+003,5.029479e-001
2.931318e+003,4.471418e-001
2.933246e+003,3.984130e-001
2.935175e+003,3.593639e-001
2.937103e+003,3.317186e-001
2.939032e+003,3.176287e-001
2.940960e+003,3.200526e-001
2.942889e+003,3.412183e-001
2.944817e+003,3.784611e-001
2.946746e+003,4.200085e-001
2.948674e+003,4.463496e-001
2.950603e+003,4.428309e-001
2.952531e+003,4.158811e-001
2.954460e+003,3.868206e-001
2.956388e+003,3.697938e-001
2.958317e+003,3.623066e-001
2.960245e+003,3.504462e-001
2.962174e+003,3.219895e-001
2.964102e+003,2.805152e-001
2.966031e+003,2.373473e-001
2.967959e+003,1.979188e-001
2.969888e+003,1.632796e-001
2.971816e+003,1.341922e-001
2.973745e+003,1.105777e-001
2.975673e+003,9.189951e-002
2.977602e+003,7.733176e-002
2.979530e+003,6.598293e-002
2.981459e+003,5.694803e-002
2.983387e+003,4.984168e-002
2.985316e+003,4.440691e-002
2.987244e+003,4.022189e-002
2.989173e+003,3.706907e-002
2.991101e+003,3.491204e-002
2.993030e+003,3.375036e-002
2.994958e+003,3.365620e-002
2.996887e+003,3.444204e-002
2.998815e+003,3.586734e-002
3.000744e+003,3.733759e-002
3.002672e+003,3.841086e-002
3.004601e+003,3.867452e-002
3.006529e+003,3.780965e-002
3.008458e+003,3.593599e-002
3.010386e+003,3.318140e-002
3.012315e+003,2.986345e-002
3.014243e+003,2.631976e-002
3.016172e+003,2.282786e-002
3.018100e+003,1.975784e-002
3.020029e+003,1.720792e-002
3.021957e+003,1.513367e-002
3.023886e+003,1.345294e-002
3.025814e+003,1.220569e-002
3.027743e+003,1.120875e-002
3.029671e+003,1.053439e-002
3.031600e+003,9.966239e-003
3.033528e+003,9.334505e-003
3.035457e+003,8.745909e-003
3.037385e+003,8.249201e-003
3.039314e+003,7.859953e-003
3.041242e+003,7.604837e-003
3.043171e+003,7.373132e-003
3.045099e+003,7.133141e-003
3.047028e+003,6.933033e-003
3.048956e+003,6.790012e-003
3.050885e+003,6.688133e-003
3.052813e+003,6.643921e-003
3.054742e+003,6.516255e-003
3.056670e+003,6.321616e-003
3.058599e+003,6.216973e-003
3.060527e+003,6.247327e-003
3.062456e+003,6.219752e-003
3.064384e+003,6.178632e-003
3.066313e+003,6.096616e-003
3.068241e+003,5.912252e-003
3.070170e+003,5.729206e-003
3.072098e+003,5.598485e-003
3.074027e+003,5.372569e-003
3.075955e+003,5.151123e-003
3.077884e+003,5.005099e-003
3.079812e+003,4.914179e-003
3.081741e+003,4.812144e-003
3.083669e+003,4.657388e-003
3.085598e+003,4.548237e-003
3.087526e+003,4.528716e-003
3.089455e+003,4.473694e-003
3.091383e+003,4.435003e-003
3.093312e+003,4.467890e-003
3.095240e+003,4.481465e-003
3.097169e+003,4.370227e-003
3.099097e+003,4.245572e-003
3.101026e+003,4.226930e-003
3.102954e+003,4.190996e-003
3.104883e+003,4.101083e-003
3.106811e+003,4.087538e-003
3.108740e+003,4.068382e-003
3.110668e+003,4.068397e-003
3.112597e+003,4.073843e-003
3.114525e+003,4.123390e-003
3.116454e+003,4.159756e-003
3.118382e+003,4.199170e-003
3.120311e+003,4.133672e-003
3.122239e+003,4.065424e-003
3.124168e+003,4.123099e-003
3.126096e+003,4.199907e-003
3.128025e+003,4.204512e-003
3.129953e+003,4.175268e-003
3.131882e+003,4.189894e-003
3.133810e+003,4.229113e-003
3.135739e+003,4.263811e-003
3.137667e+003,4.339710e-003
3.139596e+003,4.357122e-003
3.141524e+003,4.315369e-003
3.143453e+003,4.246898e-003
3.145381e+003,4.326068e-003
3.147310e+003,4.376628e-003
3.149238e+003,4.337005e-003
3.151167e+003,4.309803e-003
3.153095e+003,4.272558e-003
3.155024e+003,4.167959e-003
3.156952e+003,4.149266e-003
3.158881e+003,4.099309e-003
3.160809e+003,4.030928e-003
3.162738e+003,4.058555e-003
3.164666e+003,4.095905e-003
3.166594e+003,4.132189e-003
3.168523e+003,4.207253e-003
3.170452e+003,4.134730e-003
3.172380e+003,4.130095e-003
3.174309e+003,4.142553e-003
3.176237e+003,4.198626e-003
3.178166e+003,4.330046e-003
3.180094e+003,4.347742e-003
3.182022e+003,4.267707e-003
3.183951e+003,4.338615e-003
3.185880e+003,4.430421e-003
3.187808e+003,4.399844e-003
3.189737e+003,4.421912e-003
3.191665e+003,4.557408e-003
3.193594e+003,4.500493e-003
3.195522e+003,4.428811e-003
3.197450e+003,4.435413e-003
3.199379e+003,4.404210e-003
3.201308e+003,4.306391e-003
3.203236e+003,4.196346e-003
3.205165e+003,4.166871e-003
3.207093e+003,4.252091e-003
3.209021e+003,4.248597e-003
3.210950e+003,3.971577e-003
3.212878e+003,3.811248e-003
3.214807e+003,3.856167e-003
3.216736e+003,3.701322e-003
3.218664e+003,3.621459e-003
3.220593e+003,3.610507e-003
3.222521e+003,3.442362e-003
3.224449e+003,3.236912e-003
3.226378e+003,3.131039e-003
3.228307e+003,3.058180e-003
3.230235e+003,3.002279e-003
3.232164e+003,3.009751e-003
3.234092e+003,2.973907e-003
3.236021e+003,2.880238e-003
3.237949e+003,2.794981e-003
3.239877e+003,2.762511e-003
3.241806e+003,2.608702e-003
3.243735e+003,2.590150e-003
3.245663e+003,2.733871e-003
3.247592e+003,2.685867e-003
3.249520e+003,2.601996e-003
3.251448e+003,2.607256e-003
3.253377e+003,2.739929e-003
3.255305e+003,2.873220e-003
3.257234e+003,2.790049e-003
3.259163e+003,2.734192e-003
3.261091e+003,2.823181e-003
3.263020e+003,2.887852e-003
3.264948e+003,2.950743e-003
3.266876e+003,2.915643e-003
3.268805e+003,2.859317e-003
3.270733e+003,2.940103e-003
3.272662e+003,3.107913e-003
3.274591e+003,3.158942e-003
3.276519e+003,3.158286e-003
3.278448e+003,3.141031e-003
3.280376e+003,3.147952e-003
3.282304e+003,3.119789e-003
3.284233e+003,3.131382e-003
3.286161e+003,3.097177e-003
3.288090e+003,3.156677e-003
3.290019e+003,3.247105e-003
3.291947e+003,3.303833e-003
3.293875e+003,3.139161e-003
3.295804e+003,3.082387e-003
3.297732e+003,3.157079e-003
3.299661e+003,3.126107e-003
3.301589e+003,3.051542e-003
3.303518e+003,3.124222e-003
3.305447e+003,3.122836e-003
3.307375e+003,3.075361e-003
3.309303e+003,3.056027e-003
3.311232e+003,3.012560e-003
3.313160e+003,2.944969e-003
3.315089e+003,2.833456e-003
3.317018e+003,2.760924e-003
3.318946e+003,2.755143e-003
3.320875e+003,2.733625e-003
3.322803e+003,2.810225e-003
3.324731e+003,2.917722e-003
3.326660e+003,2.946980e-003
3.328588e+003,2.951235e-003
3.330517e+003,2.975665e-003
3.332446e+003,2.965905e-003
3.334374e+003,3.053702e-003
3.336302e+003,3.120780e-003
3.338231e+003,3.127381e-003
3.340159e+003,3.113002e-003
3.342088e+003,3.089793e-003
3.344016e+003,3.019355e-003
3.345945e+003,3.005959e-003
3.347874e+003,3.038585e-003
3.349802e+003,3.085718e-003
3.351730e+003,3.035635e-003
3.353659e+003,2.907045e-003
3.355587e+003,2.953321e-003
3.357516e+003,2.990305e-003
3.359444e+003,3.034621e-003
3.361373e+003,3.139988e-003
3.363302e+003,3.069937e-003
3.365230e+003,3.014073e-003
3.367158e+003,2.957530e-003
3.369087e+003,2.857462e-003
3.371015e+003,2.675690e-003
3.372944e+003,2.618492e-003
3.374872e+003,2.684280e-003
3.376801e+003,2.715103e-003
3.378729e+003,2.641931e-003
3.380658e+003,2.537936e-003
3.382586e+003,2.537847e-003
3.384515e+003,2.573580e-003
3.386443e+003,2.536327e-003
3.388372e+003,2.480924e-003
3.390300e+003,2.515584e-003
3.392229e+003,2.754107e-003
3.394157e+003,2.618857e-003
3.396086e+003,2.568655e-003
3.398014e+003,2.499871e-003
3.399943e+003,2.334945e-003
3.401871e+003,2.408147e-003
3.403800e+003,2.483241e-003
3.405728e+003,2.482206e-003
3.407657e+003,2.722368e-003
3.409585e+003,2.816111e-003
3.411514e+003,2.704479e-003
3.413442e+003,2.637461e-003
3.415371e+003,2.658255e-003
3.417299e+003,2.592124e-003
3.419228e+003,2.804019e-003
3.421156e+003,3.033735e-003
3.423085e+003,2.797775e-003
3.425013e+003,2.488971e-003
3.426942e+003,2.474189e-003
3.428870e+003,2.412580e-003
3.430799e+003,2.435252e-003
3.432727e+003,2.447180e-003
3.434656e+003,2.436109e-003
3.436584e+003,2.491772e-003
3.438513e+003,2.555072e-003
3.440441e+003,2.506256e-003
3.442370e+003,2.610140e-003
3.444298e+003,2.586059e-003
3.446227e+003,2.991706e-003
3.448155e+003,3.022149e-003
3.450084e+003,2.540998e-003
3.452012e+003,2.538472e-003
3.453941e+003,2.783902e-003
3.455869e+003,2.718672e-003
3.457798e+003,2.770953e-003
3.459726e+003,2.983995e-003
3.461655e+003,3.267176e-003
3.463583e+003,3.187843e-003
3.465512e+003,3.124826e-003
3.467440e+003,3.170684e-003
3.469369e+003,3.064021e-003
3.471297e+003,2.827324e-003
3.473226e+003,2.874531e-003
3.475154e+003,3.011502e-003
3.477083e+003,2.947532e-003
3.479011e+003,2.974398e-003
3.480940e+003,3.097855e-003
3.482868e+003,2.899453e-003
3.484797e+003,2.496645e-003
3.486725e+003,2.524279e-003
3.488654e+003,2.488777e-003
3.490582e+003,2.070606e-003
3.492511e+003,1.969233e-003
3.494439e+003,2.136454e-003
3.496368e+003,2.149865e-003
3.498296e+003,1.982532e-003
3.500225e+003,2.045356e-003
3.502153e+003,2.563715e-003
3.504082e+003,2.429992e-003
3.506010e+003,1.612306e-003
3.507939e+003,1.667663e-003
3.509867e+003,1.922429e-003
3.511796e+003,1.622051e-003
3.513724e+003,1.412272e-003
3.515653e+003,1.365185e-003
3.517581e+003,1.486190e-003
3.519510e+003,1.480199e-003
3.521438e+003,1.723200e-003
3.523367e+003,2.340436e-003
3.525295e+003,2.355747e-003
3.527224e+003,2.254173e-003
3.529152e+003,1.913011e-003
3.531081e+003,1.407661e-003
3.533009e+003,9.011775e-004
3.534938e+003,1.199059e-003
3.536866e+003,1.408122e-003
3.538795e+003,9.159073e-004
3.540723e+003,6.872490e-004
3.542652e+003,1.126274e-003
3.544580e+003,1.800925e-003
3.546509e+003,2.043195e-003
3.548437e+003,1.299582e-003
3.550366e+003,8.797720e-004
3.552294e+003,1.089379e-003
3.554223e+003,6.184056e-004
3.556151e+003,2.850443e-004
3.558080e+003,6.113648e-004
3.560008e+003,8.406118e-004
3.561937e+003,7.113218e-004
3.563865e+003,1.016036e-003
3.565794e+003,2.805889e-003
3.567722e+003,3.641836e-003
3.569651e+003,1.539461e-003
3.571579e+003,1.636222e-004
3.573508e+003,2.910942e-005
3.575436e+003,-2.282113e-005
3.577365e+003,-7.301569e-007
3.579293e+003,1.196265e-004
3.581222e+003,-2.687126e-004
3.583150e+003,-4.940704e-004
3.585079e+003,1.412630e-005
3.587007e+003,2.109267e-003
3.588936e+003,1.925655e-003
3.590864e+003,2.827644e-004
3.592793e+003,2.105534e-005
3.594721e+003,5.332530e-004
3.596650e+003,4.540682e-004
3.598578e+003,5.697906e-004
3.600507e+003,6.986111e-004
3.602435e+003,1.044273e-004
3.604364e+003,-5.018488e-004
3.606292e+003,-1.029670e-004
3.608221e+003,1.420550e-003
3.610149e+003,1.167871e-003
3.612078e+003,1.146898e-003
3.614006e+003,1.622356e-003
3.615935e+003,6.513074e-004
3.617863e+003,1.404211e-003
3.619792e+003,2.797693e-003
3.621720e+003,9.984300e-004
3.623649e+003,-8.275360e-005
3.625577e+003,-8.630008e-005
3.627506e+003,1.620412e-003
3.629434e+003,3.923744e-003
3.631363e+003,1.638554e-003
3.633291e+003,5.349368e-004
3.635220e+003,1.233593e-004
3.637148e+003,-1.324415e-004
3.639077e+003,-7.411838e-005
3.641005e+003,3.033504e-004
3.642934e+003,1.373366e-004
3.644862e+003,4.547760e-004
3.646791e+003,2.783991e-003
3.648719e+003,6.060317e-003
3.650648e+003,5.545422e-003
3.652576e+003,1.201421e-003
3.654505e+003,-1.831353e-004
3.656433e+003,5.101338e-004
3.658362e+003,2.051368e-004
3.660290e+003,-3.389493e-004
3.662219e+003,-5.125701e-004
3.664147e+003,-6.383657e-004
3.666076e+003,-7.579103e-004
3.668004e+003,1.119748e-004
3.669933e+003,2.975814e-003
3.671861e+003,1.540922e-003
3.673790e+003,1.003690e-003
3.675718e+003,3.624409e-003
3.677647e+003,2.128258e-003
3.679575e+003,9.640455e-004
3.681504e+003,5.313233e-004
3.683432e+003,5.424023e-006
3.685361e+003,-2.168119e-004
3.687289e+003,5.926937e-004
3.689218e+003,2.486981e-003
3.691146e+003,2.887629e-003
3.693075e+003,1.317255e-003
3.695003e+003,4.243851e-004
3.696932e+003,8.166581e-005
3.698860e+003,-4.414171e-004
3.700789e+003,2.063513e-004
3.702717e+003,6.760880e-004
3.704646e+003,-1.113862e-004
3.706574e+003,-5.184859e-005
3.708503e+003,8.817762e-004
3.710431e+003,2.665356e-003
3.712360e+003,3.184289e-003
3.714288e+003,1.299955e-003
3.716217e+003,-5.979091e-005
3.718145e+003,1.166910e-004
3.720074e+003,7.784292e-004
3.722002e+003,1.799807e-003
3.723931e+003,1.974009e-003
3.725859e+003,1.983061e-003
3.727788e+003,8.838475e-004
3.729716e+003,1.330450e-004
3.731645e+003,1.264676e-003
3.733573e+003,3.271960e-003
3.735502e+003,4.997626e-003
3.737430e+003,3.565855e-003
3.739359e+003,2.328373e-003
3.741287e+003,1.558617e-003
3.743216e+003,2.820879e-003
3.745144e+003,4.536793e-003
3.747073e+003,3.213458e-003
3.749001e+003,3.746323e-003
3.750930e+003,6.272964e-003
3.752858e+003,4.361041e-003
3.754787e+003,2.663493e-003
3.756715e+003,2.173245e-003
3.758644e+003,2.663024e-003
3.760572e+003,2.299890e-003
3.762501e+003,9.169951e-004
3.764429e+003,1.675099e-003
3.766358e+003,2.022721e-003
3.768286e+003,1.661181e-003
3.770215e+003,2.522416e-003
3.772143e+003,1.299314e-003
3.774072e+003,1.438633e-004
3.776000e+003,2.466291e-004
3.777929e+003,9.513199e-004
3.779857e+003,1.733705e-003
3.781786e+003,7.981807e-004
3.783714e+003,5.985051e-004
3.785643e+003,9.792075e-004
3.787571e+003,7.328391e-005
3.789500e+003,-4.127324e-004
3.791428e+003,-2.424419e-005
3.793357e+003,-5.412027e-004
3.795285e+003,6.085709e-004
3.797214e+003,1.821481e-003
3.799142e+003,8.236766e-004
3.801071e+003,3.366597e-003
3.802999e+003,2.671704e-003
3.804927e+003,4.097372e-004
3.806856e+003,1.681812e-003
3.808785e+003,8.320585e-004
3.810713e+003,1.109019e-004
3.812642e+003,1.882538e-004
3.814570e+003,8.442551e-004
3.816499e+003,2.170347e-003
3.818427e+003,1.149379e-003
3.820355e+003,2.413161e-003
3.822284e+003,3.624499e-003
3.824213e+003,1.336217e-003
3.826141e+003,1.313984e-003
3.828070e+003,1.127876e-003
3.829998e+003,2.530962e-004
3.831927e+003,1.164787e-003
3.833855e+003,1.612879e-003
3.835783e+003,1.697890e-003
3.837712e+003,3.527112e-003
3.839641e+003,3.583275e-003
3.841569e+003,2.187721e-003
3.843498e+003,2.024740e-003
3.845426e+003,8.110702e-004
3.847354e+003,-1.097992e-004
3.849283e+003,3.107041e-004
3.851211e+003,1.550592e-003
3.853140e+003,5.758226e-003
3.855069e+003,4.843526e-003
3.856997e+003,1.875333e-003
3.858926e+003,5.932748e-004
3.860854e+003,1.348034e-003
3.862782e+003,2.291210e-003
3.864711e+003,3.618866e-003
3.866640e+003,1.502819e-003
3.868568e+003,1.686797e-003
3.870497e+003,3.664158e-003
3.872425e+003,2.524599e-003
3.874354e+003,2.468139e-003
3.876282e+003,1.295589e-003
3.878210e+003,-1.370162e-004
3.880139e+003,2.020024e-003
3.882068e+003,2.136670e-003
3.883996e+003,1.522876e-003
3.885925e+003,2.631985e-003
3.887853e+003,9.087697e-004
3.889781e+003,4.726499e-004
3.891710e+003,2.429850e-003
3.893638e+003,1.554556e-003
3.895567e+003,3.806874e-004
3.897496e+003,8.358136e-004
3.899424e+003,2.069540e-003
3.901353e+003,2.792254e-003
3.903281e+003,3.667429e-003
3.905209e+003,3.193818e-003
3.907138e+003,1.166098e-003
3.909066e+003,-1.887903e-004
3.910995e+003,-1.156405e-004
3.912924e+003,-4.534423e-005
3.914852e+003,4.395097e-004
3.916781e+003,1.470745e-003
3.918709e+003,1.587123e-003
3.920637e+003,9.372905e-004
3.922566e+003,9.753332e-004
3.924494e+003,1.597911e-003
3.926423e+003,7.202700e-004
3.928352e+003,3.835261e-004
3.930280e+003,9.545237e-004
3.932208e+003,1.584306e-003
3.934137e+003,9.559020e-004
3.936065e+003,2.313256e-004
3.937994e+003,-1.031905e-005
3.939922e+003,-1.052916e-004
3.941851e+003,7.247403e-004
3.943780e+003,9.458289e-004
3.945708e+003,3.313273e-004
3.947636e+003,7.933676e-004
3.949565e+003,1.043417e-003
3.951493e+003,5.020723e-004
3.953422e+003,1.445711e-004
3.955351e+003,-9.030104e-006
3.957279e+003,4.261732e-006
3.959208e+003,1.612678e-004
3.961136e+003,3.584027e-004
3.963064e+003,7.777661e-005
3.964993e+003,-3.334507e-004
3.966921e+003,-1.609027e-004
3.968850e+003,1.079366e-004
3.970779e+003,9.485334e-005
3.972707e+003,1.914501e-004
3.974635e+003,3.079474e-004
3.976564e+003,1.678318e-004
3.978492e+003,-4.965067e-005
3.980421e+003,-4.468858e-005
3.982349e+003,-6.884336e-005
3.984278e+003,-1.478046e-004
3.986207e+003,-2.312213e-004
3.988135e+003,-1.938641e-004
3.990063e+003,5.236268e-005
3.991992e+003,8.353591e-005
3.993920e+003,8.226931e-005
3.995849e+003,2.689660e-005
3.997777e+003,-1.559854e-004
3.999706e+003,-7.559359e-005
4.001635e+003,0.000000e+000
